E:\DOCUMENTS AND SETTINGS\JPOTAS\MEUS DOCUMENTOS\UFRJ\RSCI-BM 12 WK SERIES\070720-RSCI-BM-04\RSCI-BM-04-REMG\070720-RSCI-BM-REMG-0009.ACQ
0.025000 msec/sample
1 channel
Analog input
Volts
CH1	
2000	
-0.387268	
-0.388184	
-0.387512	
-0.388916	
-0.387329	
-0.387268	
-0.387451	
-0.386963	
-0.387573	
-0.387146	
-0.387756	
-0.387695	
-0.388062	
-0.386963	
-0.388123	
-0.388	
-0.388611	
-0.387939	
-0.387939	
-0.388916	
-0.389404	
-0.388794	
-0.388733	
-0.389099	
-0.389465	
-0.389099	
-0.388367	
-0.388916	
-0.388916	
-0.388367	
-0.388733	
-0.389526	
-0.388611	
-0.388977	
-0.387512	
-0.389404	
-0.388611	
-0.388245	
-0.388428	
-0.388184	
-0.388428	
-0.387451	
-0.388428	
-0.388794	
-0.389099	
-0.388733	
-0.389099	
-0.38855	
-0.388428	
-0.387451	
-0.387268	
-0.388184	
-0.389038	
-0.388489	
-0.388245	
-0.387695	
-0.388794	
-0.388306	
-0.388733	
-0.389648	
-0.389282	
-0.389404	
-0.389526	
-0.390381	
-0.390015	
-0.390686	
-0.388916	
-0.390564	
-0.391296	
-0.390503	
-0.390015	
-0.390442	
-0.390686	
-0.390625	
-0.390625	
-0.391174	
-0.391479	
-0.390442	
-0.391296	
-0.390137	
-0.391296	
-0.390625	
-0.389954	
-0.390503	
-0.391235	
-0.390503	
-0.390747	
-0.390076	
-0.391663	
-0.391174	
-0.390747	
-0.391174	
-0.390564	
-0.391113	
-0.389893	
-0.391235	
-0.389893	
-0.390564	
-0.389343	
-0.390198	
-0.389526	
-0.389404	
-0.388306	
-0.388123	
-0.389221	
-0.389587	
-0.388977	
-0.389221	
-0.389343	
-0.388733	
-0.38855	
-0.387573	
-0.388428	
-0.388428	
-0.387817	
-0.387939	
-0.389282	
-0.388794	
-0.389221	
-0.388062	
-0.389832	
-0.389709	
-0.389221	
-0.390137	
-0.388916	
-0.389648	
-0.389893	
-0.390686	
-0.39093	
-0.391724	
-0.39093	
-0.391724	
-0.390198	
-0.390808	
-0.389709	
-0.390869	
-0.391479	
-0.391907	
-0.391724	
-0.392212	
-0.391968	
-0.39209	
-0.392517	
-0.392578	
-0.393372	
-0.392578	
-0.393005	
-0.393311	
-0.39447	
-0.393616	
-0.394348	
-0.39325	
-0.394958	
-0.394043	
-0.393738	
-0.394592	
-0.39325	
-0.394043	
-0.39325	
-0.394592	
-0.39447	
-0.393799	
-0.3927	
-0.393921	
-0.393005	
-0.393005	
-0.391541	
-0.393616	
-0.393738	
-0.393494	
-0.393372	
-0.394165	
-0.393616	
-0.393982	
-0.394958	
-0.394226	
-0.39447	
-0.39386	
-0.394287	
-0.394653	
-0.394836	
-0.394348	
-0.394653	
-0.39386	
-0.395142	
-0.393494	
-0.394287	
-0.394165	
-0.39325	
-0.39386	
-0.392822	
-0.394165	
-0.394226	
-0.394043	
-0.39325	
-0.394531	
-0.393982	
-0.393188	
-0.391907	
-0.39325	
-0.392883	
-0.393555	
-0.393311	
-0.394836	
-0.393738	
-0.39386	
-0.393799	
-0.393066	
-0.393311	
-0.391846	
-0.392212	
-0.391479	
-0.392883	
-0.391846	
-0.391785	
-0.391052	
-0.392822	
-0.392029	
-0.391663	
-0.390076	
-0.390259	
-0.391296	
-0.391418	
-0.391357	
-0.392212	
-0.391418	
-0.391602	
-0.391724	
-0.391968	
-0.392944	
-0.391602	
-0.392151	
-0.391602	
-0.392944	
-0.392334	
-0.3927	
-0.390869	
-0.392395	
-0.391418	
-0.392029	
-0.391541	
-0.391846	
-0.392517	
-0.392334	
-0.393738	
-0.393677	
-0.394165	
-0.394592	
-0.395203	
-0.39563	
-0.395203	
-0.39447	
-0.394409	
-0.395569	
-0.396118	
-0.396118	
-0.3974	
-0.396118	
-0.396973	
-0.396851	
-0.397583	
-0.397827	
-0.397217	
-0.396484	
-0.396423	
-0.397766	
-0.397095	
-0.3974	
-0.395935	
-0.397095	
-0.396362	
-0.397095	
-0.395569	
-0.395752	
-0.39563	
-0.395386	
-0.39563	
-0.396301	
-0.395874	
-0.395874	
-0.396301	
-0.39801	
-0.397095	
-0.396973	
-0.3974	
-0.397766	
-0.399292	
-0.399475	
-0.400635	
-0.401611	
-0.402649	
-0.403442	
-0.405701	
-0.40625	
-0.408875	
-0.41095	
-0.413086	
-0.415222	
-0.418579	
-0.420349	
-0.423828	
-0.424866	
-0.429749	
-0.43158	
-0.435059	
-0.436401	
-0.438965	
-0.442871	
-0.446045	
-0.447937	
-0.450989	
-0.453308	
-0.456299	
-0.458557	
-0.460632	
-0.462463	
-0.465332	
-0.468994	
-0.471802	
-0.475647	
-0.478455	
-0.482178	
-0.485352	
-0.488708	
-0.491089	
-0.495239	
-0.499573	
-0.50354	
-0.507385	
-0.512024	
-0.514587	
-0.519104	
-0.521667	
-0.52594	
-0.528809	
-0.530701	
-0.533325	
-0.535156	
-0.538025	
-0.538879	
-0.540222	
-0.540955	
-0.542908	
-0.543945	
-0.544373	
-0.54425	
-0.544495	
-0.54425	
-0.545044	
-0.543823	
-0.543396	
-0.541321	
-0.540833	
-0.538269	
-0.539185	
-0.537476	
-0.535645	
-0.533081	
-0.53241	
-0.531921	
-0.529663	
-0.527771	
-0.52478	
-0.523438	
-0.521545	
-0.519226	
-0.516235	
-0.513245	
-0.51062	
-0.508606	
-0.505188	
-0.502441	
-0.497375	
-0.494934	
-0.490112	
-0.487427	
-0.483276	
-0.478455	
-0.473999	
-0.470459	
-0.468262	
-0.4646	
-0.46051	
-0.457458	
-0.453918	
-0.450134	
-0.446106	
-0.440674	
-0.437317	
-0.432129	
-0.427734	
-0.421875	
-0.416321	
-0.410095	
-0.404541	
-0.398865	
-0.395264	
-0.390076	
-0.38501	
-0.380188	
-0.375854	
-0.372681	
-0.368347	
-0.36554	
-0.36084	
-0.359131	
-0.354614	
-0.353394	
-0.351257	
-0.348938	
-0.347229	
-0.345398	
-0.345825	
-0.345825	
-0.344849	
-0.345337	
-0.345886	
-0.346863	
-0.34729	
-0.347046	
-0.347351	
-0.349182	
-0.350647	
-0.351135	
-0.352051	
-0.351807	
-0.354065	
-0.354248	
-0.356018	
-0.355408	
-0.357117	
-0.358093	
-0.359192	
-0.359314	
-0.360107	
-0.359558	
-0.360901	
-0.360596	
-0.361206	
-0.361938	
-0.362366	
-0.362976	
-0.362915	
-0.364258	
-0.365479	
-0.36554	
-0.366455	
-0.366943	
-0.367798	
-0.368103	
-0.367615	
-0.367065	
-0.367554	
-0.368652	
-0.368958	
-0.368896	
-0.369263	
-0.369324	
-0.370056	
-0.368958	
-0.368652	
-0.368958	
-0.369812	
-0.370483	
-0.369629	
-0.370483	
-0.370422	
-0.371399	
-0.370422	
-0.370605	
-0.369873	
-0.370667	
-0.370911	
-0.372131	
-0.371399	
-0.371338	
-0.369934	
-0.371094	
-0.370239	
-0.370483	
-0.370544	
-0.370728	
-0.370911	
-0.370911	
-0.370117	
-0.371094	
-0.369873	
-0.370422	
-0.370667	
-0.371216	
-0.37146	
-0.370728	
-0.369995	
-0.370605	
-0.371399	
-0.372314	
-0.372131	
-0.372375	
-0.371887	
-0.372375	
-0.372009	
-0.372192	
-0.371033	
-0.371216	
-0.371399	
-0.37146	
-0.37085	
-0.370117	
-0.370911	
-0.370605	
-0.370178	
-0.368652	
-0.369568	
-0.369934	
-0.370911	
-0.370605	
-0.371399	
-0.370789	
-0.371704	
-0.371033	
-0.372009	
-0.373352	
-0.373596	
-0.373718	
-0.374146	
-0.375671	
-0.375488	
-0.375183	
-0.376465	
-0.376648	
-0.377197	
-0.377075	
-0.376892	
-0.376831	
-0.377869	
-0.379028	
-0.378662	
-0.379517	
-0.379333	
-0.381042	
-0.380249	
-0.38092	
-0.381409	
-0.381165	
-0.381653	
-0.381409	
-0.381714	
-0.382202	
-0.381836	
-0.381653	
-0.381836	
-0.383057	
-0.382813	
-0.381775	
-0.38092	
-0.381226	
-0.382141	
-0.381775	
-0.381287	
-0.380737	
-0.381714	
-0.380127	
-0.381165	
-0.379639	
-0.38031	
-0.380432	
-0.380981	
-0.381165	
-0.381042	
-0.379944	
-0.380615	
-0.380493	
-0.381653	
-0.38147	
-0.380676	
-0.379883	
-0.379517	
-0.381104	
-0.379883	
-0.380005	
-0.378784	
-0.379761	
-0.378052	
-0.378784	
-0.378174	
-0.378235	
-0.37793	
-0.378174	
-0.377991	
-0.377991	
-0.377869	
-0.376587	
-0.377319	
-0.377747	
-0.378174	
-0.377075	
-0.377014	
-0.377014	
-0.378113	
-0.378235	
-0.378906	
-0.377869	
-0.378723	
-0.378784	
-0.380249	
-0.380249	
-0.379944	
-0.380066	
-0.380615	
-0.381775	
-0.381165	
-0.380249	
-0.3797	
-0.381897	
-0.381531	
-0.381775	
-0.380554	
-0.381714	
-0.381714	
-0.382751	
-0.38269	
-0.384644	
-0.383606	
-0.384277	
-0.384277	
-0.384644	
-0.384033	
-0.384766	
-0.384644	
-0.384949	
-0.385315	
-0.385193	
-0.385254	
-0.384216	
-0.38623	
-0.385681	
-0.385315	
-0.384766	
-0.384033	
-0.38501	
-0.384888	
-0.384705	
-0.38501	
-0.384155	
-0.384766	
-0.384338	
-0.384216	
-0.384033	
-0.382996	
-0.383667	
-0.383057	
-0.383911	
-0.38324	
-0.383484	
-0.381836	
-0.383667	
-0.38324	
-0.383484	
-0.382629	
-0.382019	
-0.382141	
-0.382813	
-0.381836	
-0.382202	
-0.381775	
-0.382141	
-0.382813	
-0.380981	
-0.380676	
-0.380432	
-0.380615	
-0.380737	
-0.381409	
-0.381104	
-0.381714	
-0.380981	
-0.382568	
-0.381775	
-0.383972	
-0.383118	
-0.384399	
-0.384216	
-0.385864	
-0.386597	
-0.388306	
-0.388062	
-0.389771	
-0.390198	
-0.392334	
-0.39325	
-0.39386	
-0.396973	
-0.399048	
-0.40033	
-0.40332	
-0.404907	
-0.407654	
-0.410889	
-0.412292	
-0.414124	
-0.415344	
-0.420227	
-0.422852	
-0.425476	
-0.428345	
-0.429871	
-0.433533	
-0.436707	
-0.438965	
-0.441162	
-0.442017	
-0.446045	
-0.448792	
-0.45166	
-0.454041	
-0.456604	
-0.459167	
-0.46344	
-0.466736	
-0.471558	
-0.474121	
-0.478577	
-0.481445	
-0.487183	
-0.491028	
-0.496582	
-0.499878	
-0.504578	
-0.508484	
-0.51239	
-0.514832	
-0.516907	
-0.520508	
-0.523499	
-0.52533	
-0.528687	
-0.529907	
-0.531128	
-0.533752	
-0.534302	
-0.535889	
-0.535828	
-0.536865	
-0.537964	
-0.538452	
-0.537842	
-0.536621	
-0.535461	
-0.536011	
-0.534363	
-0.534058	
-0.531921	
-0.530701	
-0.529297	
-0.528687	
-0.526428	
-0.525574	
-0.522278	
-0.520142	
-0.517883	
-0.514343	
-0.510864	
-0.506897	
-0.5047	
-0.502014	
-0.499023	
-0.495422	
-0.49176	
-0.488037	
-0.48468	
-0.480347	
-0.477417	
-0.472778	
-0.46936	
-0.463989	
-0.461914	
-0.458069	
-0.454834	
-0.4505	
-0.447083	
-0.444092	
-0.440002	
-0.435608	
-0.430725	
-0.427307	
-0.423157	
-0.419312	
-0.41449	
-0.409241	
-0.402283	
-0.398682	
-0.394165	
-0.389648	
-0.38324	
-0.377563	
-0.373169	
-0.369385	
-0.363953	
-0.361023	
-0.355957	
-0.352661	
-0.349915	
-0.347046	
-0.344177	
-0.341736	
-0.340637	
-0.339233	
-0.339722	
-0.338562	
-0.33844	
-0.337952	
-0.338684	
-0.339478	
-0.340759	
-0.340576	
-0.340515	
-0.342041	
-0.344421	
-0.345093	
-0.346436	
-0.346619	
-0.348267	
-0.35022	
-0.350769	
-0.351196	
-0.350098	
-0.351379	
-0.352783	
-0.352905	
-0.353394	
-0.353333	
-0.354065	
-0.355103	
-0.355225	
-0.355286	
-0.35553	
-0.356262	
-0.3573	
-0.35791	
-0.358521	
-0.358521	
-0.358643	
-0.359009	
-0.359253	
-0.359192	
-0.359253	
-0.359863	
-0.359863	
-0.360474	
-0.360596	
-0.360474	
-0.361084	
-0.361572	
-0.361755	
-0.362244	
-0.361877	
-0.362	
-0.362061	
-0.364014	
-0.364197	
-0.364258	
-0.363831	
-0.365295	
-0.36676	
-0.366516	
-0.36615	
-0.364746	
-0.365601	
-0.367371	
-0.367004	
-0.366028	
-0.365845	
-0.366089	
-0.367004	
-0.366455	
-0.365723	
-0.364136	
-0.365417	
-0.366394	
-0.366638	
-0.36676	
-0.366211	
-0.366577	
-0.367676	
-0.367493	
-0.367371	
-0.366455	
-0.367188	
-0.367798	
-0.367737	
-0.369019	
-0.368164	
-0.368591	
-0.368958	
-0.369995	
-0.369934	
-0.369751	
-0.370239	
-0.370483	
-0.371155	
-0.371338	
-0.37085	
-0.370667	
-0.370972	
-0.371704	
-0.371948	
-0.371216	
-0.371521	
-0.371704	
-0.373779	
-0.373779	
-0.373474	
-0.373474	
-0.374878	
-0.377136	
-0.376099	
-0.376648	
-0.375244	
-0.376282	
-0.378296	
-0.377991	
-0.378723	
-0.378662	
-0.378906	
-0.379578	
-0.379761	
-0.379456	
-0.379822	
-0.380066	
-0.380493	
-0.380554	
-0.38092	
-0.380615	
-0.380249	
-0.380493	
-0.381104	
-0.380615	
-0.380005	
-0.379028	
-0.379761	
-0.380127	
-0.379761	
-0.380005	
-0.378967	
-0.379822	
-0.379944	
-0.380188	
-0.379333	
-0.377869	
-0.378052	
-0.378601	
-0.378113	
-0.378601	
-0.377136	
-0.377136	
-0.376648	
-0.376038	
-0.375977	
-0.375671	
-0.37561	
-0.375977	
-0.376648	
-0.375854	
-0.375488	
-0.374878	
-0.375244	
-0.377075	
-0.376282	
-0.376038	
-0.374084	
-0.375549	
-0.376099	
-0.376465	
-0.377075	
-0.376709	
-0.37677	
-0.377075	
-0.377686	
-0.377625	
-0.377991	
-0.377869	
-0.378418	
-0.37915	
-0.379578	
-0.379089	
-0.377625	
-0.379272	
-0.381042	
-0.379944	
-0.379578	
-0.378296	
-0.380127	
-0.381531	
-0.38147	
-0.381104	
-0.381165	
-0.381775	
-0.382141	
-0.38208	
-0.38269	
-0.382324	
-0.38269	
-0.382324	
-0.384033	
-0.384277	
-0.383728	
-0.382629	
-0.383423	
-0.384766	
-0.383667	
-0.38324	
-0.382324	
-0.383118	
-0.383545	
-0.383362	
-0.382568	
-0.382751	
-0.38208	
-0.382263	
-0.382324	
-0.383179	
-0.382263	
-0.381531	
-0.380981	
-0.382996	
-0.382446	
-0.381958	
-0.381042	
-0.38147	
-0.383911	
-0.382629	
-0.38269	
-0.38208	
-0.382385	
-0.383118	
-0.383301	
-0.382935	
-0.382324	
-0.382568	
-0.383118	
-0.382813	
-0.383057	
-0.381531	
-0.382141	
-0.381165	
-0.382385	
-0.382263	
-0.381714	
-0.381958	
-0.382874	
-0.383728	
-0.382202	
-0.382324	
-0.381104	
-0.382324	
-0.38324	
-0.383545	
-0.381592	
-0.380249	
-0.380493	
-0.380798	
-0.380249	
-0.380981	
-0.379761	
-0.380005	
-0.379333	
-0.379822	
-0.379272	
-0.379272	
-0.378662	
-0.378784	
-0.379761	
-0.378357	
-0.377808	
-0.376709	
-0.378296	
-0.377869	
-0.378296	
-0.377747	
-0.377563	
-0.377441	
-0.378601	
-0.37793	
-0.37854	
-0.376831	
-0.377319	
-0.377686	
-0.377991	
-0.378052	
-0.376404	
-0.377502	
-0.376709	
-0.37793	
-0.37793	
-0.377563	
-0.377869	
-0.378296	
-0.378296	
-0.379028	
-0.378601	
-0.379028	
-0.379333	
-0.3797	
-0.379639	
-0.379333	
-0.378418	
-0.379089	
-0.380188	
-0.380127	
-0.380798	
-0.379211	
-0.380371	
-0.380798	
-0.381287	
-0.381714	
-0.380493	
-0.380798	
-0.380432	
-0.380859	
-0.381409	
-0.380859	
-0.380432	
-0.380127	
-0.381104	
-0.380554	
-0.379517	
-0.378662	
-0.377808	
-0.380188	
-0.378967	
-0.379028	
-0.37738	
-0.378479	
-0.378235	
-0.378906	
-0.378845	
-0.377991	
-0.377808	
-0.377197	
-0.377319	
-0.377258	
-0.377869	
-0.377502	
-0.377441	
-0.376343	
-0.377563	
-0.37677	
-0.376038	
-0.375122	
-0.376953	
-0.376343	
-0.376831	
-0.376038	
-0.37616	
-0.376648	
-0.37738	
-0.377197	
-0.376587	
-0.375977	
-0.37561	
-0.376953	
-0.377319	
-0.377869	
-0.377075	
-0.377441	
-0.377197	
-0.378662	
-0.377441	
-0.37677	
-0.375793	
-0.378113	
-0.376709	
-0.377014	
-0.376709	
-0.377258	
-0.377319	
-0.377197	
-0.377014	
-0.376648	
-0.375244	
-0.376709	
-0.376892	
-0.376648	
-0.377258	
-0.376648	
-0.377136	
-0.377136	
-0.378296	
-0.376831	
-0.376892	
-0.376343	
-0.377197	
-0.376892	
-0.376343	
-0.375916	
-0.376709	
-0.376465	
-0.37677	
-0.376709	
-0.376343	
-0.375183	
-0.376587	
-0.376648	
-0.376831	
-0.37677	
-0.377319	
-0.377502	
-0.377991	
-0.379272	
-0.378174	
-0.377441	
-0.377136	
-0.378845	
-0.378479	
-0.378601	
-0.378967	
-0.37915	
-0.378906	
-0.378906	
-0.379395	
-0.378784	
-0.377869	
-0.379089	
-0.379272	
-0.378967	
-0.378906	
-0.378723	
-0.378784	
-0.379211	
-0.378845	
-0.378906	
-0.378235	
-0.378357	
-0.378479	
-0.378723	
-0.378357	
-0.378967	
-0.378906	
-0.378723	
-0.379211	
-0.379517	
-0.378906	
-0.377075	
-0.377686	
-0.378052	
-0.377686	
-0.377258	
-0.377136	
-0.376648	
-0.377258	
-0.376892	
-0.376404	
-0.376099	
-0.375977	
-0.375671	
-0.376099	
-0.376038	
-0.375977	
-0.375061	
-0.375732	
-0.375183	
-0.37561	
-0.375122	
-0.373718	
-0.375488	
-0.37561	
-0.375793	
-0.376404	
-0.376709	
-0.376526	
-0.376892	
-0.377258	
-0.376709	
-0.376526	
-0.37677	
-0.376892	
-0.377319	
-0.377625	
-0.378174	
-0.377747	
-0.377686	
-0.37854	
-0.379578	
-0.378906	
-0.37915	
-0.379578	
-0.380554	
-0.380981	
-0.382446	
-0.381531	
-0.381226	
-0.38208	
-0.382019	
-0.381836	
-0.381165	
-0.382141	
-0.382996	
-0.383179	
-0.383057	
-0.382874	
-0.38324	
-0.383484	
-0.383545	
-0.383789	
-0.38269	
-0.381836	
-0.382751	
-0.382568	
-0.382324	
-0.382874	
-0.382568	
-0.382385	
-0.381165	
-0.381042	
-0.380737	
-0.380432	
-0.38092	
-0.380798	
-0.380432	
-0.380615	
-0.38031	
-0.380615	
-0.381042	
-0.38092	
-0.379761	
-0.378235	
-0.378723	
-0.378967	
-0.379211	
-0.378967	
-0.378906	
-0.378845	
-0.37854	
-0.378113	
-0.378479	
-0.377502	
-0.377502	
-0.37738	
-0.377563	
-0.377686	
-0.377258	
-0.377563	
-0.377869	
-0.378235	
-0.37915	
-0.377747	
-0.376038	
-0.377075	
-0.378845	
-0.378418	
-0.378662	
-0.379211	
-0.379395	
-0.379517	
-0.378601	
-0.379883	
-0.379028	
-0.37915	
-0.37915	
-0.379028	
-0.379456	
-0.379456	
-0.379272	
-0.379517	
-0.378601	
-0.379761	
-0.379028	
-0.379089	
-0.378601	
-0.378845	
-0.379211	
-0.379089	
-0.379944	
-0.37915	
-0.379761	
-0.379089	
-0.380737	
-0.378906	
-0.378906	
-0.378784	
-0.379761	
-0.379456	
-0.379089	
-0.379333	
-0.378906	
-0.378601	
-0.379578	
-0.378784	
-0.378601	
-0.378784	
-0.379578	
-0.379944	
-0.38031	
-0.381775	
-0.38031	
-0.381836	
-0.380676	
-0.38269	
-0.380737	
-0.381348	
-0.380371	
-0.381714	
-0.381409	
-0.381226	
-0.382202	
-0.382751	
-0.382263	
-0.383606	
-0.382996	
-0.38269	
-0.382446	
-0.382751	
-0.383057	
-0.382874	
-0.383362	
-0.383057	
-0.383484	
-0.381897	
-0.384033	
-0.381958	
-0.383118	
-0.381531	
-0.382874	
-0.383362	
-0.383179	
-0.383728	
-0.383789	
-0.38324	
-0.383789	
-0.382935	
-0.382935	
-0.382874	
-0.382507	
-0.382202	
-0.381714	
-0.382751	
-0.382263	
-0.382813	
-0.381348	
-0.38324	
-0.380798	
-0.381836	
-0.379028	
-0.381348	
-0.380981	
-0.381042	
-0.381348	
-0.381653	
-0.381287	
-0.382019	
-0.381531	
-0.381531	
-0.382385	
-0.382446	
-0.381897	
-0.381104	
-0.38324	
-0.382935	
-0.382935	
-0.38208	
-0.383911	
-0.383728	
-0.383911	
-0.382813	
-0.383911	
-0.383972	
-0.384399	
-0.384216	
-0.385254	
-0.384338	
-0.386047	
-0.38446	
-0.384705	
-0.384705	
-0.38501	
-0.385498	
-0.384766	
-0.386047	
-0.386047	
-0.386047	
-0.385559	
-0.386597	
-0.386475	
-0.386841	
-0.385681	
-0.386414	
-0.385925	
-0.387268	
-0.387146	
-0.387573	
-0.386353	
-0.388123	
-0.38623	
-0.387268	
-0.387024	
-0.386963	
-0.386597	
-0.385254	
-0.386292	
-0.386292	
-0.386414	
-0.386108	
-0.38623	
-0.386292	
-0.386658	
-0.386108	
-0.38678	
-0.38678	
-0.387207	
-0.38678	
-0.387756	
-0.38739	
-0.388916	
-0.386475	
-0.387329	
-0.386536	
-0.386963	
-0.387024	
-0.386414	
-0.387024	
-0.387939	
-0.387329	
-0.386841	
-0.387085	
-0.387024	
-0.386963	
-0.386414	
-0.386963	
-0.386841	
-0.388062	
-0.387512	
-0.38739	
-0.38739	
-0.388672	
-0.386902	
-0.387878	
-0.387329	
-0.387268	
-0.386597	
-0.385559	
-0.386902	
-0.38678	
-0.38562	
-0.385742	
-0.385925	
-0.386108	
-0.38562	
-0.385071	
-0.38562	
-0.385193	
-0.385925	
-0.385498	
-0.386108	
-0.384888	
-0.387146	
-0.384583	
-0.385742	
-0.384888	
-0.385742	
-0.385925	
-0.385193	
-0.386353	
-0.386597	
-0.386353	
-0.386841	
-0.38623	
-0.386597	
-0.386353	
-0.386841	
-0.386475	
-0.386169	
-0.38739	
-0.386536	
-0.387329	
-0.386658	
-0.388733	
-0.387085	
-0.388367	
-0.387573	
-0.389221	
-0.388977	
-0.388611	
-0.389709	
-0.390381	
-0.390137	
-0.39093	
-0.390198	
-0.390625	
-0.390808	
-0.391724	
-0.391479	
-0.391479	
-0.39209	
-0.391968	
-0.392273	
-0.391785	
-0.393372	
-0.391785	
-0.391724	
-0.390747	
-0.391663	
-0.391724	
-0.391296	
-0.391357	
-0.391907	
-0.390747	
-0.391724	
-0.390564	
-0.390747	
-0.390869	
-0.390259	
-0.390625	
-0.390442	
-0.390076	
-0.390381	
-0.390076	
-0.389587	
-0.389954	
-0.388	
-0.387878	
-0.38623	
-0.388123	
-0.387329	
-0.38678	
-0.387207	
-0.387329	
-0.385803	
-0.387207	
-0.38678	
-0.386658	
-0.38623	
-0.386536	
-0.385925	
-0.386719	
-0.387024	
-0.386536	
-0.386963	
-0.387329	
-0.388184	
-0.387451	
-0.387939	
-0.386414	
-0.387573	
-0.388489	
-0.388306	
-0.389099	
-0.389954	
-0.389038	
-0.39032	
-0.388489	
-0.389038	
-0.389648	
-0.389221	
-0.389343	
-0.389771	
-0.389771	
-0.39093	
-0.390015	
-0.390503	
-0.390625	
-0.390686	
-0.390686	
-0.390076	
-0.391418	
-0.391785	
-0.391541	
-0.392395	
-0.392883	
-0.392639	
-0.393433	
-0.391968	
-0.392883	
-0.392456	
-0.393005	
-0.3927	
-0.393188	
-0.393066	
-0.393127	
-0.39209	
-0.393005	
-0.393005	
-0.392517	
-0.392212	
-0.391052	
-0.391296	
-0.391968	
-0.391235	
-0.391479	
-0.392395	
-0.391235	
-0.391479	
-0.390564	
-0.390808	
-0.391113	
-0.39093	
-0.391113	
-0.390869	
-0.391052	
-0.391602	
-0.391357	
-0.392517	
-0.391663	
-0.391052	
-0.390625	
-0.390564	
-0.391357	
-0.392029	
-0.391235	
-0.391296	
-0.391541	
-0.391724	
-0.391479	
-0.390259	
-0.391357	
-0.391968	
-0.391357	
-0.391724	
-0.391357	
-0.391663	
-0.391724	
-0.392029	
-0.392517	
-0.392456	
-0.391602	
-0.390625	
-0.390259	
-0.390625	
-0.390869	
-0.390076	
-0.389709	
-0.389709	
-0.390259	
-0.390076	
-0.388733	
-0.388977	
-0.389954	
-0.389343	
-0.388916	
-0.388062	
-0.388794	
-0.389038	
-0.388855	
-0.389404	
-0.389893	
-0.388367	
-0.389465	
-0.388123	
-0.38916	
-0.389832	
-0.389221	
-0.389648	
-0.389099	
-0.390198	
-0.389648	
-0.388611	
-0.388855	
-0.389832	
-0.389221	
-0.389343	
-0.388184	
-0.389893	
-0.390442	
-0.390808	
-0.390869	
-0.391296	
-0.391602	
-0.391846	
-0.390198	
-0.391235	
-0.391357	
-0.391724	
-0.391663	
-0.391479	
-0.392639	
-0.392334	
-0.391174	
-0.391541	
-0.392578	
-0.392944	
-0.392944	
-0.393066	
-0.392334	
-0.3927	
-0.392822	
-0.393127	
-0.392822	
-0.392456	
-0.393372	
-0.391602	
-0.391846	
-0.391724	
-0.391663	
-0.391663	
-0.391296	
-0.391479	
-0.390869	
-0.389587	
-0.39032	
-0.390015	
-0.390259	
-0.390076	
-0.389648	
-0.389832	
-0.389709	
-0.389404	
-0.389526	
-0.389465	
-0.389526	
-0.389221	
-0.388123	
-0.388672	
-0.387939	
-0.388306	
-0.388123	
-0.388245	
-0.388977	
-0.388367	
-0.38678	
-0.387207	
-0.387695	
-0.387756	
-0.387634	
-0.387878	
-0.387634	
-0.387878	
-0.387817	
-0.387146	
-0.38739	
-0.387817	
-0.388062	
-0.387207	
-0.387695	
-0.388733	
-0.387512	
-0.38739	
-0.387573	
-0.388123	
-0.387451	
-0.385559	
-0.386475	
-0.386963	
-0.386902	
-0.385742	
-0.386536	
-0.386353	
-0.386414	
-0.386414	
-0.386841	
-0.386658	
-0.386414	
-0.386658	
-0.385681	
-0.385742	
-0.386536	
-0.386292	
-0.386597	
-0.386475	
-0.38678	
-0.387085	
-0.385559	
-0.385803	
-0.386169	
-0.386047	
-0.385681	
-0.386536	
-0.385559	
-0.386475	
-0.385803	
-0.385986	
-0.385986	
-0.386353	
-0.386475	
-0.386841	
-0.386902	
-0.387695	
-0.387939	
-0.388	
-0.387878	
-0.388123	
-0.388489	
-0.388123	
-0.388855	
-0.388123	
-0.388062	
-0.387939	
-0.389099	
-0.388733	
-0.389404	
-0.388367	
-0.388855	
-0.388123	
-0.388306	
-0.388367	
-0.387085	
-0.388184	
-0.388489	
-0.388062	
-0.388428	
-0.387939	
-0.388184	
-0.388184	
-0.388428	
-0.388672	
-0.387878	
-0.388123	
-0.386963	
-0.388733	
-0.388184	
-0.38855	
-0.387634	
-0.386963	
-0.386414	
-0.386719	
-0.386169	
-0.384644	
-0.385254	
-0.386047	
-0.385315	
-0.38562	
-0.385071	
-0.384399	
-0.384277	
-0.384033	
-0.384216	
-0.384277	
-0.383057	
-0.382324	
-0.383789	
-0.383728	
-0.384094	
-0.384216	
-0.384155	
-0.384094	
-0.384094	
-0.383911	
-0.383728	
-0.384155	
-0.384399	
-0.385132	
-0.385559	
-0.385193	
-0.384521	
-0.384827	
-0.385559	
-0.385132	
-0.385193	
-0.385925	
-0.384888	
-0.385986	
-0.38739	
-0.387695	
-0.388123	
-0.388184	
-0.388794	
-0.388611	
-0.388794	
-0.389282	
-0.388977	
-0.389343	
-0.390442	
-0.390442	
-0.390503	
-0.390686	
-0.390076	
-0.391174	
-0.390442	
-0.390564	
-0.389221	
-0.389648	
-0.390625	
-0.390381	
-0.390381	
-0.389587	
-0.389587	
-0.390686	
-0.389648	
-0.389526	
-0.388489	
-0.388428	
-0.388184	
-0.388733	
-0.388977	
-0.387817	
-0.388733	
-0.387268	
-0.388611	
-0.387756	
-0.387512	
-0.386597	
-0.387085	
-0.387634	
-0.388367	
-0.386841	
-0.387207	
-0.385986	
-0.38739	
-0.386108	
-0.386047	
-0.38562	
-0.386353	
	
