E:\DOCUMENTS AND SETTINGS\JPOTAS\MEUS DOCUMENTOS\UFRJ\RSCI-BM 12 WK SERIES\070720-RSCI-BM-04\RSCI-BM-04-REMG\070720-RSCI-BM-REMG-0006.ACQ
0.025000 msec/sample
1 channel
Analog input
Volts
CH1	
2000	
-0.392151	
-0.391541	
-0.391663	
-0.391663	
-0.391479	
-0.392151	
-0.392456	
-0.392273	
-0.390686	
-0.389832	
-0.389526	
-0.39093	
-0.390259	
-0.389709	
-0.388672	
-0.389771	
-0.390381	
-0.390381	
-0.390076	
-0.388672	
-0.389099	
-0.388245	
-0.388977	
-0.388794	
-0.388062	
-0.387756	
-0.389038	
-0.388855	
-0.388733	
-0.387024	
-0.386841	
-0.386292	
-0.387939	
-0.387634	
-0.387329	
-0.387329	
-0.387512	
-0.387634	
-0.388245	
-0.388123	
-0.387756	
-0.386902	
-0.38739	
-0.388123	
-0.387451	
-0.387756	
-0.38739	
-0.388916	
-0.389282	
-0.389282	
-0.388062	
-0.388428	
-0.388245	
-0.387573	
-0.388489	
-0.388733	
-0.388184	
-0.387512	
-0.388367	
-0.388977	
-0.388611	
-0.387878	
-0.386719	
-0.386658	
-0.388489	
-0.387573	
-0.387268	
-0.387329	
-0.388367	
-0.387756	
-0.38739	
-0.388672	
-0.387207	
-0.387329	
-0.387085	
-0.388306	
-0.387512	
-0.387695	
-0.387207	
-0.388062	
-0.38855	
-0.388367	
-0.38678	
-0.38678	
-0.387146	
-0.387268	
-0.388	
-0.388245	
-0.388184	
-0.388428	
-0.388672	
-0.388916	
-0.388794	
-0.388306	
-0.388	
-0.38855	
-0.38855	
-0.388428	
-0.388489	
-0.388611	
-0.389709	
-0.389587	
-0.390686	
-0.390015	
-0.390076	
-0.390015	
-0.389709	
-0.391785	
-0.390747	
-0.390869	
-0.39032	
-0.391357	
-0.39209	
-0.391113	
-0.390869	
-0.390259	
-0.39093	
-0.391235	
-0.391785	
-0.391479	
-0.391785	
-0.391541	
-0.391541	
-0.391235	
-0.390564	
-0.390076	
-0.389343	
-0.390015	
-0.390137	
-0.389587	
-0.389587	
-0.389709	
-0.389648	
-0.390198	
-0.389893	
-0.389587	
-0.388977	
-0.388184	
-0.388184	
-0.390015	
-0.388367	
-0.388367	
-0.388672	
-0.388855	
-0.389771	
-0.388489	
-0.387878	
-0.386963	
-0.387878	
-0.388306	
-0.388184	
-0.388	
-0.388733	
-0.388245	
-0.388428	
-0.388489	
-0.387695	
-0.388062	
-0.387268	
-0.388367	
-0.388733	
-0.389099	
-0.388855	
-0.388306	
-0.388855	
-0.390076	
-0.389465	
-0.389771	
-0.388611	
-0.389221	
-0.389465	
-0.391296	
-0.390808	
-0.390869	
-0.390808	
-0.391174	
-0.392395	
-0.391235	
-0.390991	
-0.390686	
-0.391418	
-0.392029	
-0.391724	
-0.391541	
-0.391907	
-0.39209	
-0.392212	
-0.391663	
-0.391113	
-0.391052	
-0.390564	
-0.391174	
-0.392029	
-0.391052	
-0.390808	
-0.39032	
-0.390686	
-0.390747	
-0.389404	
-0.389954	
-0.388306	
-0.389099	
-0.388184	
-0.390564	
-0.390991	
-0.390625	
-0.390625	
-0.390747	
-0.391235	
-0.389709	
-0.39032	
-0.388306	
-0.390259	
-0.391113	
-0.390869	
-0.390564	
-0.391052	
-0.390991	
-0.391418	
-0.390808	
-0.391724	
-0.390686	
-0.390747	
-0.390686	
-0.391418	
-0.390625	
-0.390686	
-0.390442	
-0.390808	
-0.392761	
-0.390686	
-0.391418	
-0.388916	
-0.390381	
-0.389648	
-0.390381	
-0.390442	
-0.390259	
-0.390686	
-0.390686	
-0.390625	
-0.390503	
-0.390503	
-0.390259	
-0.391052	
-0.392395	
-0.39209	
-0.392029	
-0.392151	
-0.392334	
-0.393188	
-0.393188	
-0.393555	
-0.392883	
-0.393555	
-0.394043	
-0.394287	
-0.393921	
-0.394104	
-0.393982	
-0.394104	
-0.395264	
-0.393066	
-0.394104	
-0.392029	
-0.393738	
-0.392639	
-0.393066	
-0.393188	
-0.393066	
-0.3927	
-0.392578	
-0.391541	
-0.392029	
-0.391602	
-0.392029	
-0.392151	
-0.3927	
-0.393188	
-0.393494	
-0.394226	
-0.395264	
-0.396362	
-0.395081	
-0.397583	
-0.397644	
-0.399536	
-0.400208	
-0.401917	
-0.403748	
-0.405457	
-0.406738	
-0.408752	
-0.410095	
-0.412598	
-0.414063	
-0.416687	
-0.418884	
-0.420959	
-0.42334	
-0.425598	
-0.428162	
-0.430908	
-0.433655	
-0.435303	
-0.43689	
-0.439514	
-0.442261	
-0.444763	
-0.446655	
-0.449097	
-0.451172	
-0.453613	
-0.457092	
-0.456909	
-0.459595	
-0.460266	
-0.463501	
-0.465454	
-0.468811	
-0.473267	
-0.476868	
-0.47998	
-0.485046	
-0.487549	
-0.492676	
-0.495544	
-0.498901	
-0.503235	
-0.507446	
-0.510803	
-0.514709	
-0.518311	
-0.5224	
-0.526306	
-0.528931	
-0.530579	
-0.531006	
-0.534363	
-0.535706	
-0.536621	
-0.538208	
-0.538025	
-0.539551	
-0.540039	
-0.539429	
-0.540588	
-0.539124	
-0.539368	
-0.539307	
-0.538635	
-0.537537	
-0.536499	
-0.534546	
-0.533813	
-0.532776	
-0.532104	
-0.529907	
-0.527954	
-0.527222	
-0.525696	
-0.523132	
-0.520569	
-0.517517	
-0.515808	
-0.514221	
-0.511169	
-0.509155	
-0.505127	
-0.502441	
-0.498901	
-0.495605	
-0.491943	
-0.489319	
-0.484192	
-0.480713	
-0.476318	
-0.471985	
-0.467468	
-0.462646	
-0.459473	
-0.455383	
-0.451111	
-0.447144	
-0.442139	
-0.439331	
-0.436523	
-0.431091	
-0.427795	
-0.422119	
-0.417725	
-0.412781	
-0.407227	
-0.402222	
-0.396851	
-0.392029	
-0.387268	
-0.383484	
-0.377808	
-0.374084	
-0.369019	
-0.366272	
-0.363037	
-0.359802	
-0.357727	
-0.356445	
-0.354065	
-0.352966	
-0.350281	
-0.351318	
-0.351135	
-0.351624	
-0.352112	
-0.353943	
-0.355408	
-0.357788	
-0.359497	
-0.362061	
-0.365356	
-0.36731	
-0.370483	
-0.370605	
-0.374939	
-0.377625	
-0.380249	
-0.382874	
-0.38385	
-0.388367	
-0.391724	
-0.39325	
-0.396179	
-0.396179	
-0.399658	
-0.402283	
-0.403748	
-0.405151	
-0.406982	
-0.40863	
-0.410706	
-0.411987	
-0.415405	
-0.417603	
-0.421875	
-0.425476	
-0.430115	
-0.433777	
-0.438171	
-0.441833	
-0.445984	
-0.450806	
-0.453186	
-0.456787	
-0.459229	
-0.462952	
-0.466797	
-0.46991	
-0.4729	
-0.475037	
-0.478699	
-0.482056	
-0.483337	
-0.486206	
-0.486389	
-0.488708	
-0.490906	
-0.49231	
-0.493774	
-0.494995	
-0.496033	
-0.497803	
-0.497559	
-0.499695	
-0.499084	
-0.498108	
-0.497742	
-0.496582	
-0.495483	
-0.493896	
-0.491211	
-0.490723	
-0.489441	
-0.486511	
-0.485046	
-0.481262	
-0.479858	
-0.477295	
-0.474487	
-0.471741	
-0.468384	
-0.466125	
-0.463806	
-0.460144	
-0.457642	
-0.453186	
-0.450989	
-0.447205	
-0.44397	
-0.440369	
-0.437134	
-0.432434	
-0.428955	
-0.425659	
-0.420776	
-0.416687	
-0.410645	
-0.407471	
-0.402954	
-0.39856	
-0.393616	
-0.389709	
-0.384583	
-0.381226	
-0.37561	
-0.37146	
-0.36676	
-0.360779	
-0.358154	
-0.354248	
-0.350708	
-0.348022	
-0.344177	
-0.341553	
-0.339661	
-0.336365	
-0.335205	
-0.33197	
-0.332153	
-0.33136	
-0.331604	
-0.331909	
-0.332764	
-0.333557	
-0.334778	
-0.333801	
-0.336182	
-0.336304	
-0.337952	
-0.338806	
-0.340942	
-0.341431	
-0.343994	
-0.34375	
-0.346558	
-0.347778	
-0.349426	
-0.350281	
-0.350342	
-0.352112	
-0.35376	
-0.354431	
-0.355408	
-0.355286	
-0.355957	
-0.357056	
-0.356567	
-0.357239	
-0.356079	
-0.356628	
-0.355957	
-0.356995	
-0.357178	
-0.357117	
-0.357422	
-0.358948	
-0.358154	
-0.358459	
-0.357361	
-0.358337	
-0.358948	
-0.359192	
-0.359741	
-0.359802	
-0.35968	
-0.361267	
-0.360291	
-0.36084	
-0.360596	
-0.361145	
-0.361511	
-0.362183	
-0.362244	
-0.363586	
-0.363159	
-0.364014	
-0.362854	
-0.364441	
-0.364563	
-0.365112	
-0.365417	
-0.366333	
-0.36615	
-0.366882	
-0.365723	
-0.367737	
-0.366455	
-0.367493	
-0.368042	
-0.367798	
-0.368774	
-0.368225	
-0.368835	
-0.369873	
-0.369507	
-0.370483	
-0.371826	
-0.372498	
-0.373413	
-0.372009	
-0.374268	
-0.373901	
-0.37439	
-0.375305	
-0.375122	
-0.375793	
-0.377075	
-0.376343	
-0.377136	
-0.375671	
-0.37738	
-0.377686	
-0.378296	
-0.379028	
-0.378235	
-0.378784	
-0.3797	
-0.379333	
-0.379333	
-0.37915	
-0.379761	
-0.380005	
-0.381226	
-0.381287	
-0.381287	
-0.380798	
-0.382629	
-0.382751	
-0.384033	
-0.384277	
-0.384155	
-0.385132	
-0.386292	
-0.386353	
-0.387451	
-0.387207	
-0.388184	
-0.389526	
-0.389343	
-0.389771	
-0.389099	
-0.390686	
-0.391357	
-0.391052	
-0.392273	
-0.392517	
-0.392639	
-0.393433	
-0.393005	
-0.39325	
-0.393616	
-0.393188	
-0.393127	
-0.392761	
-0.394592	
-0.393982	
-0.394043	
-0.394531	
-0.393921	
-0.394287	
-0.39502	
-0.394043	
-0.393921	
-0.393494	
-0.393738	
-0.393127	
-0.392883	
-0.393127	
-0.392456	
-0.391296	
-0.392029	
-0.391296	
-0.391113	
-0.391663	
-0.39093	
-0.390625	
-0.389404	
-0.390198	
-0.39032	
-0.389282	
-0.388306	
-0.386597	
-0.387878	
-0.387939	
-0.387085	
-0.386414	
-0.386047	
-0.385864	
-0.386047	
-0.385071	
-0.384705	
-0.383423	
-0.384888	
-0.385193	
-0.384216	
-0.38562	
-0.384888	
-0.385254	
-0.385376	
-0.385376	
-0.385864	
-0.386597	
-0.386169	
-0.386475	
-0.386902	
-0.388428	
-0.387939	
-0.388367	
-0.388855	
-0.389709	
-0.389099	
-0.389099	
-0.388977	
-0.38916	
-0.390137	
-0.389221	
-0.389221	
-0.388977	
-0.388489	
-0.390076	
-0.389038	
-0.389404	
-0.388672	
-0.388794	
-0.389221	
-0.38855	
-0.389465	
-0.388672	
-0.388062	
-0.387817	
-0.388245	
-0.388245	
-0.388	
-0.387878	
-0.388184	
-0.388977	
-0.38739	
-0.387451	
-0.387146	
-0.387329	
-0.388489	
-0.38739	
-0.387024	
-0.385864	
-0.386902	
-0.387024	
-0.386597	
-0.387878	
-0.386963	
-0.386902	
-0.386597	
-0.386597	
-0.386902	
-0.386047	
-0.38623	
-0.385559	
-0.386169	
-0.384888	
-0.385193	
-0.384521	
-0.385742	
-0.386597	
-0.385986	
-0.385437	
-0.385803	
-0.386169	
-0.386353	
-0.386353	
-0.386902	
-0.386108	
-0.385864	
-0.385925	
-0.385986	
-0.385925	
-0.385193	
-0.386597	
-0.386353	
-0.386597	
-0.384888	
-0.385376	
-0.384644	
-0.385742	
-0.385742	
-0.384277	
-0.383911	
-0.383179	
-0.383789	
-0.384033	
-0.383118	
-0.384094	
-0.383118	
-0.383789	
-0.383362	
-0.383362	
-0.383667	
-0.382385	
-0.384583	
-0.383301	
-0.383423	
-0.382874	
-0.383057	
-0.38324	
-0.383972	
-0.384277	
-0.384033	
-0.383789	
-0.383972	
-0.384338	
-0.385315	
-0.384644	
-0.384399	
-0.383301	
-0.384216	
-0.384827	
-0.384033	
-0.383911	
-0.383301	
-0.38501	
-0.385315	
-0.385437	
-0.384583	
-0.385498	
-0.385742	
-0.386292	
-0.386353	
-0.38678	
-0.386536	
-0.387695	
-0.387573	
-0.388977	
-0.387878	
-0.388367	
-0.387695	
-0.389038	
-0.390808	
-0.389771	
-0.389893	
-0.389404	
-0.391357	
-0.390808	
-0.390747	
-0.391602	
-0.391174	
-0.391113	
-0.39093	
-0.391907	
-0.39209	
-0.391541	
-0.390869	
-0.392029	
-0.392212	
-0.391541	
-0.391174	
-0.390747	
-0.391296	
-0.391968	
-0.391724	
-0.390808	
-0.390686	
-0.391052	
-0.39093	
-0.391052	
-0.390808	
-0.39032	
-0.390137	
-0.389282	
-0.391541	
-0.390198	
-0.390259	
-0.388184	
-0.391113	
-0.39093	
-0.389832	
-0.389099	
-0.389099	
-0.389832	
-0.389954	
-0.39032	
-0.390198	
-0.389404	
-0.390808	
-0.390137	
-0.390015	
-0.390198	
-0.389221	
-0.388977	
-0.389221	
-0.390686	
-0.38916	
-0.388916	
-0.387817	
-0.389526	
-0.388367	
-0.38855	
-0.387695	
-0.387939	
-0.388428	
-0.388367	
-0.388062	
-0.388184	
-0.388123	
-0.388062	
-0.388855	
-0.388672	
-0.389099	
-0.388062	
-0.388794	
-0.388855	
-0.390015	
-0.389282	
-0.389465	
-0.388855	
-0.390991	
-0.390564	
-0.39032	
-0.390442	
-0.389954	
-0.390991	
-0.391174	
-0.391235	
-0.390686	
-0.390381	
-0.389343	
-0.391357	
-0.390198	
-0.390808	
-0.389648	
-0.390076	
-0.389465	
-0.389771	
-0.388916	
-0.388428	
-0.387817	
-0.389343	
-0.38855	
-0.389038	
-0.388062	
-0.388855	
-0.389404	
-0.389465	
-0.390808	
-0.390198	
-0.389709	
-0.389343	
-0.391052	
-0.390137	
-0.390015	
-0.389465	
-0.39032	
-0.390137	
-0.390747	
-0.390015	
-0.389954	
-0.389832	
-0.390991	
-0.390259	
-0.390076	
-0.390076	
-0.390564	
-0.390198	
-0.390381	
-0.391113	
-0.390381	
-0.389832	
-0.390015	
-0.391296	
-0.390808	
-0.390747	
-0.390747	
-0.390869	
-0.390747	
-0.390442	
-0.390259	
-0.389648	
-0.389404	
-0.390442	
-0.389832	
-0.389648	
-0.388611	
-0.389099	
-0.389526	
-0.389465	
-0.390137	
-0.38916	
-0.389038	
-0.388428	
-0.389648	
-0.389587	
-0.389099	
-0.389343	
-0.389465	
-0.39032	
-0.389648	
-0.389893	
-0.389954	
-0.389404	
-0.391174	
-0.390381	
-0.389221	
-0.38916	
-0.389343	
-0.390198	
-0.390503	
-0.390808	
-0.391174	
-0.390808	
-0.391235	
-0.391113	
-0.390869	
-0.390808	
-0.391418	
-0.390686	
-0.390869	
-0.390564	
-0.392212	
-0.39209	
-0.391602	
-0.391541	
-0.3927	
-0.392334	
-0.391418	
-0.391113	
-0.392761	
-0.392639	
-0.392578	
-0.392273	
-0.392578	
-0.392761	
-0.393311	
-0.3927	
-0.392334	
-0.392944	
-0.392578	
-0.3927	
-0.3927	
-0.392822	
-0.391724	
-0.390869	
-0.391357	
-0.39209	
-0.391174	
-0.390381	
-0.390076	
-0.390747	
-0.391174	
-0.391541	
-0.390808	
-0.391296	
-0.391418	
-0.391663	
-0.391052	
-0.39093	
-0.391724	
-0.391113	
-0.391052	
-0.392212	
-0.392578	
-0.392029	
-0.391235	
-0.39209	
-0.3927	
-0.392273	
-0.39209	
-0.390991	
-0.392151	
-0.392029	
-0.391968	
-0.391785	
-0.392334	
-0.392273	
-0.392212	
-0.392029	
-0.391663	
-0.392273	
-0.391968	
-0.391357	
-0.39209	
-0.391724	
-0.391174	
-0.389771	
-0.390747	
-0.391174	
-0.390442	
-0.389832	
-0.390137	
-0.390198	
-0.390564	
-0.390869	
-0.39093	
-0.390564	
-0.390991	
-0.390564	
-0.390198	
-0.390076	
-0.390381	
-0.389282	
-0.388916	
-0.389038	
-0.389038	
-0.388245	
-0.387512	
-0.388855	
-0.388794	
-0.388184	
-0.38739	
-0.387573	
-0.388062	
-0.388367	
-0.388367	
-0.388611	
-0.388123	
-0.388184	
-0.387573	
-0.388733	
-0.388916	
-0.389954	
-0.389526	
-0.389893	
-0.389587	
-0.390015	
-0.390076	
-0.389221	
-0.390747	
-0.390503	
-0.390076	
-0.390259	
-0.390198	
-0.390808	
-0.391113	
-0.390381	
-0.391785	
-0.391174	
-0.391113	
-0.391296	
-0.391907	
-0.391174	
-0.392151	
-0.390991	
-0.391663	
-0.392334	
-0.392029	
-0.392395	
-0.391052	
-0.39209	
-0.391663	
-0.391418	
-0.391907	
-0.392151	
-0.392273	
-0.392212	
-0.392212	
-0.3927	
-0.391663	
-0.392639	
-0.392761	
-0.392822	
-0.391785	
-0.391113	
-0.391235	
-0.391296	
-0.391418	
-0.391052	
-0.390808	
-0.389221	
-0.389893	
-0.388794	
-0.389954	
-0.388977	
-0.388977	
-0.389343	
-0.389099	
-0.389221	
-0.389954	
-0.388916	
-0.389404	
-0.390137	
-0.389771	
-0.389465	
-0.389099	
-0.389282	
-0.390137	
-0.390381	
-0.390137	
-0.390259	
-0.390015	
-0.390503	
-0.390564	
-0.391174	
-0.390747	
-0.390198	
-0.389221	
-0.390625	
-0.391541	
-0.391418	
-0.390442	
-0.389709	
-0.390808	
-0.391174	
-0.391357	
-0.390259	
-0.390747	
-0.390991	
-0.390747	
-0.391296	
-0.390076	
-0.390259	
-0.390869	
-0.390442	
-0.390991	
-0.389954	
-0.390259	
-0.38916	
-0.390137	
-0.390137	
-0.390503	
-0.389893	
-0.388977	
-0.389587	
-0.390808	
-0.390076	
-0.389526	
-0.389893	
-0.390503	
-0.390442	
-0.39032	
-0.390381	
-0.39032	
-0.390198	
-0.390137	
-0.39093	
-0.390198	
-0.390808	
-0.38916	
-0.390076	
-0.390198	
-0.390564	
-0.390015	
-0.388794	
-0.388855	
-0.389771	
-0.389404	
-0.387939	
-0.388489	
-0.388611	
-0.388367	
-0.388062	
-0.387695	
-0.387756	
-0.387634	
-0.387695	
-0.388489	
-0.387268	
-0.388	
-0.387634	
-0.388	
-0.388489	
-0.388611	
-0.388367	
-0.387817	
-0.388428	
-0.389221	
-0.389038	
-0.388184	
-0.390503	
-0.390198	
-0.390625	
-0.389771	
-0.390686	
-0.39032	
-0.390015	
-0.390076	
-0.389832	
-0.389282	
-0.389587	
-0.388489	
-0.388977	
-0.389099	
-0.389282	
-0.388428	
-0.387146	
-0.388367	
-0.387756	
-0.388306	
-0.387451	
-0.388184	
-0.386353	
-0.387451	
-0.386963	
-0.386841	
-0.387268	
-0.387573	
-0.386841	
-0.387207	
-0.386536	
-0.387329	
-0.386902	
-0.387024	
-0.387756	
-0.387207	
-0.386597	
-0.386353	
-0.387146	
-0.387207	
-0.387817	
-0.387207	
-0.388611	
-0.388245	
-0.388489	
-0.387817	
-0.388977	
-0.38855	
-0.388855	
-0.388367	
-0.388733	
-0.389221	
-0.387756	
-0.388977	
-0.388062	
-0.390015	
-0.389221	
-0.38916	
-0.389404	
-0.389648	
-0.389404	
-0.390137	
-0.389282	
-0.390076	
-0.389465	
-0.389832	
-0.389771	
-0.39032	
-0.388672	
-0.389343	
-0.389038	
-0.389282	
-0.389404	
-0.387817	
-0.388489	
-0.388184	
-0.388611	
-0.387024	
-0.387695	
-0.38739	
-0.387756	
-0.387695	
-0.387085	
-0.387329	
-0.387146	
-0.386841	
-0.385742	
-0.386475	
-0.386963	
-0.386169	
-0.385742	
-0.38623	
-0.385925	
-0.386169	
-0.385498	
-0.385986	
-0.385437	
-0.386169	
-0.385071	
-0.38562	
-0.385559	
-0.385864	
-0.386597	
-0.386108	
-0.386963	
-0.385681	
-0.386169	
-0.385376	
-0.386475	
-0.387512	
-0.386841	
-0.386719	
-0.386597	
-0.386658	
-0.386963	
-0.386292	
-0.386536	
-0.386475	
-0.386841	
-0.385925	
-0.386169	
-0.386047	
-0.386536	
-0.387085	
-0.38562	
-0.386536	
-0.386047	
-0.385742	
-0.385437	
-0.38562	
-0.386658	
-0.385742	
-0.385254	
-0.384521	
-0.385742	
-0.385864	
-0.386536	
-0.385925	
-0.385498	
-0.38501	
-0.384766	
-0.38562	
-0.385559	
-0.385925	
-0.386292	
-0.386047	
-0.386475	
-0.385803	
-0.386047	
-0.385986	
-0.386475	
-0.387573	
-0.386719	
-0.386902	
-0.386475	
-0.387634	
-0.386536	
-0.387451	
-0.386353	
-0.386841	
-0.386597	
-0.386047	
-0.386841	
-0.387268	
-0.387817	
-0.388062	
-0.388245	
-0.389404	
-0.389221	
-0.388916	
-0.388794	
-0.389099	
-0.389343	
-0.38916	
-0.388977	
-0.389404	
-0.389526	
-0.389404	
-0.389832	
-0.389099	
-0.389587	
-0.390137	
-0.389099	
-0.390015	
-0.388855	
-0.389282	
-0.387878	
-0.388489	
-0.388611	
-0.387939	
-0.387695	
-0.38739	
-0.387573	
-0.387756	
-0.387329	
-0.387512	
-0.387573	
-0.388184	
-0.387024	
-0.38739	
-0.386292	
-0.386536	
-0.385864	
-0.386292	
-0.386536	
-0.385986	
-0.386414	
-0.385315	
-0.386414	
-0.386108	
-0.385681	
-0.386292	
-0.385498	
-0.386292	
-0.384644	
-0.385864	
-0.384766	
-0.385559	
-0.385803	
-0.385498	
-0.386475	
-0.385986	
-0.385925	
-0.385437	
-0.386108	
-0.386963	
-0.386536	
-0.386658	
-0.386658	
-0.387085	
-0.388428	
-0.38739	
-0.388611	
-0.388062	
-0.388245	
-0.387939	
-0.38916	
-0.387512	
-0.388611	
-0.388428	
-0.38916	
-0.389648	
-0.389038	
-0.389893	
-0.388916	
-0.389343	
-0.389404	
-0.388916	
-0.388977	
-0.38855	
-0.389526	
-0.388855	
-0.388733	
-0.388489	
-0.388428	
-0.388489	
-0.388367	
-0.389099	
-0.38739	
-0.388062	
-0.387329	
-0.388062	
-0.388245	
-0.388	
-0.388184	
-0.388123	
-0.387939	
-0.387634	
-0.387878	
-0.38739	
-0.387695	
-0.388672	
-0.388	
-0.388367	
-0.388062	
-0.388611	
-0.387634	
-0.388	
-0.388794	
-0.387329	
-0.388428	
-0.388428	
-0.388367	
-0.388367	
-0.388428	
-0.388489	
-0.388306	
-0.388245	
-0.38739	
-0.38855	
-0.388428	
-0.388245	
-0.387207	
-0.387817	
-0.388611	
-0.388123	
-0.387817	
-0.387817	
-0.387451	
-0.388245	
-0.386963	
-0.387695	
-0.387939	
-0.388977	
-0.388306	
-0.388367	
-0.388062	
-0.388794	
-0.388123	
-0.387817	
-0.389526	
-0.388489	
-0.389099	
-0.388916	
-0.38916	
-0.390015	
-0.390076	
-0.389709	
-0.39032	
-0.389893	
-0.390137	
-0.388794	
-0.389709	
-0.389465	
-0.390198	
-0.389465	
-0.389465	
-0.389709	
-0.389099	
-0.388367	
-0.387573	
-0.389404	
-0.388611	
-0.387939	
-0.387268	
-0.387329	
-0.387756	
-0.387878	
-0.387024	
-0.387695	
-0.387329	
-0.387756	
-0.388306	
-0.388	
-0.388428	
-0.388489	
-0.388855	
-0.389954	
-0.389648	
-0.388855	
-0.388916	
-0.38916	
-0.389893	
-0.388245	
-0.389465	
-0.389954	
-0.39032	
-0.390137	
-0.389648	
-0.389099	
-0.390076	
-0.390015	
-0.389954	
-0.390747	
-0.390259	
-0.390198	
-0.390381	
-0.390076	
-0.39093	
-0.390808	
-0.390137	
-0.390625	
-0.390137	
-0.39032	
-0.389893	
-0.389771	
-0.389465	
-0.390198	
-0.389221	
-0.389587	
-0.389221	
-0.388245	
-0.387939	
-0.387634	
-0.38916	
-0.387634	
-0.388672	
-0.388611	
-0.389099	
-0.389893	
-0.388062	
-0.387939	
-0.388672	
-0.388306	
-0.388428	
-0.389221	
-0.388794	
-0.388733	
-0.388672	
-0.389099	
-0.389282	
-0.389038	
-0.388428	
-0.388672	
-0.389038	
-0.389343	
-0.387939	
-0.389404	
-0.389648	
-0.390076	
-0.390076	
-0.390137	
-0.390808	
-0.390015	
-0.390442	
-0.389587	
-0.391296	
-0.390625	
-0.391235	
-0.391479	
-0.391479	
-0.392029	
-0.391479	
-0.391479	
-0.391663	
-0.391724	
-0.392273	
-0.392334	
-0.391968	
-0.392395	
-0.391479	
-0.3927	
-0.392517	
-0.393555	
-0.392395	
-0.39325	
-0.391724	
-0.392334	
-0.391602	
-0.392212	
-0.392883	
-0.392456	
-0.39209	
-0.390747	
-0.391235	
-0.390625	
-0.391113	
-0.390869	
-0.391907	
-0.391479	
-0.391846	
-0.390686	
-0.391541	
-0.391479	
-0.39209	
-0.391907	
-0.392151	
-0.391479	
-0.391968	
-0.391724	
-0.391846	
-0.3927	
-0.391785	
-0.393372	
-0.392151	
-0.393005	
-0.39209	
-0.392761	
-0.390991	
-0.392395	
-0.390869	
-0.391907	
-0.391968	
-0.39209	
-0.391724	
-0.391663	
-0.39209	
-0.391663	
-0.391479	
-0.391479	
-0.391724	
-0.391296	
-0.391541	
-0.390198	
-0.39093	
-0.390381	
-0.390869	
-0.390442	
-0.391235	
-0.39032	
-0.39093	
-0.390015	
-0.390381	
-0.390869	
-0.390625	
-0.391357	
-0.389771	
-0.390747	
-0.389038	
-0.388733	
-0.387817	
-0.389526	
-0.388367	
-0.388611	
-0.387512	
-0.388428	
-0.387878	
-0.388123	
-0.387573	
-0.388	
-0.388062	
-0.387878	
-0.387329	
-0.387634	
-0.388855	
-0.387878	
-0.388	
-0.386841	
-0.389038	
-0.388916	
-0.389404	
-0.389038	
-0.390137	
-0.388611	
-0.389893	
-0.389282	
-0.389282	
-0.389954	
-0.389587	
-0.389832	
-0.389526	
-0.389587	
-0.388672	
-0.390137	
-0.390076	
-0.390869	
-0.389709	
-0.390381	
-0.390381	
-0.390686	
-0.389893	
-0.390808	
-0.390503	
-0.391418	
-0.390564	
-0.391602	
-0.391235	
-0.391052	
-0.391418	
-0.389648	
-0.391663	
-0.391235	
-0.391174	
-0.390686	
-0.391602	
-0.390808	
-0.391724	
-0.390015	
-0.39093	
-0.391235	
-0.391052	
-0.390808	
-0.389648	
-0.390076	
-0.389404	
-0.38916	
-0.389404	
-0.388855	
-0.388489	
-0.388123	
-0.387817	
-0.388489	
-0.388306	
-0.388428	
-0.387573	
-0.388306	
-0.387268	
-0.388794	
-0.387573	
-0.387939	
-0.388367	
-0.388062	
-0.388977	
-0.388062	
-0.388123	
-0.388489	
-0.388916	
-0.388733	
-0.388611	
-0.388855	
-0.389038	
-0.38916	
-0.389038	
-0.388977	
-0.388977	
-0.388794	
-0.388977	
-0.388855	
-0.389771	
-0.388794	
-0.389099	
-0.388977	
-0.389954	
-0.390015	
-0.389282	
-0.387878	
-0.388855	
-0.388855	
-0.389587	
-0.389404	
-0.388794	
-0.388672	
-0.387878	
-0.388855	
-0.389404	
-0.389465	
-0.388611	
-0.388733	
-0.388367	
-0.388672	
-0.387939	
-0.388977	
-0.388672	
-0.389771	
-0.38916	
-0.38916	
-0.38855	
-0.389587	
-0.389282	
-0.388428	
-0.389709	
-0.389221	
-0.389099	
-0.388367	
-0.388977	
-0.389465	
-0.388733	
-0.389038	
-0.38916	
-0.388855	
-0.388672	
-0.387512	
-0.388367	
-0.388306	
-0.388733	
-0.388	
-0.388184	
-0.388184	
-0.387451	
-0.385986	
-0.386169	
-0.387329	
-0.38678	
-0.386536	
-0.386536	
-0.387146	
-0.387146	
-0.387329	
-0.386902	
-0.387878	
-0.387268	
-0.388306	
-0.387634	
-0.387817	
-0.388306	
-0.388855	
-0.389099	
-0.390198	
-0.390076	
-0.389893	
-0.389587	
-0.38916	
-0.389587	
-0.388611	
-0.389038	
-0.388489	
-0.388794	
-0.38855	
-0.388062	
-0.387085	
-0.388306	
-0.387634	
-0.387207	
-0.387939	
-0.387817	
-0.386841	
-0.386108	
-0.387085	
-0.387634	
-0.386902	
-0.386658	
-0.386719	
-0.38678	
-0.387085	
-0.38562	
-0.386414	
-0.386353	
-0.387573	
-0.386719	
-0.386292	
-0.385803	
-0.386902	
-0.386108	
-0.385254	
-0.386963	
-0.386047	
-0.386841	
-0.386902	
-0.386902	
-0.388184	
-0.388	
-0.388245	
-0.388733	
-0.388367	
-0.388428	
-0.388123	
-0.388794	
-0.388733	
-0.388	
-0.388794	
-0.38916	
-0.388611	
-0.388794	
-0.387878	
-0.387695	
-0.389282	
-0.38916	
-0.389282	
-0.389343	
	
