E:\DOCUMENTS AND SETTINGS\JPOTAS\MEUS DOCUMENTOS\UFRJ\RSCI-BM 12 WK SERIES\070720-RSCI-BM-04\RSCI-BM-04-REMG\070720-RSCI-BM-REMG-0013.ACQ
0.025000 msec/sample
1 channel
Analog input
Volts
CH1	
2000	
-0.38916	
-0.389526	
-0.389587	
-0.390808	
-0.390747	
-0.390137	
-0.39093	
-0.390991	
-0.391479	
-0.389832	
-0.390076	
-0.389709	
-0.389954	
-0.390747	
-0.39032	
-0.390381	
-0.390625	
-0.390503	
-0.39032	
-0.389893	
-0.389099	
-0.389893	
-0.389526	
-0.39032	
-0.391174	
-0.390808	
-0.390503	
-0.390747	
-0.391113	
-0.391541	
-0.39093	
-0.390747	
-0.391174	
-0.391235	
-0.39093	
-0.390747	
-0.391052	
-0.391174	
-0.392212	
-0.391357	
-0.391846	
-0.39032	
-0.390442	
-0.389648	
-0.390137	
-0.390381	
-0.389893	
-0.389526	
-0.389099	
-0.389954	
-0.390076	
-0.388916	
-0.387451	
-0.387634	
-0.388733	
-0.388977	
-0.388672	
-0.388062	
-0.387878	
-0.389038	
-0.388489	
-0.388794	
-0.387146	
-0.387146	
-0.387268	
-0.387329	
-0.388245	
-0.387024	
-0.386963	
-0.387268	
-0.388794	
-0.388123	
-0.386292	
-0.38446	
-0.385559	
-0.385559	
-0.386047	
-0.386169	
-0.385681	
-0.385681	
-0.385925	
-0.386169	
-0.386658	
-0.385681	
-0.385986	
-0.385986	
-0.386169	
-0.38678	
-0.38623	
-0.386353	
-0.38678	
-0.388245	
-0.387268	
-0.387695	
-0.386414	
-0.386963	
-0.386719	
-0.388184	
-0.388611	
-0.387634	
-0.387695	
-0.388	
-0.388733	
-0.388916	
-0.38739	
-0.38678	
-0.385925	
-0.387268	
-0.387512	
-0.387512	
-0.387207	
-0.387329	
-0.388123	
-0.388245	
-0.388428	
-0.387024	
-0.388	
-0.387207	
-0.387573	
-0.388062	
-0.388306	
-0.387939	
-0.387695	
-0.388672	
-0.388733	
-0.387451	
-0.385925	
-0.386414	
-0.387268	
-0.387573	
-0.388855	
-0.387878	
-0.387756	
-0.387329	
-0.388672	
-0.38855	
-0.387817	
-0.387207	
-0.387451	
-0.387573	
-0.388184	
-0.387756	
-0.387268	
-0.387634	
-0.388428	
-0.387695	
-0.387695	
-0.386475	
-0.386353	
-0.384949	
-0.386169	
-0.386353	
-0.386108	
-0.385681	
-0.385193	
-0.386047	
-0.385437	
-0.384521	
-0.383118	
-0.383667	
-0.384827	
-0.384888	
-0.385986	
-0.385864	
-0.386414	
-0.385742	
-0.38678	
-0.387268	
-0.386353	
-0.38623	
-0.385803	
-0.387329	
-0.387573	
-0.387695	
-0.388611	
-0.388733	
-0.390625	
-0.389709	
-0.389221	
-0.387695	
-0.388672	
-0.389648	
-0.389404	
-0.390259	
-0.389587	
-0.389648	
-0.389404	
-0.390259	
-0.389832	
-0.389099	
-0.389221	
-0.389771	
-0.390137	
-0.390381	
-0.390381	
-0.391113	
-0.390625	
-0.390747	
-0.391724	
-0.391907	
-0.39093	
-0.391296	
-0.390808	
-0.392029	
-0.392761	
-0.392151	
-0.392273	
-0.393005	
-0.393372	
-0.393555	
-0.392395	
-0.392456	
-0.391724	
-0.393372	
-0.393433	
-0.393066	
-0.392456	
-0.3927	
-0.393555	
-0.393311	
-0.393005	
-0.391541	
-0.391357	
-0.391235	
-0.392029	
-0.392273	
-0.392029	
-0.391785	
-0.392273	
-0.39325	
-0.393127	
-0.392334	
-0.391785	
-0.391357	
-0.392151	
-0.392273	
-0.393433	
-0.392883	
-0.393066	
-0.392273	
-0.393311	
-0.394287	
-0.392639	
-0.392883	
-0.392151	
-0.39386	
-0.393921	
-0.394043	
-0.39447	
-0.39386	
-0.394165	
-0.394836	
-0.393982	
-0.391418	
-0.391357	
-0.391235	
-0.392334	
-0.392334	
-0.391541	
-0.391602	
-0.391479	
-0.391235	
-0.392883	
-0.391052	
-0.391052	
-0.38916	
-0.391174	
-0.391846	
-0.391724	
-0.391235	
-0.391296	
-0.391296	
-0.392151	
-0.392822	
-0.391174	
-0.392273	
-0.392029	
-0.392944	
-0.393799	
-0.394348	
-0.394836	
-0.395203	
-0.39679	
-0.399292	
-0.398193	
-0.399475	
-0.39801	
-0.401855	
-0.403564	
-0.405334	
-0.406372	
-0.40741	
-0.409607	
-0.411865	
-0.413025	
-0.413391	
-0.415344	
-0.41687	
-0.419373	
-0.42157	
-0.422546	
-0.423828	
-0.42511	
-0.426819	
-0.427734	
-0.427673	
-0.429077	
-0.429688	
-0.431335	
-0.433044	
-0.43335	
-0.433838	
-0.434814	
-0.435608	
-0.436584	
-0.436768	
-0.437256	
-0.438416	
-0.439819	
-0.441406	
-0.442871	
-0.443665	
-0.445862	
-0.447266	
-0.450073	
-0.450623	
-0.451965	
-0.452576	
-0.454895	
-0.45752	
-0.458923	
-0.459595	
-0.460205	
-0.461365	
-0.462585	
-0.462646	
-0.461548	
-0.462097	
-0.462769	
-0.463501	
-0.464722	
-0.463867	
-0.463806	
-0.463318	
-0.46405	
-0.465393	
-0.46344	
-0.462402	
-0.460938	
-0.460938	
-0.461731	
-0.46106	
-0.460632	
-0.459839	
-0.460449	
-0.459595	
-0.457275	
-0.454834	
-0.454041	
-0.452881	
-0.45166	
-0.450256	
-0.448547	
-0.447327	
-0.444946	
-0.444092	
-0.442444	
-0.440857	
-0.438538	
-0.436279	
-0.433594	
-0.432556	
-0.43103	
-0.428589	
-0.426147	
-0.424805	
-0.423523	
-0.421082	
-0.417847	
-0.415771	
-0.414734	
-0.414185	
-0.413635	
-0.41095	
-0.409546	
-0.407959	
-0.407043	
-0.40564	
-0.404114	
-0.402161	
-0.398804	
-0.397522	
-0.396729	
-0.39447	
-0.39209	
-0.390625	
-0.389954	
-0.388123	
-0.385925	
-0.384155	
-0.382629	
-0.381226	
-0.379761	
-0.379395	
-0.377747	
-0.377014	
-0.37616	
-0.37616	
-0.376038	
-0.375549	
-0.374817	
-0.374146	
-0.375244	
-0.375854	
-0.376038	
-0.376465	
-0.376404	
-0.377502	
-0.378235	
-0.377258	
-0.376587	
-0.376587	
-0.376587	
-0.377258	
-0.377502	
-0.376587	
-0.37616	
-0.375977	
-0.375916	
-0.37561	
-0.375854	
-0.374878	
-0.375732	
-0.374878	
-0.376831	
-0.375916	
-0.376709	
-0.377136	
-0.377808	
-0.378967	
-0.378601	
-0.378418	
-0.377136	
-0.378967	
-0.379822	
-0.379639	
-0.379639	
-0.380005	
-0.380981	
-0.382263	
-0.380798	
-0.379761	
-0.38031	
-0.381531	
-0.382141	
-0.382813	
-0.381958	
-0.382141	
-0.382019	
-0.383362	
-0.382996	
-0.382935	
-0.382263	
-0.38269	
-0.382141	
-0.38385	
-0.38324	
-0.382996	
-0.382996	
-0.38385	
-0.384277	
-0.384949	
-0.384399	
-0.384216	
-0.384338	
-0.385498	
-0.385986	
-0.385803	
-0.386169	
-0.387634	
-0.387024	
-0.387207	
-0.385925	
-0.386902	
-0.387512	
-0.388916	
-0.389526	
-0.388916	
-0.389404	
-0.389282	
-0.390869	
-0.389465	
-0.388733	
-0.387756	
-0.388794	
-0.389038	
-0.389282	
-0.387878	
-0.387573	
-0.387451	
-0.388245	
-0.387268	
-0.386536	
-0.385437	
-0.385559	
-0.384033	
-0.384216	
-0.383606	
-0.383057	
-0.38269	
-0.382507	
-0.382141	
-0.381775	
-0.38031	
-0.380676	
-0.38092	
-0.38147	
-0.381897	
-0.381592	
-0.381592	
-0.382141	
-0.383118	
-0.382019	
-0.381714	
-0.380798	
-0.382446	
-0.382568	
-0.383667	
-0.382751	
-0.382385	
-0.382568	
-0.383606	
-0.384216	
-0.383789	
-0.382813	
-0.382263	
-0.38269	
-0.382874	
-0.383118	
-0.383057	
-0.383301	
-0.383789	
-0.383972	
-0.38385	
-0.38324	
-0.382507	
-0.383423	
-0.383728	
-0.384766	
-0.383118	
-0.383911	
-0.383667	
-0.384705	
-0.384888	
-0.384827	
-0.383972	
-0.384033	
-0.384399	
-0.384644	
-0.385315	
-0.38446	
-0.384827	
-0.385193	
-0.385437	
-0.384583	
-0.384338	
-0.382935	
-0.383911	
-0.383789	
-0.385498	
-0.384888	
-0.384399	
-0.38385	
-0.384521	
-0.385437	
-0.384155	
-0.382507	
-0.383362	
-0.383789	
-0.383728	
-0.384399	
-0.383789	
-0.384644	
-0.384216	
-0.386292	
-0.386169	
-0.386658	
-0.385132	
-0.386414	
-0.386047	
-0.387329	
-0.387329	
-0.387817	
-0.388184	
-0.388367	
-0.388733	
-0.388428	
-0.387329	
-0.388428	
-0.388367	
-0.388428	
-0.389038	
-0.388367	
-0.388245	
-0.387085	
-0.388977	
-0.388306	
-0.388489	
-0.38739	
-0.387573	
-0.387268	
-0.387817	
-0.387756	
-0.387756	
-0.387512	
-0.38855	
-0.387939	
-0.387085	
-0.386292	
-0.386475	
-0.386292	
-0.385864	
-0.386658	
-0.385437	
-0.385193	
-0.385071	
-0.386353	
-0.385498	
-0.384949	
-0.384277	
-0.383728	
-0.384399	
-0.385132	
-0.38501	
-0.384949	
-0.385193	
-0.385986	
-0.385254	
-0.38562	
-0.385742	
-0.385254	
-0.385742	
-0.384766	
-0.386597	
-0.385864	
-0.385803	
-0.385559	
-0.386841	
-0.387024	
-0.386719	
-0.386108	
-0.385681	
-0.386963	
-0.387512	
-0.386841	
-0.386719	
-0.386292	
-0.387512	
-0.387573	
-0.387024	
-0.387146	
-0.386414	
-0.386719	
-0.386414	
-0.387695	
-0.387207	
-0.387268	
-0.387512	
-0.389282	
-0.388428	
-0.388184	
-0.387268	
-0.386597	
-0.387573	
-0.388672	
-0.387695	
-0.387817	
-0.387817	
-0.389099	
-0.388611	
-0.388428	
-0.388428	
-0.387634	
-0.388123	
-0.387817	
-0.387329	
-0.388184	
-0.387085	
-0.38739	
-0.388245	
-0.389038	
-0.388306	
-0.388184	
-0.387329	
-0.388428	
-0.388977	
-0.389282	
-0.389099	
-0.388977	
-0.389648	
-0.38916	
-0.389282	
-0.388489	
-0.388733	
-0.388855	
-0.388916	
-0.388977	
-0.388489	
-0.388367	
-0.388672	
-0.388794	
-0.388489	
-0.38739	
-0.387451	
-0.386841	
-0.387085	
-0.386902	
-0.386475	
-0.386719	
-0.386108	
-0.387756	
-0.386597	
-0.386475	
-0.385986	
-0.386353	
-0.385681	
-0.385925	
-0.384766	
-0.385742	
-0.385559	
-0.385681	
-0.385803	
-0.385742	
-0.384888	
-0.38324	
-0.384705	
-0.384888	
-0.385132	
-0.384644	
-0.384888	
-0.384277	
-0.385254	
-0.384399	
-0.384766	
-0.383179	
-0.384705	
-0.382935	
-0.384216	
-0.383545	
-0.383545	
-0.384399	
-0.383789	
-0.386169	
-0.384216	
-0.383972	
-0.382202	
-0.384338	
-0.384766	
-0.384644	
-0.384338	
-0.385315	
-0.385132	
-0.386658	
-0.385437	
-0.386414	
-0.38562	
-0.386902	
-0.385132	
-0.385986	
-0.386597	
-0.385681	
-0.384949	
-0.384277	
-0.385925	
-0.385315	
-0.384949	
-0.383728	
-0.385437	
-0.385254	
-0.38562	
-0.38446	
-0.385315	
-0.385193	
-0.386597	
-0.385803	
-0.38623	
-0.384766	
-0.385803	
-0.384338	
-0.385803	
-0.386108	
-0.385376	
-0.385376	
-0.38446	
-0.385559	
-0.385864	
-0.384949	
-0.384766	
-0.385681	
-0.385864	
-0.385132	
-0.384583	
-0.38562	
-0.385376	
-0.386169	
-0.385254	
-0.386108	
-0.384338	
-0.385498	
-0.38385	
-0.38446	
-0.385315	
-0.384705	
-0.384338	
-0.383301	
-0.38446	
-0.383606	
-0.383423	
-0.382385	
-0.38324	
-0.382751	
-0.382629	
-0.382446	
-0.382813	
-0.381653	
-0.383423	
-0.382324	
-0.38324	
-0.382202	
-0.383057	
-0.383362	
-0.383484	
-0.384399	
-0.382751	
-0.383911	
-0.383545	
-0.384155	
-0.384583	
-0.384399	
-0.38446	
-0.385803	
-0.385071	
-0.386047	
-0.38562	
-0.386047	
-0.386536	
-0.387695	
-0.386475	
-0.386536	
-0.386169	
-0.38678	
-0.387512	
-0.386536	
-0.387695	
-0.38623	
-0.387085	
-0.386841	
-0.388184	
-0.386841	
-0.387939	
-0.385803	
-0.388123	
-0.387451	
-0.388184	
-0.387573	
-0.387573	
-0.388367	
-0.388733	
-0.388855	
-0.388855	
-0.388428	
-0.389221	
-0.389832	
-0.389832	
-0.390076	
-0.389343	
-0.389465	
-0.389648	
-0.391968	
-0.390198	
-0.390442	
-0.387878	
-0.389038	
-0.389465	
-0.389587	
-0.389099	
-0.388	
-0.388733	
-0.389587	
-0.388977	
-0.38855	
-0.38855	
-0.388428	
-0.389038	
-0.388428	
-0.389404	
-0.388611	
-0.38855	
-0.388428	
-0.390015	
-0.389404	
-0.390137	
-0.388977	
-0.389221	
-0.39032	
-0.389465	
-0.390137	
-0.389221	
-0.389343	
-0.388611	
-0.39093	
-0.39032	
-0.39032	
-0.388184	
-0.389954	
-0.38916	
-0.389282	
-0.388672	
-0.388062	
-0.387878	
-0.388	
-0.387695	
-0.386963	
-0.386353	
-0.386353	
-0.386902	
-0.386536	
-0.387085	
-0.385925	
-0.386047	
-0.385376	
-0.38678	
-0.385864	
-0.38678	
-0.384583	
-0.385803	
-0.385437	
-0.385437	
-0.386169	
-0.384888	
-0.385559	
-0.38501	
-0.386536	
-0.38678	
-0.38623	
-0.385803	
-0.386597	
-0.385742	
-0.386902	
-0.387024	
-0.386902	
-0.386902	
-0.388611	
-0.387695	
-0.388428	
-0.387085	
-0.388855	
-0.389526	
-0.389099	
-0.390503	
-0.389282	
-0.389465	
-0.388733	
-0.390137	
-0.389526	
-0.389465	
-0.388367	
-0.389648	
-0.388489	
-0.390015	
-0.389465	
-0.389038	
-0.389282	
-0.390442	
-0.389404	
-0.389343	
-0.388916	
-0.389526	
-0.389282	
-0.389099	
-0.389404	
-0.388733	
-0.388855	
-0.387756	
-0.388855	
-0.388	
-0.388672	
-0.38678	
-0.387512	
-0.387634	
-0.387756	
-0.387451	
-0.38678	
-0.387573	
-0.38855	
-0.387512	
-0.387451	
-0.386658	
-0.38739	
-0.387878	
-0.387695	
-0.387695	
-0.386169	
-0.386719	
-0.38678	
-0.388	
-0.38678	
-0.387024	
-0.385437	
-0.386963	
-0.387207	
-0.387329	
-0.387817	
-0.387085	
-0.387146	
-0.38678	
-0.387634	
-0.387573	
-0.386841	
-0.388062	
-0.387573	
-0.387634	
-0.387573	
-0.38678	
-0.386536	
-0.386475	
-0.387451	
-0.38623	
-0.386169	
-0.384094	
-0.385559	
-0.385742	
-0.385559	
-0.385864	
-0.385437	
-0.385742	
-0.384827	
-0.385498	
-0.385864	
-0.385681	
-0.385376	
-0.386047	
-0.386963	
-0.387146	
-0.386902	
-0.385681	
-0.387207	
-0.38916	
-0.387634	
-0.387695	
-0.386597	
-0.387817	
-0.387695	
-0.387878	
-0.388977	
-0.388062	
-0.387939	
-0.388	
-0.388611	
-0.388733	
-0.388855	
-0.387634	
-0.38855	
-0.38855	
-0.389221	
-0.38916	
-0.388306	
-0.388916	
-0.389893	
-0.389526	
-0.389893	
-0.389343	
-0.389832	
-0.389954	
-0.390259	
-0.390991	
-0.390137	
-0.390381	
-0.390442	
-0.392151	
-0.390808	
-0.391052	
-0.388733	
-0.390686	
-0.390625	
-0.390564	
-0.390564	
-0.389709	
-0.390137	
-0.390259	
-0.389771	
-0.390137	
-0.389526	
-0.390259	
-0.389221	
-0.388428	
-0.389404	
-0.388733	
-0.388489	
-0.388184	
-0.389465	
-0.388184	
-0.388794	
-0.387756	
-0.388184	
-0.388611	
-0.388916	
-0.389221	
-0.388672	
-0.388855	
-0.388184	
-0.388916	
-0.388367	
-0.388611	
-0.387329	
-0.388123	
-0.387817	
-0.388489	
-0.388	
-0.387207	
-0.388367	
-0.389343	
-0.388306	
-0.388489	
-0.388306	
-0.388489	
-0.388428	
-0.388367	
-0.38916	
-0.388	
-0.388062	
-0.387817	
-0.389282	
-0.387939	
-0.38916	
-0.386108	
-0.388245	
-0.388	
-0.388123	
-0.388672	
-0.387878	
-0.38855	
-0.388733	
-0.389221	
-0.389526	
-0.389038	
-0.389221	
-0.389648	
-0.389587	
-0.390137	
-0.389709	
-0.390991	
-0.391479	
-0.393127	
-0.39209	
-0.392334	
-0.390808	
-0.391785	
-0.392761	
-0.391602	
-0.391907	
-0.390869	
-0.390808	
-0.390015	
-0.390991	
-0.390442	
-0.390076	
-0.388977	
-0.389893	
-0.388855	
-0.389465	
-0.389038	
-0.387939	
-0.388062	
-0.38855	
-0.387939	
-0.387573	
-0.387024	
-0.387329	
-0.387451	
-0.387146	
-0.387573	
-0.386841	
-0.387085	
-0.386719	
-0.387451	
-0.386597	
-0.386963	
-0.385315	
-0.385986	
-0.385498	
-0.386169	
-0.386414	
-0.384583	
-0.385681	
-0.385071	
-0.385681	
-0.385559	
-0.384766	
-0.384033	
-0.38501	
-0.384583	
-0.384583	
-0.384277	
-0.384583	
-0.383667	
-0.384949	
-0.384155	
-0.38446	
-0.383057	
-0.383911	
-0.383789	
-0.384094	
-0.384583	
-0.38324	
-0.383606	
-0.384583	
-0.384583	
-0.384644	
-0.384277	
-0.383301	
-0.383911	
-0.38446	
-0.384216	
-0.384705	
-0.384277	
-0.383972	
-0.383423	
-0.384338	
-0.38501	
-0.382751	
-0.38385	
-0.384033	
-0.383789	
-0.384399	
-0.383423	
-0.38385	
-0.38385	
-0.384033	
-0.38324	
-0.382874	
-0.383179	
-0.38324	
-0.383789	
-0.382996	
-0.383606	
-0.381531	
-0.383057	
-0.383423	
-0.383606	
-0.384766	
-0.382996	
-0.384216	
-0.385132	
-0.385559	
-0.385925	
-0.386169	
-0.386353	
-0.386658	
-0.386658	
-0.387024	
-0.387024	
-0.38678	
-0.386841	
-0.387573	
-0.387146	
-0.387451	
-0.386658	
-0.387207	
-0.387573	
-0.387329	
-0.387085	
-0.385864	
-0.38623	
-0.386536	
-0.386902	
-0.386963	
-0.386597	
-0.38562	
-0.386414	
-0.386414	
-0.385864	
-0.38562	
-0.385437	
-0.385498	
-0.384705	
-0.384949	
-0.385132	
-0.383423	
-0.383911	
-0.384155	
-0.384155	
-0.383911	
-0.382813	
-0.382202	
-0.382751	
-0.383972	
-0.382874	
-0.383057	
-0.381897	
-0.383179	
-0.383545	
-0.38324	
-0.384338	
-0.382385	
-0.382996	
-0.382996	
-0.384094	
-0.384521	
-0.383179	
-0.383545	
-0.383789	
-0.384705	
-0.384155	
-0.383545	
-0.383362	
-0.384155	
-0.385132	
-0.384644	
-0.384766	
-0.384216	
-0.384583	
-0.38501	
-0.385376	
-0.385376	
-0.38385	
-0.384644	
-0.384583	
-0.385803	
-0.385376	
-0.38501	
-0.384827	
-0.385559	
-0.386292	
-0.385559	
-0.385498	
-0.385193	
-0.385315	
-0.385193	
-0.385864	
-0.38678	
-0.385498	
-0.385071	
-0.385559	
-0.386719	
-0.387268	
-0.385742	
-0.384766	
-0.385315	
-0.385986	
-0.385986	
-0.385376	
-0.385254	
-0.385132	
-0.386475	
-0.385498	
-0.385986	
-0.38501	
-0.386658	
-0.385742	
-0.387573	
-0.387268	
-0.386902	
-0.386719	
-0.385925	
-0.387878	
-0.387573	
-0.386841	
-0.387329	
-0.386841	
-0.387146	
-0.387512	
-0.386902	
-0.386597	
-0.385925	
-0.387817	
-0.386658	
-0.387085	
-0.385742	
-0.385132	
-0.384888	
-0.385864	
-0.385437	
-0.385071	
-0.384583	
-0.383789	
-0.384888	
-0.385132	
-0.384766	
-0.383545	
-0.38385	
-0.384277	
-0.385254	
-0.384277	
-0.38385	
-0.383362	
-0.384216	
-0.383911	
-0.38446	
-0.382935	
-0.382324	
-0.382996	
-0.383606	
-0.384155	
-0.383057	
-0.382507	
-0.381287	
-0.382751	
-0.381653	
-0.381653	
-0.381653	
-0.381958	
-0.382324	
-0.382263	
-0.382202	
-0.382202	
-0.381958	
-0.382935	
-0.382751	
-0.38269	
-0.381653	
-0.382202	
-0.381653	
-0.383118	
-0.384277	
-0.382813	
-0.383179	
-0.382385	
-0.384155	
-0.38446	
-0.384033	
-0.383789	
-0.383972	
-0.384521	
-0.384644	
-0.384216	
-0.383728	
-0.383484	
-0.384583	
-0.384827	
-0.384338	
-0.383301	
-0.382935	
-0.382935	
-0.384033	
-0.385071	
-0.384216	
-0.38385	
-0.383423	
-0.38446	
-0.384583	
-0.38385	
-0.383606	
-0.384399	
-0.384583	
-0.384888	
-0.384827	
-0.384399	
-0.384033	
-0.383362	
-0.384949	
-0.384949	
-0.384216	
-0.384155	
-0.383606	
-0.384888	
-0.385742	
-0.385132	
-0.384338	
-0.383911	
-0.384155	
-0.38446	
-0.384583	
-0.383667	
-0.38385	
-0.384033	
-0.384583	
-0.385437	
-0.383545	
-0.383179	
-0.382751	
-0.383972	
-0.384277	
-0.382507	
-0.382507	
-0.381836	
-0.38208	
-0.383057	
-0.382141	
-0.381836	
-0.381592	
-0.381897	
-0.381775	
-0.382202	
-0.382568	
-0.382385	
-0.382751	
-0.38324	
-0.384827	
-0.383972	
-0.383118	
-0.382996	
-0.385254	
-0.384705	
-0.383911	
-0.384094	
-0.384705	
-0.38501	
-0.386414	
-0.386169	
-0.386353	
-0.386169	
-0.387146	
-0.386475	
-0.387024	
-0.38623	
-0.386658	
-0.38562	
-0.386597	
-0.387939	
-0.387146	
-0.387329	
-0.386658	
-0.388123	
-0.387512	
-0.387451	
-0.387512	
-0.388	
-0.388245	
-0.388855	
-0.388062	
-0.388367	
-0.388794	
-0.389648	
-0.38916	
-0.389832	
-0.388428	
-0.389709	
-0.389343	
-0.390076	
-0.391113	
-0.390381	
-0.390015	
-0.388611	
-0.390991	
-0.39032	
-0.389893	
-0.390198	
-0.390198	
-0.39032	
-0.390686	
-0.390137	
-0.389709	
-0.389099	
-0.390015	
-0.389709	
-0.390076	
-0.389038	
-0.38916	
-0.389832	
-0.390076	
-0.390808	
-0.389954	
-0.390137	
-0.389099	
-0.39093	
-0.390381	
-0.390076	
-0.389526	
-0.390259	
-0.389343	
-0.390564	
-0.391479	
-0.390808	
-0.390686	
-0.391296	
-0.391418	
-0.391418	
-0.390198	
-0.390198	
-0.391296	
-0.391174	
-0.392395	
-0.39032	
-0.389954	
-0.389221	
-0.389465	
-0.388733	
-0.389038	
-0.388367	
-0.387573	
-0.387695	
-0.388367	
-0.388611	
-0.387329	
-0.387146	
-0.387512	
-0.388062	
-0.387146	
-0.386597	
-0.385742	
-0.387146	
-0.386414	
-0.387939	
-0.387512	
-0.38739	
-0.387451	
-0.386719	
-0.387451	
-0.388123	
-0.387695	
-0.388367	
-0.387939	
-0.388672	
-0.389221	
-0.388489	
-0.389099	
-0.388306	
-0.390076	
-0.389709	
-0.390015	
-0.389038	
-0.39032	
-0.39032	
-0.391541	
-0.391968	
-0.391907	
-0.391174	
-0.390747	
-0.391418	
-0.391602	
-0.391174	
-0.391663	
-0.391541	
-0.391602	
-0.392822	
-0.39209	
-0.39209	
-0.391785	
-0.392151	
-0.391602	
-0.391296	
-0.390442	
-0.391357	
-0.391602	
-0.391541	
-0.392212	
-0.391296	
-0.391174	
-0.390991	
-0.390503	
-0.39032	
-0.39032	
-0.390137	
-0.390686	
-0.389709	
-0.39093	
-0.390503	
-0.390381	
-0.390564	
-0.389404	
-0.390198	
-0.390381	
-0.389771	
-0.390381	
-0.389771	
-0.390137	
-0.390747	
-0.389893	
-0.389282	
-0.38855	
-0.390015	
-0.390137	
-0.388977	
-0.389648	
-0.389771	
-0.388916	
-0.390137	
-0.391052	
-0.390259	
-0.390442	
-0.390015	
-0.389954	
-0.390381	
-0.389587	
-0.390503	
-0.391296	
-0.390686	
-0.391846	
-0.39032	
-0.390625	
-0.390198	
-0.389526	
-0.389038	
-0.388062	
-0.389343	
-0.388916	
-0.387695	
-0.389099	
-0.389893	
-0.389282	
-0.389343	
-0.388672	
-0.389038	
-0.389465	
-0.388	
-0.389099	
-0.389709	
-0.390015	
-0.391296	
-0.39032	
-0.390503	
-0.391418	
-0.39093	
-0.391113	
-0.390991	
-0.391602	
-0.390991	
-0.390503	
-0.391724	
-0.3927	
-0.391968	
-0.391663	
-0.391052	
-0.392517	
-0.392456	
-0.390503	
-0.391907	
-0.3927	
-0.392944	
-0.393738	
-0.393005	
-0.393372	
-0.393433	
-0.393433	
-0.393311	
-0.393921	
-0.393494	
-0.39386	
-0.392822	
-0.393982	
-0.395996	
-0.394897	
-0.394653	
-0.394714	
-0.394897	
-0.395081	
-0.393799	
-0.395081	
-0.394165	
-0.394775	
-0.395325	
-0.395447	
-0.395142	
-0.394653	
-0.394592	
-0.394043	
-0.394653	
-0.393372	
-0.394043	
-0.39325	
-0.393188	
-0.394836	
-0.392944	
-0.393066	
-0.392456	
-0.392639	
-0.392395	
-0.392578	
-0.392883	
-0.393005	
-0.392212	
-0.393799	
-0.393677	
-0.393005	
-0.393494	
-0.394104	
-0.392944	
-0.393005	
-0.390747	
-0.392883	
-0.392395	
-0.392822	
-0.393921	
-0.392883	
-0.392944	
-0.392639	
-0.392822	
-0.392517	
-0.393005	
-0.393005	
-0.392883	
-0.391541	
-0.393494	
-0.394348	
-0.393555	
-0.3927	
-0.392517	
-0.392761	
-0.392639	
-0.391174	
-0.392334	
-0.392334	
-0.392639	
-0.393372	
-0.393127	
-0.393372	
-0.393494	
-0.393494	
-0.393555	
-0.394226	
-0.393372	
-0.393738	
-0.393005	
-0.394287	
-0.39563	
-0.395203	
-0.395691	
-0.395508	
-0.395874	
-0.396301	
-0.395874	
-0.396912	
-0.396851	
-0.396484	
-0.396362	
-0.396484	
-0.396057	
-0.39624	
-0.395081	
-0.395325	
-0.396179	
-0.392822	
-0.394531	
-0.39386	
-0.394531	
-0.395447	
-0.393982	
-0.393494	
-0.393311	
-0.393555	
-0.392517	
-0.391602	
-0.392273	
-0.392029	
-0.39209	
-0.3927	
-0.392517	
-0.391602	
-0.391602	
-0.391785	
-0.391479	
-0.392029	
-0.390015	
-0.391235	
-0.389832	
-0.391235	
-0.392151	
-0.39093	
-0.390808	
-0.390808	
-0.390564	
-0.390808	
-0.390137	
-0.390015	
-0.389709	
-0.389954	
-0.389893	
-0.390747	
-0.389587	
-0.38916	
-0.389893	
-0.389282	
-0.389282	
-0.386963	
-0.38916	
-0.388428	
-0.389648	
-0.390198	
-0.389526	
-0.389465	
-0.389282	
-0.388916	
-0.389893	
-0.389099	
-0.389221	
-0.389282	
-0.389404	
-0.390259	
-0.390686	
-0.389648	
-0.389832	
-0.39032	
-0.389587	
-0.389526	
-0.388794	
-0.389343	
-0.388916	
-0.389404	
-0.389832	
-0.389221	
-0.389221	
-0.388733	
-0.389221	
-0.389526	
-0.388306	
-0.387146	
-0.387878	
-0.38855	
-0.388428	
-0.388855	
-0.388123	
-0.387939	
-0.388428	
-0.388123	
-0.388916	
-0.388245	
-0.38916	
-0.389771	
-0.390747	
-0.391602	
-0.392212	
-0.391235	
-0.391541	
-0.391785	
-0.39209	
-0.391602	
-0.390564	
-0.391968	
-0.392517	
-0.391846	
-0.392639	
-0.392517	
-0.392212	
-0.391602	
-0.392944	
-0.392517	
-0.392029	
-0.391479	
-0.391846	
-0.391968	
-0.3927	
-0.393311	
-0.392273	
-0.392029	
-0.392029	
-0.392151	
-0.391052	
-0.390503	
-0.390991	
-0.390808	
-0.390869	
-0.391479	
-0.389893	
-0.389954	
-0.388855	
-0.390259	
-0.389099	
-0.388733	
-0.387634	
-0.38855	
-0.388367	
-0.388977	
-0.389221	
-0.388062	
-0.388184	
-0.389343	
-0.389771	
-0.38855	
-0.388062	
-0.387939	
-0.388977	
-0.389465	
-0.389954	
-0.388977	
-0.389465	
-0.38916	
-0.390015	
-0.389099	
-0.389465	
-0.387939	
-0.389282	
-0.389771	
-0.390198	
-0.390564	
-0.390137	
-0.389648	
-0.389709	
-0.391663	
-0.389771	
-0.389648	
-0.388245	
-0.39032	
-0.390137	
-0.390747	
-0.390381	
-0.390381	
-0.390137	
-0.391296	
-0.390747	
	
