E:\DOCUMENTS AND SETTINGS\JPOTAS\MEUS DOCUMENTOS\UFRJ\RSCI-BM 12 WK SERIES\070720-RSCI-BM-04\RSCI-BM-04-REMG\070720-RSCI-BM-REMG-0010.ACQ
0.025000 msec/sample
1 channel
Analog input
Volts
CH1	
2000	
-0.387207	
-0.387451	
-0.387146	
-0.388123	
-0.388062	
-0.388428	
-0.387756	
-0.388428	
-0.387939	
-0.389465	
-0.389282	
-0.388855	
-0.387634	
-0.388672	
-0.389404	
-0.389709	
-0.390686	
-0.389893	
-0.390198	
-0.389587	
-0.39093	
-0.389587	
-0.391296	
-0.391052	
-0.391357	
-0.392029	
-0.391846	
-0.392029	
-0.392151	
-0.391541	
-0.39325	
-0.392578	
-0.392273	
-0.391113	
-0.391418	
-0.392578	
-0.392456	
-0.393066	
-0.392822	
-0.393921	
-0.392517	
-0.393127	
-0.393433	
-0.392395	
-0.391907	
-0.391235	
-0.39209	
-0.39209	
-0.392273	
-0.392212	
-0.392029	
-0.391418	
-0.392517	
-0.390747	
-0.390686	
-0.390015	
-0.39093	
-0.391113	
-0.391602	
-0.391235	
-0.391663	
-0.390991	
-0.391357	
-0.390808	
-0.390747	
-0.391235	
-0.389954	
-0.391174	
-0.390808	
-0.391907	
-0.390808	
-0.39093	
-0.390991	
-0.391357	
-0.389343	
-0.389221	
-0.388916	
-0.390015	
-0.390076	
-0.389954	
-0.390503	
-0.390076	
-0.390137	
-0.389038	
-0.390442	
-0.389404	
-0.389771	
-0.389404	
-0.389648	
-0.389465	
-0.389404	
-0.389465	
-0.390686	
-0.390381	
-0.390808	
-0.389709	
-0.389038	
-0.389893	
-0.390564	
-0.390686	
-0.390564	
-0.391907	
-0.391663	
-0.391846	
-0.391724	
-0.393799	
-0.392151	
-0.393311	
-0.392639	
-0.39447	
-0.393982	
-0.39447	
-0.39502	
-0.39447	
-0.395081	
-0.393982	
-0.394775	
-0.393799	
-0.393738	
-0.393433	
-0.394531	
-0.394287	
-0.393799	
-0.393799	
-0.394409	
-0.393555	
-0.393738	
-0.391724	
-0.390625	
-0.391052	
-0.391113	
-0.390503	
-0.390198	
-0.389832	
-0.388611	
-0.388245	
-0.387695	
-0.38855	
-0.386353	
-0.386597	
-0.385742	
-0.386841	
-0.386414	
-0.387085	
-0.386902	
-0.386597	
-0.386841	
-0.385315	
-0.385498	
-0.384827	
-0.385132	
-0.384949	
-0.385193	
-0.385132	
-0.385742	
-0.385742	
-0.38562	
-0.385193	
-0.386658	
-0.384827	
-0.385193	
-0.385803	
-0.386658	
-0.387512	
-0.388672	
-0.388977	
-0.388855	
-0.389404	
-0.388855	
-0.389893	
-0.388672	
-0.389221	
-0.388367	
-0.390015	
-0.390625	
-0.391052	
-0.391418	
-0.3927	
-0.392212	
-0.391602	
-0.391052	
-0.390747	
-0.391357	
-0.391663	
-0.392029	
-0.391785	
-0.392273	
-0.391663	
-0.392334	
-0.391479	
-0.392883	
-0.390442	
-0.391479	
-0.390686	
-0.391418	
-0.390625	
-0.390686	
-0.390625	
-0.389832	
-0.390015	
-0.387939	
-0.389221	
-0.387817	
-0.389099	
-0.387939	
-0.38916	
-0.388855	
-0.388977	
-0.388611	
-0.38916	
-0.387939	
-0.388977	
-0.387268	
-0.387634	
-0.387817	
-0.388062	
-0.388245	
-0.388184	
-0.388733	
-0.388611	
-0.388977	
-0.388306	
-0.389465	
-0.388794	
-0.388611	
-0.387512	
-0.388672	
-0.389038	
-0.389526	
-0.389893	
-0.390259	
-0.390564	
-0.389526	
-0.389099	
-0.388733	
-0.388855	
-0.389832	
-0.389465	
-0.389771	
-0.390015	
-0.389709	
-0.390137	
-0.389404	
-0.390991	
-0.388916	
-0.390137	
-0.389038	
-0.390686	
-0.391052	
-0.390686	
-0.391541	
-0.392151	
-0.392395	
-0.391968	
-0.392395	
-0.392151	
-0.392822	
-0.391602	
-0.393311	
-0.393372	
-0.393799	
-0.394531	
-0.394592	
-0.393921	
-0.393738	
-0.392639	
-0.392883	
-0.392456	
-0.39325	
-0.392883	
-0.393433	
-0.393433	
-0.393616	
-0.393982	
-0.39325	
-0.394531	
-0.3927	
-0.393127	
-0.39209	
-0.393188	
-0.393799	
-0.394043	
-0.394226	
-0.394958	
-0.394714	
-0.395386	
-0.39502	
-0.395691	
-0.396301	
-0.397705	
-0.399231	
-0.400391	
-0.401855	
-0.404541	
-0.406494	
-0.40802	
-0.409912	
-0.410767	
-0.414185	
-0.416077	
-0.419678	
-0.422485	
-0.425537	
-0.429443	
-0.432129	
-0.433594	
-0.436401	
-0.437012	
-0.441833	
-0.442688	
-0.44696	
-0.449402	
-0.452332	
-0.456177	
-0.45929	
-0.461121	
-0.465027	
-0.46759	
-0.471558	
-0.474243	
-0.478516	
-0.481812	
-0.485291	
-0.488708	
-0.492493	
-0.496033	
-0.498779	
-0.502014	
-0.505127	
-0.509216	
-0.512817	
-0.516724	
-0.520142	
-0.523315	
-0.52655	
-0.530029	
-0.531006	
-0.534424	
-0.533447	
-0.536011	
-0.53656	
-0.538635	
-0.538757	
-0.540039	
-0.540894	
-0.541748	
-0.541443	
-0.54187	
-0.5401	
-0.540466	
-0.540039	
-0.538147	
-0.537231	
-0.536194	
-0.534607	
-0.533875	
-0.533447	
-0.530457	
-0.529358	
-0.52478	
-0.524353	
-0.520752	
-0.519348	
-0.517334	
-0.514954	
-0.512573	
-0.510803	
-0.50708	
-0.504456	
-0.500488	
-0.497864	
-0.493652	
-0.490967	
-0.487732	
-0.483826	
-0.480652	
-0.477966	
-0.474548	
-0.46991	
-0.466553	
-0.460754	
-0.459351	
-0.454773	
-0.453125	
-0.449341	
-0.445984	
-0.442932	
-0.438904	
-0.43396	
-0.430054	
-0.424866	
-0.420105	
-0.415222	
-0.409424	
-0.404907	
-0.399536	
-0.394409	
-0.389648	
-0.386902	
-0.380737	
-0.376831	
-0.371643	
-0.369202	
-0.365295	
-0.362976	
-0.359863	
-0.357666	
-0.355408	
-0.354614	
-0.351807	
-0.350342	
-0.348999	
-0.348267	
-0.348328	
-0.347473	
-0.34845	
-0.349182	
-0.34906	
-0.34967	
-0.351868	
-0.35083	
-0.352417	
-0.350708	
-0.35321	
-0.353394	
-0.354797	
-0.355835	
-0.356445	
-0.357239	
-0.358826	
-0.3573	
-0.357849	
-0.357117	
-0.358765	
-0.358276	
-0.358826	
-0.35907	
-0.358887	
-0.358765	
-0.360413	
-0.358643	
-0.358704	
-0.359497	
-0.359314	
-0.359558	
-0.358459	
-0.361145	
-0.36145	
-0.361694	
-0.362915	
-0.363342	
-0.36261	
-0.364441	
-0.362427	
-0.363953	
-0.363098	
-0.364746	
-0.365356	
-0.365723	
-0.366577	
-0.368652	
-0.368347	
-0.368835	
-0.367188	
-0.369873	
-0.370544	
-0.371643	
-0.373047	
-0.373718	
-0.374146	
-0.376526	
-0.375671	
-0.375854	
-0.37439	
-0.375732	
-0.375671	
-0.376587	
-0.377136	
-0.377075	
-0.377075	
-0.378418	
-0.378174	
-0.377991	
-0.378479	
-0.378296	
-0.37854	
-0.377502	
-0.378784	
-0.378967	
-0.379028	
-0.379639	
-0.380127	
-0.379456	
-0.380798	
-0.37854	
-0.379517	
-0.377197	
-0.378235	
-0.378235	
-0.378113	
-0.378357	
-0.378967	
-0.377686	
-0.377502	
-0.37439	
-0.376648	
-0.375793	
-0.375427	
-0.375305	
-0.375122	
-0.375061	
-0.376587	
-0.375183	
-0.374939	
-0.373535	
-0.375488	
-0.375427	
-0.375977	
-0.377136	
-0.377502	
-0.377625	
-0.378967	
-0.380066	
-0.379761	
-0.38147	
-0.379395	
-0.381714	
-0.381042	
-0.382996	
-0.38324	
-0.384094	
-0.384827	
-0.387268	
-0.38623	
-0.386841	
-0.384705	
-0.387756	
-0.387878	
-0.388733	
-0.388611	
-0.388733	
-0.389587	
-0.390808	
-0.389893	
-0.389648	
-0.390442	
-0.388611	
-0.388977	
-0.38739	
-0.388855	
-0.388123	
-0.388123	
-0.388245	
-0.388489	
-0.387878	
-0.387512	
-0.38623	
-0.386963	
-0.38623	
-0.386292	
-0.38623	
-0.386475	
-0.386108	
-0.387207	
-0.385498	
-0.384827	
-0.38446	
-0.38324	
-0.383545	
-0.382629	
-0.383789	
-0.383667	
-0.383667	
-0.384338	
-0.384338	
-0.383972	
-0.384399	
-0.383362	
-0.383118	
-0.38208	
-0.382751	
-0.382202	
-0.382141	
-0.381897	
-0.383728	
-0.382141	
-0.381775	
-0.380432	
-0.380737	
-0.380554	
-0.379333	
-0.380249	
-0.380432	
-0.380371	
-0.380493	
-0.380615	
-0.381165	
-0.381531	
-0.381042	
-0.380615	
-0.380432	
-0.381592	
-0.381958	
-0.381653	
-0.381897	
-0.383057	
-0.381897	
-0.381775	
-0.38208	
-0.381409	
-0.381958	
-0.382507	
-0.382507	
-0.383118	
-0.383179	
-0.383545	
-0.383972	
-0.384216	
-0.384216	
-0.383545	
-0.384216	
-0.384583	
-0.384338	
-0.385803	
-0.385986	
-0.385681	
-0.387207	
-0.38623	
-0.385864	
-0.385376	
-0.385925	
-0.385925	
-0.385803	
-0.386047	
-0.386047	
-0.385925	
-0.386292	
-0.386597	
-0.38678	
-0.386536	
-0.384705	
-0.384705	
-0.383606	
-0.384521	
-0.384705	
-0.383606	
-0.383789	
-0.384094	
-0.383179	
-0.38208	
-0.381348	
-0.380859	
-0.380432	
-0.380859	
-0.380127	
-0.380981	
-0.380371	
-0.381042	
-0.38269	
-0.38147	
-0.381287	
-0.380005	
-0.3797	
-0.379944	
-0.380005	
-0.380676	
-0.380676	
-0.380737	
-0.38092	
-0.380615	
-0.381165	
-0.380676	
-0.380493	
-0.380859	
-0.381531	
-0.381775	
-0.381531	
-0.382141	
-0.382629	
-0.383301	
-0.383362	
-0.382874	
-0.381836	
-0.381531	
-0.382202	
-0.38269	
-0.38385	
-0.384155	
-0.384094	
-0.384827	
-0.385132	
-0.385803	
-0.384705	
-0.385132	
-0.385742	
-0.386108	
-0.386108	
-0.386169	
-0.385986	
-0.385986	
-0.388062	
-0.38739	
-0.386658	
-0.385254	
-0.385742	
-0.386902	
-0.38562	
-0.386292	
-0.386719	
-0.386841	
-0.387939	
-0.387512	
-0.38739	
-0.386353	
-0.386475	
-0.385437	
-0.385803	
-0.385437	
-0.385559	
-0.385437	
-0.386047	
-0.386475	
-0.386108	
-0.385437	
-0.385071	
-0.383911	
-0.384827	
-0.384583	
-0.385925	
-0.385559	
-0.385376	
-0.386536	
-0.38678	
-0.386963	
-0.385132	
-0.384583	
-0.384888	
-0.38501	
-0.385132	
-0.385254	
-0.385132	
-0.385193	
-0.385254	
-0.385925	
-0.384766	
-0.385742	
-0.38324	
-0.384827	
-0.383423	
-0.384888	
-0.384644	
-0.385254	
-0.385681	
-0.385742	
-0.385681	
-0.38446	
-0.383545	
-0.384827	
-0.384949	
-0.385193	
-0.385498	
-0.385437	
-0.386108	
-0.386292	
-0.387268	
-0.386169	
-0.387512	
-0.38623	
-0.387146	
-0.386353	
-0.388611	
-0.388611	
-0.388916	
-0.389954	
-0.391113	
-0.39093	
-0.390686	
-0.390564	
-0.389893	
-0.390747	
-0.390808	
-0.390381	
-0.390442	
-0.391235	
-0.390625	
-0.391174	
-0.389771	
-0.390564	
-0.387756	
-0.389465	
-0.388123	
-0.388611	
-0.388611	
-0.388367	
-0.387939	
-0.388306	
-0.387085	
-0.386475	
-0.385071	
-0.384216	
-0.383606	
-0.383179	
-0.383118	
-0.381775	
-0.382324	
-0.381409	
-0.382507	
-0.380371	
-0.380737	
-0.378662	
-0.380127	
-0.3797	
-0.379883	
-0.379578	
-0.3797	
-0.379822	
-0.380188	
-0.380005	
-0.379333	
-0.378601	
-0.378174	
-0.378174	
-0.379028	
-0.378845	
-0.379028	
-0.379822	
-0.379578	
-0.380981	
-0.38031	
-0.380676	
-0.378479	
-0.381042	
-0.381592	
-0.382202	
-0.382446	
-0.382324	
-0.382751	
-0.383484	
-0.383606	
-0.382568	
-0.383118	
-0.383362	
-0.382263	
-0.383789	
-0.383972	
-0.383972	
-0.384155	
-0.384583	
-0.386536	
-0.384766	
-0.384827	
-0.382813	
-0.384033	
-0.384277	
-0.384277	
-0.384521	
-0.384521	
-0.385193	
-0.384094	
-0.385132	
-0.383423	
-0.383728	
-0.383423	
-0.383911	
-0.383789	
-0.383118	
-0.38324	
-0.383301	
-0.382751	
-0.384094	
-0.38269	
-0.382019	
-0.381409	
-0.380798	
-0.381836	
-0.381592	
-0.381592	
-0.381592	
-0.382141	
-0.382019	
-0.382324	
-0.38092	
-0.381287	
-0.379883	
-0.381104	
-0.381775	
-0.382019	
-0.382141	
-0.382568	
-0.381531	
-0.382263	
-0.382813	
-0.381592	
-0.380981	
-0.38092	
-0.382629	
-0.382568	
-0.382568	
-0.382385	
-0.383423	
-0.382996	
-0.384827	
-0.382019	
-0.382141	
-0.380737	
-0.382507	
-0.382202	
-0.382507	
-0.382202	
-0.382751	
-0.383057	
-0.383484	
-0.384094	
-0.382874	
-0.382813	
-0.38147	
-0.383545	
-0.384094	
-0.384155	
-0.384216	
-0.385071	
-0.384888	
-0.386963	
-0.384583	
-0.385437	
-0.384033	
-0.386047	
-0.386047	
-0.385803	
-0.385864	
-0.386108	
-0.385864	
-0.386108	
-0.387634	
-0.385437	
-0.385437	
-0.383362	
-0.385498	
-0.385315	
-0.385498	
-0.385376	
-0.385986	
-0.385132	
-0.385803	
-0.384766	
-0.383972	
-0.38324	
-0.382446	
-0.383301	
-0.383057	
-0.382446	
-0.382019	
-0.381531	
-0.38092	
-0.382751	
-0.379578	
-0.379333	
-0.377563	
-0.379578	
-0.37915	
-0.379211	
-0.379578	
-0.379395	
-0.378784	
-0.379395	
-0.379883	
-0.378662	
-0.378357	
-0.37738	
-0.379028	
-0.379272	
-0.379517	
-0.379211	
-0.380493	
-0.380249	
-0.381897	
-0.379211	
-0.380676	
-0.379456	
-0.381531	
-0.38269	
-0.383484	
-0.38385	
-0.384399	
-0.385315	
-0.385193	
-0.386414	
-0.385193	
-0.38501	
-0.382935	
-0.385071	
-0.385315	
-0.385742	
-0.386169	
-0.386353	
-0.385498	
-0.388184	
-0.385803	
-0.385193	
-0.385193	
-0.385254	
-0.385925	
-0.385986	
-0.385925	
-0.386719	
-0.386108	
-0.386658	
-0.387939	
-0.386475	
-0.385803	
-0.38324	
-0.385681	
-0.385498	
-0.385437	
-0.385132	
-0.385498	
-0.38501	
-0.385498	
-0.384827	
-0.384521	
-0.383179	
-0.381592	
-0.383484	
-0.383179	
-0.383118	
-0.382813	
-0.382751	
-0.382507	
-0.384155	
-0.38147	
-0.381836	
-0.379211	
-0.382019	
-0.381897	
-0.381714	
-0.382019	
-0.382385	
-0.381348	
-0.382507	
-0.383179	
-0.381592	
-0.381409	
-0.3797	
-0.381836	
-0.382202	
-0.38269	
-0.383118	
-0.382263	
-0.38269	
-0.384338	
-0.382507	
-0.382568	
-0.380371	
-0.382568	
-0.382568	
-0.38269	
-0.382385	
-0.383179	
-0.382324	
-0.382507	
-0.382874	
-0.381531	
-0.381592	
-0.381592	
-0.381897	
-0.381775	
-0.382019	
-0.382202	
-0.382019	
-0.38208	
-0.383667	
-0.383179	
-0.382263	
-0.382202	
-0.380493	
-0.382629	
-0.382813	
-0.383728	
-0.384521	
-0.383667	
-0.384583	
-0.385071	
-0.385254	
-0.385254	
-0.384033	
-0.387268	
-0.388245	
-0.388306	
-0.390198	
-0.391113	
-0.392334	
-0.394531	
-0.396484	
-0.396484	
-0.397522	
-0.398193	
-0.402344	
-0.404846	
-0.406372	
-0.408752	
-0.410828	
-0.413818	
-0.417114	
-0.418335	
-0.420837	
-0.421326	
-0.424683	
-0.427368	
-0.430359	
-0.432373	
-0.434753	
-0.437866	
-0.440552	
-0.441895	
-0.444519	
-0.446716	
-0.45105	
-0.454529	
-0.457886	
-0.462036	
-0.466064	
-0.469849	
-0.473877	
-0.477783	
-0.481873	
-0.486267	
-0.490723	
-0.495361	
-0.499451	
-0.503601	
-0.507385	
-0.511414	
-0.516235	
-0.51947	
-0.521362	
-0.522095	
-0.525513	
-0.529358	
-0.531189	
-0.532959	
-0.53479	
-0.535278	
-0.536316	
-0.536865	
-0.536133	
-0.535095	
-0.534973	
-0.535156	
-0.534363	
-0.533997	
-0.533997	
-0.532043	
-0.53186	
-0.530396	
-0.528687	
-0.526428	
-0.522888	
-0.521423	
-0.519409	
-0.517029	
-0.513855	
-0.510315	
-0.506836	
-0.504517	
-0.500916	
-0.496033	
-0.492432	
-0.488464	
-0.48584	
-0.482239	
-0.478577	
-0.475403	
-0.47113	
-0.467285	
-0.463867	
-0.460022	
-0.45636	
-0.452759	
-0.450195	
-0.446716	
-0.444031	
-0.440796	
-0.437378	
-0.43396	
-0.431946	
-0.428406	
-0.422424	
-0.417297	
-0.412598	
-0.408936	
-0.404602	
-0.399841	
-0.395508	
-0.390015	
-0.385986	
-0.380249	
-0.375977	
-0.371399	
-0.365356	
-0.361328	
-0.359619	
-0.356018	
-0.352722	
-0.350037	
-0.348633	
-0.347534	
-0.344971	
-0.343262	
-0.34137	
-0.341858	
-0.342346	
-0.341919	
-0.342102	
-0.342712	
-0.342285	
-0.342651	
-0.343323	
-0.344177	
-0.344421	
-0.345642	
-0.346619	
-0.347961	
-0.349365	
-0.350281	
-0.350525	
-0.351257	
-0.351624	
-0.352661	
-0.351929	
-0.351196	
-0.351318	
-0.3526	
-0.352783	
-0.353516	
-0.35321	
-0.353638	
-0.35498	
-0.355103	
-0.353638	
-0.352234	
-0.352661	
-0.353821	
-0.354492	
-0.354248	
-0.355286	
-0.354187	
-0.355835	
-0.354736	
-0.354431	
-0.353027	
-0.352722	
-0.354065	
-0.35376	
-0.353577	
-0.354736	
-0.353821	
-0.354919	
-0.354065	
-0.353455	
-0.353149	
-0.353638	
-0.354431	
-0.354797	
-0.354675	
-0.355652	
-0.355286	
-0.357117	
-0.356689	
-0.356262	
-0.356323	
-0.356262	
-0.356567	
-0.356506	
-0.356567	
-0.357239	
-0.357056	
-0.358154	
-0.358276	
-0.358826	
-0.358826	
-0.358643	
-0.358948	
-0.360107	
-0.360291	
-0.361755	
-0.36261	
-0.363403	
-0.36438	
-0.365234	
-0.364929	
-0.363708	
-0.364807	
-0.366089	
-0.366943	
-0.367065	
-0.368469	
-0.368408	
-0.369446	
-0.368958	
-0.368835	
-0.368225	
-0.36792	
-0.36908	
-0.369202	
-0.369141	
-0.369873	
-0.369141	
-0.369202	
-0.369263	
-0.368652	
-0.368042	
-0.367981	
-0.367737	
-0.367981	
-0.367554	
-0.367432	
-0.366943	
-0.367615	
-0.367126	
-0.367126	
-0.36554	
-0.366577	
-0.367004	
-0.36731	
-0.367432	
-0.367249	
-0.367737	
-0.368042	
-0.368103	
-0.369141	
-0.367371	
-0.36676	
-0.366089	
-0.367859	
-0.368103	
-0.368408	
-0.369568	
-0.369141	
-0.369446	
-0.368652	
-0.36908	
-0.368896	
-0.368896	
-0.370056	
-0.370178	
-0.369995	
-0.370667	
-0.370605	
-0.372253	
-0.371521	
-0.371643	
-0.370483	
-0.370117	
-0.37146	
-0.372131	
-0.372375	
-0.373352	
-0.37384	
-0.373718	
-0.373962	
-0.37384	
-0.373596	
-0.37384	
-0.37323	
-0.374268	
-0.374207	
-0.374573	
-0.374878	
-0.374756	
-0.375671	
-0.375854	
-0.375427	
-0.373779	
-0.374451	
-0.374878	
-0.374878	
-0.375549	
-0.375488	
-0.375244	
-0.375671	
-0.375854	
-0.375671	
-0.375122	
-0.37439	
-0.374329	
-0.373474	
-0.374756	
-0.374451	
-0.374817	
-0.375	
-0.375061	
-0.375183	
-0.374146	
-0.37439	
-0.373291	
-0.373962	
-0.374695	
-0.374512	
-0.375183	
-0.374939	
-0.375732	
-0.375305	
-0.37439	
-0.374939	
-0.374023	
-0.374023	
-0.373535	
-0.374451	
-0.374512	
-0.374817	
-0.37439	
-0.374207	
-0.374023	
-0.374146	
-0.373779	
-0.373718	
-0.374023	
-0.373779	
-0.374451	
-0.374634	
-0.374268	
-0.375183	
-0.374451	
-0.374023	
-0.373901	
-0.374146	
-0.374329	
-0.37384	
-0.374634	
-0.375122	
-0.375061	
-0.375427	
-0.375549	
-0.376587	
-0.375671	
-0.376648	
-0.37616	
-0.376709	
-0.37738	
-0.378174	
-0.379272	
-0.379089	
-0.379761	
-0.380005	
-0.379639	
-0.380066	
-0.379395	
-0.380066	
-0.379822	
-0.379578	
-0.380249	
-0.379944	
-0.380737	
-0.3797	
-0.38031	
-0.379211	
-0.379578	
-0.378418	
-0.379578	
-0.378723	
-0.379211	
-0.378174	
-0.378357	
-0.377502	
-0.377075	
-0.376465	
-0.376221	
-0.374207	
-0.374146	
-0.372864	
-0.373718	
-0.37384	
-0.372986	
-0.373657	
-0.372803	
-0.372803	
-0.372437	
-0.37207	
-0.372314	
-0.372192	
-0.372559	
-0.372375	
-0.371826	
-0.37262	
-0.37146	
-0.372437	
-0.371094	
-0.371643	
-0.370911	
-0.371826	
-0.371643	
-0.372131	
-0.372559	
-0.372925	
-0.372986	
-0.372864	
-0.37384	
-0.375244	
-0.374451	
-0.375061	
-0.375671	
-0.375488	
-0.376282	
-0.376343	
-0.37677	
-0.37738	
-0.376831	
-0.376404	
-0.376648	
-0.377258	
-0.378174	
-0.378296	
-0.378723	
-0.378906	
-0.378845	
-0.378723	
-0.378906	
-0.378296	
-0.379211	
-0.378052	
-0.378662	
-0.377686	
-0.378235	
-0.379395	
-0.378357	
-0.378845	
-0.377869	
-0.377808	
-0.377869	
-0.377686	
-0.377869	
-0.377258	
-0.377563	
-0.37738	
-0.376892	
-0.377563	
-0.377075	
-0.376648	
-0.374939	
-0.375793	
-0.375122	
-0.375183	
-0.375	
-0.375244	
-0.376221	
-0.376038	
-0.375305	
-0.375	
-0.375183	
-0.374878	
-0.374878	
-0.375305	
-0.375305	
-0.375671	
-0.375305	
-0.376282	
-0.376221	
-0.376709	
-0.376709	
-0.375671	
-0.375549	
-0.375122	
-0.376648	
-0.376282	
-0.376404	
-0.377869	
-0.377441	
-0.377136	
-0.376221	
-0.376099	
-0.376526	
-0.376648	
-0.377136	
-0.376587	
-0.376587	
-0.377014	
-0.376892	
-0.377075	
-0.37793	
-0.377197	
-0.377258	
-0.377502	
-0.376831	
-0.377991	
-0.377747	
-0.378662	
-0.379578	
-0.380188	
-0.379761	
-0.379333	
-0.379517	
-0.379883	
-0.380798	
-0.380615	
-0.380554	
-0.38031	
-0.381104	
-0.381775	
-0.380737	
-0.380432	
-0.380859	
-0.380249	
-0.38092	
-0.379456	
-0.380249	
-0.380127	
-0.380493	
-0.381592	
-0.381348	
-0.380737	
-0.3797	
-0.378723	
-0.378479	
-0.379883	
-0.378906	
-0.378906	
-0.378418	
-0.378357	
-0.377869	
-0.377686	
-0.376892	
-0.37616	
-0.375793	
-0.375732	
-0.375	
-0.375122	
-0.374634	
-0.375061	
-0.376282	
-0.375427	
-0.375366	
-0.374207	
-0.375061	
-0.374023	
-0.375244	
-0.375244	
-0.375366	
-0.375122	
-0.376282	
-0.376648	
-0.376465	
-0.375854	
-0.376648	
-0.37677	
-0.378052	
-0.377563	
-0.377991	
-0.378906	
-0.379822	
-0.381165	
-0.380493	
-0.380981	
-0.380798	
-0.381226	
-0.380676	
-0.381104	
-0.381836	
-0.381958	
-0.381409	
-0.382813	
-0.382813	
-0.382324	
-0.382141	
-0.381165	
-0.382446	
-0.382751	
-0.381592	
-0.382874	
-0.382263	
-0.382874	
-0.38324	
-0.382446	
-0.382996	
-0.382874	
-0.382568	
-0.381287	
-0.382751	
-0.381775	
-0.382019	
-0.381592	
-0.383362	
-0.382202	
-0.382446	
-0.381165	
-0.381592	
-0.380493	
-0.381226	
-0.379272	
-0.380127	
-0.379883	
-0.379822	
-0.380188	
-0.379578	
-0.379639	
-0.379211	
-0.37915	
-0.378418	
-0.378845	
-0.378906	
-0.378845	
-0.37793	
-0.379761	
-0.37854	
-0.378967	
-0.378113	
-0.3797	
-0.378418	
-0.379578	
-0.377686	
-0.378784	
-0.378235	
-0.379272	
-0.380188	
-0.37915	
-0.379822	
-0.378662	
-0.379639	
-0.380005	
-0.380005	
-0.380188	
-0.379944	
-0.379578	
-0.381104	
-0.379456	
-0.381104	
-0.379456	
-0.38092	
-0.380249	
-0.380981	
-0.378662	
-0.379639	
-0.379211	
-0.380249	
-0.380554	
-0.380737	
-0.380005	
-0.380615	
-0.380432	
-0.380737	
-0.380615	
-0.38092	
-0.380859	
-0.380981	
-0.382935	
-0.381592	
-0.38208	
-0.38147	
-0.382324	
-0.380676	
-0.382629	
-0.380676	
-0.381775	
-0.380615	
-0.382385	
-0.382324	
-0.381897	
-0.381958	
-0.381165	
-0.381531	
-0.382751	
-0.381531	
-0.381714	
-0.381165	
-0.381165	
-0.382446	
-0.380615	
-0.38147	
-0.379944	
-0.380554	
-0.379089	
-0.379456	
-0.378174	
-0.378235	
-0.37793	
-0.378174	
-0.377747	
-0.377502	
-0.376953	
-0.37738	
-0.376892	
-0.377869	
-0.37677	
-0.376892	
-0.376465	
-0.377197	
-0.378723	
-0.377563	
-0.377869	
-0.37738	
-0.378052	
-0.377197	
-0.37793	
-0.378235	
-0.378601	
-0.378967	
-0.379517	
-0.380249	
-0.381287	
-0.38147	
-0.382568	
-0.382446	
-0.384155	
-0.382568	
-0.384216	
-0.38385	
-0.384399	
-0.386536	
-0.384888	
-0.38501	
-0.38385	
-0.385315	
-0.385254	
-0.385132	
-0.385742	
-0.386047	
-0.386108	
-0.387085	
-0.386719	
-0.386963	
-0.386414	
-0.386963	
-0.386536	
-0.387207	
-0.385315	
-0.386658	
-0.385498	
-0.386475	
-0.38739	
-0.386047	
-0.385803	
-0.384094	
-0.384338	
-0.384277	
-0.383911	
-0.38385	
-0.383301	
-0.382996	
-0.383362	
-0.383606	
-0.383301	
-0.381958	
-0.381653	
-0.380981	
-0.381958	
-0.3797	
-0.380432	
-0.379822	
-0.380615	
-0.380981	
-0.380859	
-0.38031	
-0.380493	
-0.380127	
-0.380432	
-0.38031	
-0.380615	
-0.380249	
-0.381042	
-0.38269	
-0.382141	
-0.38208	
-0.380859	
-0.381653	
-0.381287	
-0.381409	
-0.380737	
-0.382202	
-0.382568	
-0.383301	
-0.382935	
-0.383728	
-0.383545	
-0.383362	
-0.383606	
-0.384644	
-0.383606	
-0.38385	
-0.383362	
-0.38385	
-0.384827	
-0.385498	
-0.385193	
-0.383179	
-0.38446	
-0.383972	
-0.384521	
-0.384094	
-0.384155	
-0.384399	
-0.384705	
-0.384705	
-0.384766	
-0.384033	
-0.384521	
-0.384338	
-0.384705	
-0.384155	
-0.383179	
-0.382385	
-0.383667	
-0.383911	
-0.384216	
-0.383789	
-0.38269	
-0.38324	
-0.383728	
-0.383484	
-0.382996	
-0.383484	
-0.383423	
-0.383606	
-0.383118	
-0.383362	
-0.382935	
-0.382446	
-0.382935	
-0.382813	
-0.381592	
-0.381714	
-0.380432	
-0.381409	
-0.381226	
-0.381409	
-0.381042	
-0.380005	
-0.380188	
-0.379944	
-0.380188	
-0.3797	
-0.379456	
-0.379944	
-0.380859	
-0.380066	
-0.380371	
-0.379944	
-0.380188	
-0.379944	
-0.38031	
-0.380798	
-0.3797	
-0.379395	
-0.380859	
-0.380615	
-0.380859	
-0.38147	
-0.381042	
-0.381958	
-0.382141	
-0.381409	
-0.381042	
-0.382568	
-0.383606	
-0.384644	
-0.385193	
-0.385071	
-0.384216	
-0.385864	
-0.385559	
-0.386047	
-0.385925	
-0.386597	
-0.385193	
-0.386108	
-0.38623	
-0.385681	
-0.386475	
-0.385986	
-0.385986	
-0.385498	
-0.385925	
-0.385742	
-0.385315	
-0.385864	
-0.386597	
-0.385986	
-0.38501	
-0.383118	
-0.384094	
-0.383728	
-0.383667	
-0.382446	
-0.381958	
-0.380981	
-0.381653	
-0.380798	
-0.380676	
-0.380371	
-0.3797	
-0.379822	
-0.378479	
-0.379211	
-0.379211	
-0.3797	
-0.379639	
-0.380127	
-0.379883	
-0.37915	
-0.379028	
-0.378845	
-0.378906	
	
