E:\DOCUMENTS AND SETTINGS\JPOTAS\MEUS DOCUMENTOS\UFRJ\RSCI-BM 12 WK SERIES\070720-RSCI-BM-04\RSCI-BM-04-REMG\070720-RSCI-BM-REMG-0005.ACQ
0.025000 msec/sample
1 channel
Analog input
Volts
CH1	
2000	
-0.391785	
-0.390991	
-0.391052	
-0.391113	
-0.391602	
-0.391541	
-0.391785	
-0.390137	
-0.391479	
-0.391479	
-0.391907	
-0.392029	
-0.391968	
-0.392151	
-0.392151	
-0.392334	
-0.393555	
-0.391846	
-0.392517	
-0.391907	
-0.392273	
-0.393372	
-0.392822	
-0.392822	
-0.393311	
-0.393738	
-0.393616	
-0.393372	
-0.393005	
-0.393188	
-0.392761	
-0.393433	
-0.394104	
-0.39325	
-0.393066	
-0.393433	
-0.393616	
-0.393311	
-0.393311	
-0.391663	
-0.392761	
-0.392029	
-0.393188	
-0.393982	
-0.393372	
-0.392822	
-0.392822	
-0.393005	
-0.392761	
-0.391296	
-0.392273	
-0.391357	
-0.391418	
-0.392822	
-0.392944	
-0.392578	
-0.392822	
-0.393677	
-0.393433	
-0.392944	
-0.392822	
-0.392944	
-0.392822	
-0.393005	
-0.393372	
-0.392578	
-0.392944	
-0.392517	
-0.393127	
-0.393127	
-0.392944	
-0.391052	
-0.391602	
-0.391663	
-0.392151	
-0.39209	
-0.391479	
-0.391846	
-0.391907	
-0.392029	
-0.392334	
-0.390808	
-0.391113	
-0.390381	
-0.391235	
-0.391907	
-0.391541	
-0.392029	
-0.3927	
-0.393188	
-0.393066	
-0.393494	
-0.393005	
-0.393372	
-0.39386	
-0.393921	
-0.394836	
-0.394104	
-0.394653	
-0.395142	
-0.395447	
-0.39563	
-0.39502	
-0.393982	
-0.394653	
-0.394531	
-0.395447	
-0.396118	
-0.395447	
-0.395508	
-0.394409	
-0.395569	
-0.395264	
-0.394714	
-0.394104	
-0.393799	
-0.394043	
-0.394287	
-0.393921	
-0.394043	
-0.394653	
-0.395081	
-0.394775	
-0.394531	
-0.393616	
-0.393555	
-0.392822	
-0.393616	
-0.394836	
-0.394104	
-0.394287	
-0.394043	
-0.394958	
-0.394897	
-0.393127	
-0.392944	
-0.393005	
-0.393616	
-0.394104	
-0.39386	
-0.393738	
-0.393921	
-0.394104	
-0.394592	
-0.394714	
-0.39386	
-0.393311	
-0.393188	
-0.39386	
-0.393738	
-0.393005	
-0.393066	
-0.393616	
-0.39447	
-0.394043	
-0.393738	
-0.392151	
-0.391724	
-0.392517	
-0.393433	
-0.394104	
-0.393433	
-0.393005	
-0.393066	
-0.393677	
-0.393188	
-0.39209	
-0.392578	
-0.393188	
-0.393555	
-0.39386	
-0.393677	
-0.393738	
-0.393433	
-0.393982	
-0.394653	
-0.394226	
-0.392639	
-0.393066	
-0.393066	
-0.393372	
-0.394348	
-0.393616	
-0.393555	
-0.393311	
-0.394348	
-0.393372	
-0.393616	
-0.392151	
-0.392578	
-0.392029	
-0.39325	
-0.393127	
-0.392761	
-0.392517	
-0.393372	
-0.393311	
-0.391479	
-0.390137	
-0.390686	
-0.391174	
-0.391235	
-0.391479	
-0.392334	
-0.392883	
-0.392883	
-0.393921	
-0.393555	
-0.393616	
-0.391602	
-0.392273	
-0.393066	
-0.393005	
-0.394165	
-0.393372	
-0.392883	
-0.392334	
-0.393555	
-0.392944	
-0.392944	
-0.392334	
-0.392639	
-0.391541	
-0.393188	
-0.392456	
-0.392578	
-0.392517	
-0.394104	
-0.392822	
-0.392334	
-0.391602	
-0.392029	
-0.391602	
-0.391724	
-0.392578	
-0.391602	
-0.391541	
-0.391174	
-0.3927	
-0.391663	
-0.391663	
-0.388367	
-0.38916	
-0.389954	
-0.390686	
-0.390625	
-0.390198	
-0.390503	
-0.39093	
-0.390869	
-0.390686	
-0.390137	
-0.390076	
-0.390076	
-0.38916	
-0.391235	
-0.391418	
-0.392029	
-0.391602	
-0.393616	
-0.393311	
-0.393372	
-0.392395	
-0.392883	
-0.393311	
-0.393372	
-0.393921	
-0.393738	
-0.393799	
-0.393127	
-0.394836	
-0.394897	
-0.394592	
-0.392822	
-0.393372	
-0.393982	
-0.394775	
-0.393372	
-0.393738	
-0.394287	
-0.395996	
-0.39563	
-0.396118	
-0.397583	
-0.398682	
-0.39917	
-0.399841	
-0.402283	
-0.402283	
-0.403992	
-0.405457	
-0.408081	
-0.409912	
-0.411438	
-0.411072	
-0.414307	
-0.41626	
-0.418457	
-0.420044	
-0.421936	
-0.42395	
-0.427856	
-0.428833	
-0.431335	
-0.430847	
-0.433594	
-0.435425	
-0.437744	
-0.439819	
-0.441589	
-0.444031	
-0.447388	
-0.449036	
-0.450623	
-0.452942	
-0.455505	
-0.457764	
-0.461182	
-0.465637	
-0.468506	
-0.471863	
-0.475159	
-0.48053	
-0.48468	
-0.488647	
-0.490662	
-0.495422	
-0.499084	
-0.504333	
-0.508179	
-0.512695	
-0.516541	
-0.52124	
-0.523987	
-0.528503	
-0.530029	
-0.533203	
-0.535278	
-0.537476	
-0.538879	
-0.539795	
-0.541016	
-0.540894	
-0.541931	
-0.542786	
-0.541443	
-0.540466	
-0.539124	
-0.538391	
-0.53894	
-0.537109	
-0.535156	
-0.533691	
-0.534302	
-0.53125	
-0.529785	
-0.526733	
-0.526306	
-0.524536	
-0.52301	
-0.52063	
-0.517395	
-0.515015	
-0.512329	
-0.509949	
-0.508179	
-0.505005	
-0.502136	
-0.49884	
-0.496033	
-0.493713	
-0.490173	
-0.487183	
-0.483093	
-0.481445	
-0.477051	
-0.473511	
-0.468689	
-0.466797	
-0.463867	
-0.461121	
-0.458435	
-0.455444	
-0.45282	
-0.449707	
-0.447327	
-0.444946	
-0.441101	
-0.4375	
-0.433594	
-0.430603	
-0.428162	
-0.424194	
-0.420837	
-0.416687	
-0.414124	
-0.410339	
-0.406921	
-0.402649	
-0.399719	
-0.397034	
-0.394653	
-0.392578	
-0.390259	
-0.388611	
-0.386353	
-0.387878	
-0.38739	
-0.385864	
-0.383728	
-0.385864	
-0.387817	
-0.389954	
-0.392456	
-0.395264	
-0.398438	
-0.403076	
-0.406128	
-0.409973	
-0.414246	
-0.417908	
-0.421387	
-0.424744	
-0.429504	
-0.432007	
-0.434692	
-0.4375	
-0.4422	
-0.445007	
-0.447144	
-0.448181	
-0.451172	
-0.45343	
-0.455811	
-0.458252	
-0.459717	
-0.461182	
-0.463989	
-0.464539	
-0.466309	
-0.466858	
-0.468262	
-0.469604	
-0.470947	
-0.471863	
-0.472168	
-0.472473	
-0.471252	
-0.472473	
-0.47229	
-0.470825	
-0.468811	
-0.467712	
-0.466553	
-0.46637	
-0.463806	
-0.462219	
-0.460083	
-0.459045	
-0.455811	
-0.453064	
-0.44989	
-0.447876	
-0.444763	
-0.441528	
-0.438965	
-0.435425	
-0.431824	
-0.428406	
-0.427307	
-0.42511	
-0.42157	
-0.416687	
-0.414368	
-0.411255	
-0.408508	
-0.405334	
-0.400879	
-0.397278	
-0.393127	
-0.389526	
-0.385681	
-0.381836	
-0.377686	
-0.374756	
-0.371399	
-0.368103	
-0.36438	
-0.360657	
-0.357117	
-0.355469	
-0.351929	
-0.348938	
-0.344482	
-0.342285	
-0.340271	
-0.338257	
-0.336304	
-0.334106	
-0.333008	
-0.332825	
-0.332336	
-0.331055	
-0.330261	
-0.330627	
-0.33075	
-0.331482	
-0.332275	
-0.331909	
-0.33197	
-0.33252	
-0.33429	
-0.334229	
-0.335144	
-0.33374	
-0.334778	
-0.335938	
-0.338562	
-0.339844	
-0.341003	
-0.342041	
-0.343811	
-0.345215	
-0.346313	
-0.346313	
-0.346802	
-0.348389	
-0.350403	
-0.351563	
-0.352295	
-0.352661	
-0.354065	
-0.355286	
-0.355469	
-0.354553	
-0.356323	
-0.356628	
-0.356812	
-0.356812	
-0.357178	
-0.357666	
-0.358032	
-0.357971	
-0.358521	
-0.3573	
-0.35791	
-0.357727	
-0.358337	
-0.359436	
-0.358948	
-0.35907	
-0.359924	
-0.360901	
-0.360596	
-0.36084	
-0.360901	
-0.362305	
-0.362793	
-0.364441	
-0.364319	
-0.365112	
-0.365784	
-0.367126	
-0.367981	
-0.367981	
-0.367859	
-0.369873	
-0.370422	
-0.371277	
-0.371826	
-0.372803	
-0.373169	
-0.374695	
-0.375061	
-0.374817	
-0.374512	
-0.374207	
-0.374451	
-0.376099	
-0.376831	
-0.376648	
-0.377075	
-0.377136	
-0.378235	
-0.378479	
-0.376465	
-0.377686	
-0.377197	
-0.378662	
-0.379028	
-0.378235	
-0.37793	
-0.378174	
-0.378601	
-0.378479	
-0.377808	
-0.378296	
-0.378784	
-0.379517	
-0.379272	
-0.379883	
-0.380371	
-0.380859	
-0.382751	
-0.382385	
-0.382446	
-0.381958	
-0.382629	
-0.383606	
-0.384583	
-0.385071	
-0.385437	
-0.386475	
-0.386963	
-0.387512	
-0.387451	
-0.386719	
-0.388062	
-0.387939	
-0.388733	
-0.389587	
-0.389648	
-0.388855	
-0.389893	
-0.39032	
-0.389832	
-0.389099	
-0.388306	
-0.389771	
-0.390015	
-0.390747	
-0.390503	
-0.391174	
-0.391846	
-0.392578	
-0.392517	
-0.392151	
-0.391296	
-0.392273	
-0.392944	
-0.393005	
-0.392639	
-0.392883	
-0.393311	
-0.393677	
-0.393921	
-0.392456	
-0.391785	
-0.391541	
-0.392212	
-0.392029	
-0.391479	
-0.391724	
-0.391174	
-0.390747	
-0.391418	
-0.390686	
-0.389465	
-0.388977	
-0.388	
-0.389221	
-0.389709	
-0.388855	
-0.38916	
-0.389648	
-0.389526	
-0.389465	
-0.387451	
-0.388611	
-0.388855	
-0.38916	
-0.390381	
-0.389587	
-0.389648	
-0.389587	
-0.390503	
-0.39032	
-0.389771	
-0.389099	
-0.389404	
-0.390564	
-0.391785	
-0.391296	
-0.391418	
-0.391418	
-0.392273	
-0.392456	
-0.392639	
-0.391785	
-0.390625	
-0.391174	
-0.392029	
-0.391602	
-0.391724	
-0.391846	
-0.392517	
-0.39209	
-0.392029	
-0.391357	
-0.391724	
-0.391846	
-0.391357	
-0.392517	
-0.39209	
-0.392456	
-0.391968	
-0.393311	
-0.39325	
-0.392456	
-0.392395	
-0.391907	
-0.392517	
-0.392944	
-0.392517	
-0.392761	
-0.392395	
-0.392212	
-0.392456	
-0.392212	
-0.392761	
-0.391785	
-0.391968	
-0.39209	
-0.393127	
-0.392334	
-0.393188	
-0.392944	
-0.392944	
-0.392273	
-0.390991	
-0.39093	
-0.39093	
-0.390808	
-0.391113	
-0.390808	
-0.390442	
-0.390381	
-0.390381	
-0.389954	
-0.390259	
-0.389771	
-0.389465	
-0.388428	
-0.388794	
-0.390076	
-0.388855	
-0.388977	
-0.389465	
-0.39032	
-0.388977	
-0.387756	
-0.388306	
-0.388733	
-0.389221	
-0.388855	
-0.38916	
-0.389404	
-0.390686	
-0.390503	
-0.390442	
-0.39093	
-0.391357	
-0.39032	
-0.390564	
-0.390991	
-0.391907	
-0.391663	
-0.391541	
-0.392334	
-0.392883	
-0.393066	
-0.391724	
-0.392395	
-0.392639	
-0.393127	
-0.392639	
-0.392944	
-0.392761	
-0.392334	
-0.393188	
-0.393188	
-0.392761	
-0.393066	
-0.392517	
-0.392944	
-0.392761	
-0.39386	
-0.393188	
-0.39325	
-0.393799	
-0.393982	
-0.394165	
-0.393311	
-0.392883	
-0.392578	
-0.393494	
-0.394043	
-0.393433	
-0.393799	
-0.393921	
-0.393738	
-0.394287	
-0.39386	
-0.394226	
-0.39325	
-0.393127	
-0.392578	
-0.394165	
-0.393555	
-0.393921	
-0.393921	
-0.39502	
-0.394226	
-0.393372	
-0.392151	
-0.393311	
-0.393555	
-0.393311	
-0.3927	
-0.392761	
-0.392944	
-0.39386	
-0.393127	
-0.393188	
-0.3927	
-0.393066	
-0.393188	
-0.393127	
-0.393188	
-0.392883	
-0.393494	
-0.393311	
-0.393188	
-0.393311	
-0.392212	
-0.391968	
-0.391541	
-0.39209	
-0.390808	
-0.3927	
-0.392273	
-0.391907	
-0.391602	
-0.391785	
-0.391785	
-0.391235	
-0.391296	
-0.390747	
-0.391113	
-0.391602	
-0.391357	
-0.391418	
-0.391479	
-0.392395	
-0.39209	
-0.390991	
-0.390869	
-0.391235	
-0.390564	
-0.390015	
-0.391418	
-0.390442	
-0.390076	
-0.39032	
-0.39032	
-0.391113	
-0.389832	
-0.389893	
-0.388916	
-0.390381	
-0.390381	
-0.390381	
-0.390625	
-0.39093	
-0.391907	
-0.391052	
-0.391235	
-0.389343	
-0.391052	
-0.391418	
-0.39093	
-0.391907	
-0.390991	
-0.390991	
-0.391052	
-0.391052	
-0.391418	
-0.390198	
-0.390991	
-0.390381	
-0.390442	
-0.389954	
-0.391052	
-0.391052	
-0.390747	
-0.39209	
-0.391052	
-0.390686	
-0.389343	
-0.390625	
-0.39032	
-0.390076	
-0.390808	
-0.390076	
-0.390076	
-0.389648	
-0.389832	
-0.390015	
-0.389221	
-0.389709	
-0.389038	
-0.388977	
-0.388489	
-0.389282	
-0.388672	
-0.388855	
-0.389954	
-0.388672	
-0.388733	
-0.38855	
-0.389099	
-0.388855	
-0.389465	
-0.391113	
-0.390747	
-0.39093	
-0.391907	
-0.391907	
-0.392151	
-0.391724	
-0.392578	
-0.391724	
-0.391724	
-0.391418	
-0.3927	
-0.392151	
-0.391846	
-0.392212	
-0.392517	
-0.392944	
-0.391174	
-0.392395	
-0.391357	
-0.392456	
-0.392517	
-0.392273	
-0.39209	
-0.392517	
-0.392517	
-0.39209	
-0.392029	
-0.39209	
-0.391968	
-0.392456	
-0.390808	
-0.393433	
-0.392395	
-0.3927	
-0.39325	
-0.392212	
-0.393066	
-0.391785	
-0.391846	
-0.391052	
-0.391418	
-0.391968	
-0.392334	
-0.391479	
-0.391052	
-0.390625	
-0.39093	
-0.390076	
-0.388855	
-0.389404	
-0.389465	
-0.388123	
-0.38916	
-0.388672	
-0.388855	
-0.389526	
-0.389282	
-0.389893	
-0.388794	
-0.389221	
-0.38916	
-0.388916	
-0.38916	
-0.389465	
-0.389099	
-0.389404	
-0.389343	
-0.389709	
-0.389099	
-0.389648	
-0.389404	
-0.389282	
-0.38855	
-0.389526	
-0.388977	
-0.389282	
-0.389893	
-0.389587	
-0.389893	
-0.388977	
-0.388062	
-0.38855	
-0.388977	
-0.388855	
-0.389526	
-0.388733	
-0.388611	
-0.388794	
-0.389099	
-0.388855	
-0.387939	
-0.387939	
-0.387512	
-0.387329	
-0.388062	
-0.388794	
-0.387756	
-0.388062	
-0.387634	
-0.387695	
-0.387817	
-0.38678	
-0.387512	
-0.387451	
-0.387817	
-0.387634	
-0.38739	
-0.388062	
-0.388306	
-0.388184	
-0.388489	
-0.387451	
-0.388184	
-0.387085	
-0.386841	
-0.387939	
-0.388855	
-0.387695	
-0.387817	
-0.387634	
-0.388306	
-0.388062	
-0.387939	
-0.388306	
-0.388184	
-0.388611	
-0.388977	
-0.388855	
-0.388733	
-0.38916	
-0.388672	
-0.389099	
-0.388	
-0.387024	
-0.38739	
-0.38739	
-0.387817	
-0.388184	
-0.388306	
-0.38855	
-0.388184	
-0.388855	
-0.389038	
-0.388428	
-0.388306	
-0.38855	
-0.388672	
-0.389038	
-0.389221	
-0.388977	
-0.389832	
-0.390076	
-0.389832	
-0.389771	
-0.38855	
-0.389282	
-0.388916	
-0.389648	
-0.39032	
-0.389832	
-0.389771	
-0.390991	
-0.390259	
-0.389526	
-0.388428	
-0.388855	
-0.388123	
-0.386841	
-0.388184	
-0.387817	
-0.387329	
-0.387817	
-0.387573	
-0.387939	
-0.387146	
-0.386292	
-0.386475	
-0.386658	
-0.387085	
-0.387085	
-0.387268	
-0.387146	
-0.387268	
-0.387085	
-0.38678	
-0.386841	
-0.386963	
-0.386719	
-0.386902	
-0.387695	
-0.387329	
-0.387634	
-0.388	
-0.388	
-0.388367	
-0.38739	
-0.387451	
-0.38739	
-0.38739	
-0.387573	
-0.388245	
-0.387756	
-0.387756	
-0.387573	
-0.388	
-0.387756	
-0.388062	
-0.38739	
-0.387939	
-0.387024	
-0.387634	
-0.387817	
-0.387817	
-0.388	
-0.389099	
-0.389282	
-0.38855	
-0.386719	
-0.388123	
-0.389343	
-0.388916	
-0.389648	
-0.388794	
-0.388916	
-0.389282	
-0.389587	
-0.388916	
-0.389282	
-0.389282	
-0.388794	
-0.387634	
-0.388611	
-0.388489	
-0.388733	
-0.388733	
-0.389221	
-0.388733	
-0.388489	
-0.386658	
-0.388	
-0.387695	
-0.388428	
-0.388367	
-0.388367	
-0.388	
-0.388	
-0.388428	
-0.388733	
-0.388733	
-0.386597	
-0.38678	
-0.387024	
-0.388184	
-0.388733	
-0.388123	
-0.388123	
-0.388	
-0.388489	
-0.388672	
-0.387573	
-0.388062	
-0.388245	
-0.38855	
-0.388611	
-0.388428	
-0.388428	
-0.388916	
-0.389465	
-0.389771	
-0.389404	
-0.387817	
-0.388	
-0.387878	
-0.388855	
-0.390137	
-0.389404	
-0.38916	
-0.389587	
-0.389343	
-0.389343	
-0.388306	
-0.38855	
-0.388489	
-0.388306	
-0.388855	
-0.388306	
-0.388184	
-0.388184	
-0.389099	
-0.388611	
-0.388733	
-0.385986	
-0.387329	
-0.387634	
-0.388306	
-0.388367	
-0.388184	
-0.38855	
-0.388916	
-0.388367	
-0.388794	
-0.388672	
-0.388306	
-0.387939	
-0.388855	
-0.38916	
-0.389404	
-0.388855	
-0.388855	
-0.389465	
-0.389954	
-0.389526	
-0.388611	
-0.389709	
-0.389771	
-0.389954	
-0.390381	
-0.390564	
-0.390686	
-0.390625	
-0.391663	
-0.391663	
-0.390747	
-0.388794	
-0.389404	
-0.390137	
-0.391235	
-0.392395	
-0.391663	
-0.391602	
-0.391113	
-0.391357	
-0.39093	
-0.389832	
-0.388916	
-0.388916	
-0.389099	
-0.389038	
-0.388611	
-0.388123	
-0.388367	
-0.389526	
-0.388977	
-0.38855	
-0.38623	
-0.387085	
-0.386902	
-0.387756	
-0.388611	
-0.387451	
-0.387329	
-0.387878	
-0.387878	
-0.387573	
-0.386963	
-0.387085	
-0.387329	
-0.387329	
-0.387146	
-0.387146	
-0.387268	
-0.387329	
-0.387939	
-0.388123	
-0.387634	
-0.386292	
-0.386841	
-0.387024	
-0.387512	
-0.387878	
-0.387207	
-0.387512	
-0.387756	
-0.38855	
-0.389038	
-0.388977	
-0.387695	
-0.387451	
-0.387878	
-0.389404	
-0.390076	
-0.389893	
-0.389893	
-0.390625	
-0.39093	
-0.390625	
-0.390381	
-0.390686	
-0.390625	
-0.39093	
-0.391541	
-0.390503	
-0.390625	
-0.391357	
-0.392395	
-0.39093	
-0.391174	
-0.388489	
-0.389404	
-0.389893	
-0.390198	
-0.390137	
-0.389648	
-0.389526	
-0.389099	
-0.390076	
-0.390259	
-0.389587	
-0.389587	
-0.389832	
-0.390015	
-0.390442	
-0.389954	
-0.390259	
-0.389648	
-0.391235	
-0.391235	
-0.390869	
-0.389832	
-0.38916	
-0.39032	
-0.391113	
-0.391479	
-0.391174	
-0.391296	
-0.390991	
-0.392761	
-0.391968	
-0.391785	
-0.390259	
-0.391663	
-0.391479	
-0.392151	
-0.391968	
-0.391724	
-0.39209	
-0.393188	
-0.393188	
-0.39325	
-0.391907	
-0.391174	
-0.392029	
-0.392212	
-0.392761	
-0.392212	
-0.392151	
-0.391052	
-0.392517	
-0.392029	
-0.392334	
-0.391541	
-0.391541	
-0.390808	
-0.392029	
-0.39209	
-0.391602	
-0.391541	
-0.391541	
-0.3927	
-0.391418	
-0.390991	
-0.389343	
-0.390869	
-0.391479	
-0.392029	
-0.391479	
-0.391846	
-0.392151	
-0.392944	
-0.392273	
-0.392761	
-0.390869	
-0.391663	
-0.391052	
-0.391296	
-0.392273	
-0.391113	
-0.390991	
-0.390991	
-0.392517	
-0.391235	
-0.390808	
-0.390503	
-0.390564	
-0.390503	
-0.390503	
-0.390869	
-0.390564	
-0.390686	
-0.390808	
-0.391296	
-0.391235	
-0.390015	
-0.388855	
-0.390259	
-0.390869	
-0.39093	
-0.390686	
-0.391174	
-0.390991	
-0.392639	
-0.391968	
-0.392578	
-0.391052	
-0.392273	
-0.391785	
-0.3927	
-0.394104	
-0.393494	
-0.393555	
-0.393738	
-0.394714	
-0.39386	
-0.393555	
-0.392334	
-0.394104	
-0.393799	
-0.393982	
-0.394104	
-0.393738	
-0.393921	
-0.394958	
-0.393677	
-0.393616	
-0.391846	
-0.392395	
-0.392151	
-0.393127	
-0.392517	
-0.392517	
-0.3927	
-0.392883	
-0.394409	
-0.392456	
-0.392334	
-0.390564	
-0.392822	
-0.39325	
-0.393005	
-0.393616	
-0.392822	
-0.392517	
-0.392273	
-0.392334	
-0.392395	
-0.391846	
-0.392578	
-0.391968	
-0.392273	
-0.392761	
-0.392578	
-0.392151	
-0.392456	
-0.394836	
-0.392273	
-0.392456	
-0.391052	
-0.3927	
-0.391724	
-0.392456	
-0.391968	
-0.391602	
-0.391907	
-0.391602	
-0.392456	
-0.391785	
-0.391602	
-0.389771	
-0.391602	
-0.391663	
-0.391968	
-0.39209	
-0.392212	
-0.392151	
-0.392761	
-0.391907	
-0.392334	
-0.391174	
-0.391724	
-0.391724	
-0.392151	
-0.392639	
-0.392151	
-0.391479	
-0.392334	
-0.393921	
-0.392212	
-0.392578	
-0.39032	
-0.391724	
-0.390442	
-0.391663	
-0.392395	
-0.391785	
-0.391724	
-0.391052	
-0.392456	
-0.392212	
-0.391235	
-0.390808	
-0.391235	
-0.390991	
-0.391113	
-0.390747	
-0.390686	
-0.390625	
-0.392029	
-0.390503	
-0.391113	
-0.389099	
-0.390076	
-0.390808	
-0.391113	
-0.391724	
-0.390869	
-0.391357	
-0.391235	
-0.392151	
-0.391296	
-0.392029	
-0.390503	
-0.391052	
-0.390747	
-0.391602	
-0.391235	
-0.391235	
-0.39093	
-0.392517	
-0.391968	
-0.390869	
-0.389771	
-0.390137	
-0.390869	
-0.390808	
-0.391541	
-0.39093	
-0.390686	
-0.390869	
-0.391724	
-0.390686	
-0.390991	
-0.389832	
-0.390442	
-0.389648	
-0.390198	
-0.390625	
-0.389771	
-0.389221	
-0.389038	
-0.389954	
-0.388855	
-0.388672	
-0.38739	
-0.388123	
-0.388062	
-0.388428	
-0.388	
-0.388123	
-0.388	
-0.389465	
-0.388794	
-0.38855	
-0.387207	
-0.387268	
-0.38855	
-0.389099	
-0.390076	
-0.38916	
-0.39032	
-0.390381	
-0.391357	
-0.39093	
-0.391235	
-0.389709	
-0.391113	
-0.389709	
-0.391296	
-0.391235	
-0.391602	
-0.392151	
-0.392456	
-0.392334	
-0.392273	
-0.391541	
-0.391724	
-0.391724	
-0.391785	
-0.392395	
-0.392212	
-0.391907	
-0.391907	
-0.393005	
-0.393188	
-0.393188	
-0.391602	
-0.391235	
-0.392395	
-0.392822	
-0.392944	
-0.392212	
-0.391724	
-0.391907	
-0.392517	
-0.392395	
-0.391724	
-0.391602	
-0.391785	
-0.391724	
-0.39209	
-0.391357	
-0.390686	
-0.390991	
-0.392212	
-0.39032	
-0.390808	
-0.388123	
-0.389282	
-0.389099	
-0.389282	
-0.390015	
-0.389282	
-0.388916	
-0.388611	
-0.389282	
-0.390808	
-0.38916	
-0.388794	
-0.388916	
-0.389221	
-0.389587	
-0.389404	
-0.389893	
-0.389648	
-0.389832	
-0.389893	
-0.390137	
-0.389038	
-0.389465	
-0.388672	
-0.389648	
-0.390137	
-0.389587	
-0.389099	
-0.389709	
-0.390198	
-0.389893	
-0.389465	
-0.387329	
-0.389221	
-0.388	
-0.388733	
-0.389709	
-0.388367	
-0.388245	
-0.388611	
-0.38855	
-0.388855	
-0.387329	
-0.387878	
-0.387451	
-0.387695	
-0.387695	
-0.387329	
-0.387512	
-0.38739	
-0.388184	
-0.387817	
-0.388611	
-0.385559	
-0.386719	
-0.384949	
-0.387085	
-0.387451	
-0.386902	
-0.387207	
-0.387146	
-0.387329	
-0.38739	
-0.387268	
-0.387085	
-0.386841	
-0.387024	
-0.387207	
-0.387329	
-0.386841	
-0.386597	
-0.387756	
-0.38739	
-0.388428	
-0.386414	
-0.387512	
-0.38678	
-0.38739	
-0.387695	
-0.387634	
-0.387329	
-0.387146	
-0.387573	
-0.387146	
-0.386902	
-0.385803	
-0.386963	
-0.38562	
-0.386841	
-0.387939	
-0.387268	
-0.387268	
-0.38739	
-0.387146	
-0.388	
-0.387756	
-0.38739	
-0.386719	
-0.387878	
-0.387939	
-0.38739	
-0.387878	
-0.388367	
-0.389893	
-0.388062	
-0.389404	
-0.386414	
-0.387878	
-0.387268	
-0.388184	
-0.388733	
-0.388611	
-0.388672	
-0.388794	
-0.388062	
-0.387817	
-0.387878	
-0.386841	
-0.386658	
-0.385376	
-0.386475	
-0.386475	
-0.386597	
-0.386169	
-0.386169	
-0.385864	
-0.38678	
-0.385254	
-0.385376	
-0.385132	
-0.385559	
-0.385498	
-0.385071	
-0.384949	
-0.385498	
-0.386475	
-0.38562	
-0.386047	
-0.383301	
-0.385254	
-0.385071	
-0.385986	
-0.386658	
-0.385742	
-0.385864	
-0.385864	
-0.386658	
-0.385742	
-0.386047	
-0.385559	
-0.385742	
-0.384583	
-0.385742	
-0.385742	
-0.385681	
-0.386353	
-0.387573	
-0.385559	
-0.386658	
-0.38501	
-0.385742	
-0.385071	
-0.385925	
-0.387146	
-0.386536	
-0.386292	
-0.385376	
-0.386902	
-0.387451	
-0.387634	
-0.385559	
-0.386902	
-0.387207	
-0.387634	
-0.387268	
-0.387573	
-0.387207	
-0.388672	
-0.388245	
-0.387573	
-0.387512	
-0.38739	
-0.387146	
-0.38623	
-0.387878	
-0.387329	
-0.386902	
-0.386536	
-0.388672	
-0.386841	
-0.388062	
-0.385437	
-0.386902	
-0.385193	
-0.387024	
-0.387268	
-0.386719	
-0.386658	
-0.387634	
-0.38739	
-0.387573	
-0.386658	
-0.386475	
-0.386536	
-0.38623	
-0.387573	
-0.386719	
-0.386719	
-0.386108	
-0.388123	
-0.387573	
-0.388123	
-0.386169	
-0.386841	
-0.385681	
-0.387085	
-0.386841	
-0.386841	
-0.387146	
-0.387268	
-0.388489	
-0.388245	
-0.388306	
-0.386475	
-0.387207	
-0.387329	
-0.388916	
-0.387573	
-0.387756	
-0.387573	
-0.388733	
-0.387695	
-0.387756	
-0.387085	
-0.387207	
-0.385742	
-0.387024	
-0.387695	
-0.387268	
-0.386475	
-0.386414	
-0.388733	
-0.387512	
-0.387329	
-0.385864	
-0.386841	
-0.386414	
-0.387878	
-0.387268	
-0.387207	
-0.387085	
-0.387634	
-0.387939	
-0.387756	
-0.38739	
-0.386475	
-0.386536	
-0.387939	
-0.388245	
-0.387756	
-0.387817	
-0.387024	
-0.388977	
-0.388428	
-0.389404	
-0.388428	
-0.38855	
-0.388489	
-0.389587	
-0.389954	
-0.389709	
-0.389465	
-0.390259	
-0.391479	
-0.391174	
-0.389771	
-0.388123	
-0.389771	
-0.389954	
-0.391174	
-0.390015	
-0.389771	
-0.389771	
-0.389832	
-0.388916	
-0.389648	
-0.387878	
-0.388	
-0.386536	
-0.387451	
-0.387329	
-0.386658	
-0.386719	
-0.386414	
-0.388367	
-0.387207	
-0.387329	
-0.386169	
-0.386536	
-0.385437	
-0.387085	
-0.386292	
-0.386108	
-0.386108	
-0.386536	
-0.387207	
-0.387146	
-0.385742	
-0.38501	
-0.385681	
-0.386353	
-0.386902	
-0.386536	
-0.386047	
-0.385376	
-0.387146	
-0.385925	
-0.387085	
-0.385437	
-0.385986	
-0.38501	
-0.386536	
-0.386719	
-0.387268	
-0.387268	
-0.387085	
-0.388672	
-0.388428	
-0.387573	
-0.385925	
-0.387878	
-0.387634	
-0.390198	
-0.388977	
-0.389221	
-0.388672	
-0.390259	
-0.39032	
-0.390625	
-0.389648	
-0.389771	
-0.388855	
-0.390442	
-0.390625	
-0.390137	
-0.389832	
-0.390564	
-0.391785	
-0.389954	
-0.390442	
-0.388611	
-0.389343	
-0.388733	
-0.390198	
-0.389771	
-0.389526	
-0.388489	
-0.389587	
-0.390137	
-0.390564	
-0.389404	
	
