E:\DOCUMENTS AND SETTINGS\JPOTAS\MEUS DOCUMENTOS\UFRJ\RSCI-BM 12 WK SERIES\070720-RSCI-BM-04\RSCI-BM-04-REMG\070720-RSCI-BM-REMG-0007.ACQ
0.025000 msec/sample
1 channel
Analog input
Volts
CH1	
2000	
-0.392639	
-0.393372	
-0.392517	
-0.3927	
-0.392395	
-0.393677	
-0.393555	
-0.393066	
-0.392944	
-0.394348	
-0.393372	
-0.39447	
-0.393677	
-0.394043	
-0.393799	
-0.393433	
-0.39563	
-0.393982	
-0.394043	
-0.392151	
-0.393738	
-0.393921	
-0.393982	
-0.394226	
-0.394043	
-0.393066	
-0.393921	
-0.393311	
-0.393738	
-0.392761	
-0.393555	
-0.393005	
-0.393372	
-0.393127	
-0.392456	
-0.392517	
-0.391907	
-0.394043	
-0.392578	
-0.392517	
-0.391785	
-0.39209	
-0.391785	
-0.392578	
-0.391479	
-0.390991	
-0.390015	
-0.39032	
-0.391418	
-0.390869	
-0.390198	
-0.389587	
-0.389465	
-0.389893	
-0.389465	
-0.389221	
-0.389038	
-0.388977	
-0.390259	
-0.388672	
-0.38916	
-0.388794	
-0.389282	
-0.38916	
-0.389832	
-0.390564	
-0.389893	
-0.389587	
-0.39032	
-0.391541	
-0.390869	
-0.390808	
-0.389709	
-0.391174	
-0.391235	
-0.392273	
-0.392151	
-0.391785	
-0.391541	
-0.392334	
-0.39386	
-0.392944	
-0.393311	
-0.39447	
-0.394165	
-0.394531	
-0.39325	
-0.393921	
-0.393921	
-0.394409	
-0.395996	
-0.394287	
-0.394287	
-0.39447	
-0.39447	
-0.394836	
-0.395264	
-0.394897	
-0.394287	
-0.393005	
-0.394043	
-0.394226	
-0.39386	
-0.393372	
-0.392029	
-0.392395	
-0.392334	
-0.391541	
-0.391724	
-0.390503	
-0.390198	
-0.389221	
-0.389282	
-0.388855	
-0.387817	
-0.388	
-0.387634	
-0.388062	
-0.387451	
-0.387329	
-0.387329	
-0.387512	
-0.389038	
-0.386963	
-0.38678	
-0.386169	
-0.386841	
-0.38739	
-0.387634	
-0.38739	
-0.387085	
-0.386353	
-0.387512	
-0.387756	
-0.387268	
-0.387329	
-0.388428	
-0.388306	
-0.388306	
-0.387756	
-0.389282	
-0.389038	
-0.388733	
-0.388611	
-0.389404	
-0.390015	
-0.389404	
-0.39032	
-0.390381	
-0.390991	
-0.390747	
-0.390076	
-0.389587	
-0.391174	
-0.392517	
-0.391418	
-0.391174	
-0.389893	
-0.391418	
-0.391541	
-0.391846	
-0.392822	
-0.391846	
-0.392151	
-0.392395	
-0.392151	
-0.39209	
-0.391907	
-0.392944	
-0.392029	
-0.392944	
-0.391418	
-0.392578	
-0.391052	
-0.392029	
-0.393127	
-0.391479	
-0.391113	
-0.389709	
-0.390869	
-0.391113	
-0.390381	
-0.391296	
-0.390808	
-0.391113	
-0.391602	
-0.390686	
-0.391479	
-0.39093	
-0.391602	
-0.390747	
-0.391174	
-0.390625	
-0.391602	
-0.390015	
-0.390503	
-0.391052	
-0.389893	
-0.389465	
-0.388428	
-0.389465	
-0.389832	
-0.389343	
-0.389404	
-0.390442	
-0.390259	
-0.39093	
-0.389587	
-0.389709	
-0.389587	
-0.38916	
-0.389465	
-0.390442	
-0.389526	
-0.390015	
-0.389771	
-0.390564	
-0.390137	
-0.389648	
-0.389832	
-0.389282	
-0.391357	
-0.390564	
-0.390198	
-0.390076	
-0.391846	
-0.391113	
-0.391968	
-0.391663	
-0.391663	
-0.391541	
-0.392334	
-0.392517	
-0.392273	
-0.391785	
-0.392029	
-0.392456	
-0.392151	
-0.393494	
-0.392334	
-0.392639	
-0.392151	
-0.392822	
-0.393677	
-0.394958	
-0.39386	
-0.39447	
-0.39325	
-0.394043	
-0.394653	
-0.393921	
-0.393188	
-0.392395	
-0.393372	
-0.392883	
-0.391785	
-0.39032	
-0.391663	
-0.389893	
-0.390076	
-0.389282	
-0.388672	
-0.388428	
-0.387695	
-0.388062	
-0.388794	
-0.387695	
-0.388062	
-0.387695	
-0.387939	
-0.388428	
-0.388184	
-0.38739	
-0.386597	
-0.38855	
-0.387451	
-0.388123	
-0.388123	
-0.388489	
-0.387329	
-0.389282	
-0.390076	
-0.390015	
-0.39032	
-0.389954	
-0.392395	
-0.393616	
-0.394287	
-0.394836	
-0.396545	
-0.398376	
-0.400574	
-0.401855	
-0.403687	
-0.40564	
-0.409607	
-0.412109	
-0.414673	
-0.416443	
-0.419678	
-0.422363	
-0.42572	
-0.427551	
-0.430603	
-0.433105	
-0.436218	
-0.438721	
-0.441895	
-0.444031	
-0.44751	
-0.449158	
-0.452209	
-0.453552	
-0.456299	
-0.458557	
-0.460388	
-0.463684	
-0.466675	
-0.46875	
-0.472778	
-0.475403	
-0.479492	
-0.483215	
-0.485107	
-0.488831	
-0.490601	
-0.496826	
-0.500183	
-0.503906	
-0.507141	
-0.511536	
-0.515015	
-0.519104	
-0.520691	
-0.524536	
-0.526428	
-0.529663	
-0.53125	
-0.532898	
-0.533142	
-0.535461	
-0.534668	
-0.536438	
-0.53656	
-0.536377	
-0.536255	
-0.536255	
-0.537231	
-0.536316	
-0.535339	
-0.533569	
-0.53363	
-0.532166	
-0.532532	
-0.530151	
-0.528931	
-0.526917	
-0.527344	
-0.526245	
-0.524536	
-0.522217	
-0.521118	
-0.517395	
-0.516418	
-0.51239	
-0.510437	
-0.507874	
-0.505005	
-0.502563	
-0.499695	
-0.495667	
-0.491333	
-0.48822	
-0.484985	
-0.482788	
-0.478027	
-0.474182	
-0.468933	
-0.466858	
-0.462952	
-0.459656	
-0.455505	
-0.452881	
-0.447998	
-0.44574	
-0.441895	
-0.437683	
-0.433044	
-0.428711	
-0.426025	
-0.420715	
-0.414978	
-0.409241	
-0.40387	
-0.398743	
-0.394226	
-0.387451	
-0.381958	
-0.377075	
-0.372192	
-0.367981	
-0.364807	
-0.359863	
-0.357178	
-0.354065	
-0.351624	
-0.35022	
-0.34668	
-0.344849	
-0.340698	
-0.34198	
-0.340393	
-0.339478	
-0.338928	
-0.338562	
-0.338989	
-0.3396	
-0.338074	
-0.339905	
-0.340393	
-0.341736	
-0.342285	
-0.344177	
-0.344482	
-0.346191	
-0.345886	
-0.347412	
-0.347351	
-0.348999	
-0.349182	
-0.35083	
-0.351563	
-0.3526	
-0.352417	
-0.352173	
-0.352966	
-0.354614	
-0.355469	
-0.355164	
-0.356323	
-0.356445	
-0.359436	
-0.359985	
-0.361145	
-0.362	
-0.363647	
-0.364502	
-0.366638	
-0.365723	
-0.366272	
-0.365601	
-0.368286	
-0.368042	
-0.368591	
-0.369263	
-0.369873	
-0.370117	
-0.371399	
-0.370544	
-0.371704	
-0.371521	
-0.372681	
-0.372681	
-0.373962	
-0.372742	
-0.374023	
-0.372314	
-0.373901	
-0.373108	
-0.373901	
-0.373962	
-0.37439	
-0.375061	
-0.375	
-0.374146	
-0.373718	
-0.373718	
-0.374512	
-0.375122	
-0.375061	
-0.375671	
-0.374756	
-0.376953	
-0.376953	
-0.377319	
-0.378113	
-0.378784	
-0.38031	
-0.382507	
-0.382019	
-0.382935	
-0.382874	
-0.386414	
-0.388428	
-0.390198	
-0.392029	
-0.394836	
-0.396362	
-0.399475	
-0.39978	
-0.402771	
-0.404053	
-0.406555	
-0.408752	
-0.411499	
-0.412964	
-0.415344	
-0.416138	
-0.419983	
-0.422058	
-0.425232	
-0.427063	
-0.429932	
-0.432739	
-0.43573	
-0.437866	
-0.441223	
-0.44458	
-0.450134	
-0.453613	
-0.458252	
-0.461914	
-0.467346	
-0.472168	
-0.476379	
-0.48053	
-0.48407	
-0.489136	
-0.494141	
-0.497803	
-0.501282	
-0.503784	
-0.506104	
-0.509888	
-0.512756	
-0.514465	
-0.516541	
-0.519348	
-0.520752	
-0.523254	
-0.522278	
-0.523682	
-0.522827	
-0.52533	
-0.525085	
-0.525513	
-0.523315	
-0.523743	
-0.520874	
-0.52179	
-0.519226	
-0.517334	
-0.515564	
-0.514343	
-0.513	
-0.51001	
-0.50708	
-0.504578	
-0.502197	
-0.49939	
-0.496216	
-0.492188	
-0.48938	
-0.484863	
-0.482788	
-0.480042	
-0.476746	
-0.472778	
-0.469299	
-0.46405	
-0.462402	
-0.457092	
-0.453491	
-0.448669	
-0.445435	
-0.442261	
-0.43811	
-0.433777	
-0.429016	
-0.425781	
-0.422546	
-0.418396	
-0.413452	
-0.409424	
-0.404602	
-0.400757	
-0.395996	
-0.392456	
-0.386841	
-0.383301	
-0.377136	
-0.374634	
-0.368591	
-0.364258	
-0.360291	
-0.356567	
-0.352966	
-0.349304	
-0.34613	
-0.343201	
-0.341919	
-0.340576	
-0.340454	
-0.338257	
-0.339417	
-0.337952	
-0.340149	
-0.340393	
-0.341431	
-0.34137	
-0.343384	
-0.342529	
-0.345642	
-0.344055	
-0.346313	
-0.346252	
-0.348267	
-0.349548	
-0.350891	
-0.350952	
-0.351929	
-0.352417	
-0.354065	
-0.354553	
-0.355591	
-0.355408	
-0.35614	
-0.357727	
-0.356995	
-0.356995	
-0.356506	
-0.356445	
-0.356812	
-0.35614	
-0.356262	
-0.356384	
-0.356384	
-0.357483	
-0.357117	
-0.357422	
-0.357056	
-0.356812	
-0.3573	
-0.35791	
-0.356384	
-0.357788	
-0.356079	
-0.358643	
-0.358948	
-0.359924	
-0.359741	
-0.361328	
-0.361572	
-0.363525	
-0.362061	
-0.363342	
-0.363159	
-0.364197	
-0.364624	
-0.365723	
-0.365906	
-0.366943	
-0.366333	
-0.367188	
-0.367371	
-0.367371	
-0.367004	
-0.36731	
-0.368286	
-0.368652	
-0.367676	
-0.368225	
-0.367981	
-0.369568	
-0.369629	
-0.369629	
-0.369934	
-0.369385	
-0.371765	
-0.372253	
-0.371765	
-0.372314	
-0.37262	
-0.373657	
-0.375	
-0.373474	
-0.374878	
-0.37439	
-0.376587	
-0.377197	
-0.376648	
-0.377075	
-0.378296	
-0.378052	
-0.379333	
-0.377869	
-0.378418	
-0.378113	
-0.378723	
-0.379456	
-0.379333	
-0.37915	
-0.379517	
-0.380188	
-0.380432	
-0.380249	
-0.380676	
-0.380371	
-0.380493	
-0.382141	
-0.381287	
-0.381653	
-0.381104	
-0.382202	
-0.38208	
-0.383545	
-0.382263	
-0.382446	
-0.38208	
-0.383972	
-0.384094	
-0.384155	
-0.383972	
-0.384338	
-0.384521	
-0.385498	
-0.385254	
-0.385254	
-0.38562	
-0.386353	
-0.387207	
-0.387329	
-0.387207	
-0.387085	
-0.38855	
-0.389526	
-0.390564	
-0.389404	
-0.390381	
-0.389832	
-0.392151	
-0.391541	
-0.391724	
-0.391296	
-0.393127	
-0.393372	
-0.394653	
-0.393188	
-0.39447	
-0.393311	
-0.395691	
-0.394226	
-0.394165	
-0.393188	
-0.395569	
-0.394226	
-0.395264	
-0.39386	
-0.394653	
-0.393127	
-0.395752	
-0.393982	
-0.393555	
-0.392334	
-0.39386	
-0.393311	
-0.394043	
-0.393127	
-0.392761	
-0.392334	
-0.392334	
-0.39209	
-0.391052	
-0.390381	
-0.39032	
-0.389587	
-0.389099	
-0.388672	
-0.387329	
-0.386414	
-0.385864	
-0.386353	
-0.385681	
-0.385193	
-0.384827	
-0.386292	
-0.385681	
-0.385864	
-0.384888	
-0.384766	
-0.384033	
-0.386414	
-0.385559	
-0.385498	
-0.383301	
-0.384949	
-0.385559	
-0.385742	
-0.38501	
-0.384338	
-0.384399	
-0.385376	
-0.384583	
-0.384888	
-0.38446	
-0.385315	
-0.385864	
-0.385315	
-0.385986	
-0.384216	
-0.38501	
-0.385193	
-0.386292	
-0.385803	
-0.385925	
-0.384705	
-0.385986	
-0.38623	
-0.387634	
-0.386658	
-0.386414	
-0.385925	
-0.387756	
-0.387329	
-0.387268	
-0.386047	
-0.387085	
-0.388611	
-0.388367	
-0.388428	
-0.388	
-0.388062	
-0.388245	
-0.388794	
-0.387878	
-0.387512	
-0.387512	
-0.388367	
-0.387634	
-0.388	
-0.387268	
-0.387024	
-0.385986	
-0.387146	
-0.386047	
-0.385925	
-0.385193	
-0.385498	
-0.386658	
-0.385803	
-0.386292	
-0.38562	
-0.386475	
-0.386902	
-0.38739	
-0.38678	
-0.386719	
-0.385925	
-0.387024	
-0.387451	
-0.388	
-0.387207	
-0.387268	
-0.386658	
-0.387207	
-0.387573	
-0.386902	
-0.386902	
-0.386902	
-0.38739	
-0.387024	
-0.387329	
-0.385742	
-0.385803	
-0.386475	
-0.387695	
-0.385864	
-0.385559	
-0.385071	
-0.386475	
-0.386108	
-0.386719	
-0.385864	
-0.38623	
-0.385559	
-0.38678	
-0.385742	
-0.386353	
-0.385803	
-0.38678	
-0.387695	
-0.387451	
-0.387817	
-0.38623	
-0.387695	
-0.388123	
-0.38855	
-0.388428	
-0.388306	
-0.388123	
-0.388977	
-0.389221	
-0.389343	
-0.388672	
-0.388855	
-0.388672	
-0.390747	
-0.389954	
-0.390259	
-0.38916	
-0.390259	
-0.390991	
-0.391052	
-0.391235	
-0.388977	
-0.390015	
-0.390137	
-0.390015	
-0.390198	
-0.389282	
-0.388733	
-0.388672	
-0.388245	
-0.38739	
-0.386658	
-0.38623	
-0.385986	
-0.387573	
-0.385681	
-0.384827	
-0.383789	
-0.384888	
-0.385986	
-0.385315	
-0.385132	
-0.383362	
-0.384216	
-0.384277	
-0.384827	
-0.384216	
-0.383911	
-0.383484	
-0.384399	
-0.384216	
-0.38446	
-0.384521	
-0.383911	
-0.383972	
-0.384521	
-0.384338	
-0.384155	
-0.383606	
-0.384583	
-0.385071	
-0.385193	
-0.384827	
-0.383606	
-0.383728	
-0.384766	
-0.385437	
-0.385071	
-0.38501	
-0.384521	
-0.385986	
-0.387085	
-0.387085	
-0.387573	
-0.386841	
-0.387756	
-0.386963	
-0.387878	
-0.38739	
-0.387756	
-0.388855	
-0.389587	
-0.389832	
-0.389526	
-0.389343	
-0.388489	
-0.390503	
-0.390564	
-0.389526	
-0.389038	
-0.389404	
-0.389404	
-0.390198	
-0.389465	
-0.390137	
-0.387085	
-0.388672	
-0.387817	
-0.388428	
-0.387512	
-0.38739	
-0.386841	
-0.388794	
-0.388123	
-0.387329	
-0.387024	
-0.387451	
-0.387939	
-0.387756	
-0.387268	
-0.386536	
-0.387451	
-0.388062	
-0.388733	
-0.387207	
-0.387573	
-0.385437	
-0.38678	
-0.38623	
-0.387207	
-0.385681	
-0.385681	
-0.384766	
-0.386719	
-0.385803	
-0.385498	
-0.385132	
-0.385498	
-0.386902	
-0.386108	
-0.385803	
-0.385132	
-0.385071	
-0.385864	
-0.386414	
-0.386169	
-0.386414	
-0.38446	
-0.385681	
-0.384338	
-0.386536	
-0.385986	
-0.38501	
-0.384338	
-0.386597	
-0.385559	
-0.385925	
-0.384949	
-0.385864	
-0.38623	
-0.386597	
-0.386719	
-0.38623	
-0.386536	
-0.387207	
-0.388306	
-0.38739	
-0.387756	
-0.386108	
-0.387939	
-0.38739	
-0.38855	
-0.38739	
-0.386719	
-0.387085	
-0.388123	
-0.387451	
-0.387085	
-0.386841	
-0.386536	
-0.386169	
-0.385925	
-0.385559	
-0.385742	
-0.384827	
-0.385254	
-0.386047	
-0.38446	
-0.385254	
-0.383301	
-0.383728	
-0.384399	
-0.384888	
-0.383911	
-0.382324	
-0.382446	
-0.383484	
-0.382813	
-0.382385	
-0.381897	
-0.38092	
-0.38208	
-0.381104	
-0.381714	
-0.381287	
-0.381409	
-0.381287	
-0.381958	
-0.381165	
-0.381348	
-0.380005	
-0.381226	
-0.381775	
-0.381653	
-0.381165	
-0.381104	
-0.381165	
-0.382141	
-0.383057	
-0.382385	
-0.382813	
-0.382202	
-0.383301	
-0.383057	
-0.383972	
-0.384705	
-0.38446	
-0.386047	
-0.387512	
-0.386292	
-0.387329	
-0.387695	
-0.388062	
-0.388489	
-0.38916	
-0.38855	
-0.388306	
-0.387817	
-0.388489	
-0.389221	
-0.388489	
-0.389221	
-0.388123	
-0.389221	
-0.388977	
-0.388977	
-0.388794	
-0.387695	
-0.388855	
-0.389404	
-0.389404	
-0.388977	
-0.388306	
-0.387512	
-0.388672	
-0.38916	
-0.388428	
-0.387756	
-0.387268	
-0.387817	
-0.388245	
-0.387695	
-0.387817	
-0.385864	
-0.386414	
-0.385986	
-0.385437	
-0.385803	
-0.384583	
-0.385498	
-0.385498	
-0.385742	
-0.385376	
-0.38446	
-0.383972	
-0.384766	
-0.384949	
-0.384521	
-0.384338	
-0.383789	
-0.384094	
-0.385254	
-0.384094	
-0.385071	
-0.382996	
-0.384033	
-0.384399	
-0.384888	
-0.384705	
-0.384216	
-0.383728	
-0.384766	
-0.385437	
-0.384888	
-0.384705	
-0.384766	
-0.385132	
-0.386292	
-0.385132	
-0.38446	
-0.385193	
-0.385193	
-0.386108	
-0.385742	
-0.385864	
-0.384277	
-0.384766	
-0.38562	
-0.385864	
-0.385254	
-0.385315	
-0.38385	
-0.385315	
-0.386292	
-0.385498	
-0.385681	
-0.385315	
-0.385437	
-0.384888	
-0.385742	
-0.385986	
-0.38562	
-0.386536	
-0.387146	
-0.386902	
-0.387207	
-0.385376	
-0.385803	
-0.387451	
-0.387573	
-0.386841	
-0.38623	
-0.385437	
-0.387146	
-0.386719	
-0.386536	
-0.386719	
-0.386169	
-0.386414	
-0.385315	
-0.386353	
-0.385986	
-0.385193	
-0.385681	
-0.386108	
-0.386292	
-0.385315	
-0.384521	
-0.384277	
-0.384766	
-0.385559	
-0.38501	
-0.384766	
-0.383606	
-0.385864	
-0.385254	
-0.384705	
-0.384644	
-0.384155	
-0.383911	
-0.384338	
-0.383789	
-0.383545	
-0.382874	
-0.384094	
-0.384216	
-0.38446	
-0.384705	
-0.38385	
-0.384949	
-0.385681	
-0.387146	
-0.386902	
-0.387085	
-0.386963	
-0.388855	
-0.38916	
-0.389709	
-0.389832	
-0.389771	
-0.389404	
-0.390869	
-0.390747	
-0.390137	
-0.389282	
-0.390991	
-0.391479	
-0.391418	
-0.391907	
-0.390137	
-0.391113	
-0.391235	
-0.39209	
-0.391235	
-0.390991	
-0.390259	
-0.391479	
-0.39093	
-0.392151	
-0.391357	
-0.391052	
-0.390381	
-0.391663	
-0.391418	
-0.39093	
-0.389832	
-0.390808	
-0.391663	
-0.391296	
-0.391663	
-0.389709	
-0.390198	
-0.389709	
-0.390686	
-0.389343	
-0.389221	
-0.387451	
-0.388794	
-0.387939	
-0.388306	
-0.38739	
-0.387573	
-0.387085	
-0.387573	
-0.387573	
-0.387085	
-0.385315	
-0.386658	
-0.387146	
-0.386597	
-0.387878	
-0.385681	
-0.386719	
-0.385925	
-0.387512	
-0.386658	
-0.386841	
-0.386414	
-0.388428	
-0.387695	
-0.388489	
-0.388245	
-0.388184	
-0.388306	
-0.38916	
-0.388611	
-0.388733	
-0.388245	
-0.388306	
-0.389099	
-0.389221	
-0.390381	
-0.38855	
-0.38916	
-0.388428	
-0.390076	
-0.389832	
-0.389526	
-0.388306	
-0.390259	
-0.389954	
-0.390442	
-0.390503	
-0.390442	
-0.390198	
-0.390442	
-0.390564	
-0.390076	
-0.390076	
-0.39093	
-0.390503	
-0.390259	
-0.391174	
-0.389099	
-0.390259	
-0.388977	
-0.390686	
-0.389526	
-0.389832	
-0.388	
-0.389771	
-0.389404	
-0.389587	
-0.390015	
-0.389282	
-0.388977	
-0.389587	
-0.38916	
-0.389099	
-0.388245	
-0.388855	
-0.389282	
-0.388489	
-0.388123	
-0.387085	
-0.387512	
-0.38623	
-0.387451	
-0.38678	
-0.386719	
-0.384277	
-0.38678	
-0.385864	
-0.386108	
-0.385742	
-0.385681	
-0.38501	
-0.38562	
-0.385437	
-0.385071	
-0.384644	
-0.385254	
-0.386169	
-0.38562	
-0.386719	
-0.385864	
-0.386353	
-0.385315	
-0.387329	
-0.387024	
-0.387024	
-0.385071	
-0.388245	
-0.388062	
-0.388611	
-0.388245	
-0.388306	
-0.388733	
-0.390259	
-0.389648	
-0.389832	
-0.389771	
-0.390381	
-0.391907	
-0.390869	
-0.391968	
-0.391052	
-0.391113	
-0.390747	
-0.393127	
-0.391418	
-0.391785	
-0.390015	
-0.39209	
-0.391846	
-0.392151	
-0.391602	
-0.392029	
-0.391296	
-0.391418	
-0.389832	
-0.391418	
-0.390503	
-0.390259	
-0.390991	
-0.390015	
-0.390015	
-0.38916	
-0.388672	
-0.387634	
-0.38855	
-0.387207	
-0.386475	
-0.385498	
-0.386047	
-0.385498	
-0.385559	
-0.38562	
-0.38562	
-0.385132	
-0.384888	
-0.385071	
-0.384766	
-0.384521	
-0.383911	
-0.385376	
-0.38501	
-0.385742	
-0.384399	
-0.384644	
-0.384888	
-0.38562	
-0.383972	
-0.384888	
-0.384094	
-0.385498	
-0.385986	
-0.38562	
-0.385742	
-0.386475	
-0.385925	
-0.385986	
-0.387329	
-0.386963	
-0.38678	
-0.386963	
-0.388245	
-0.388	
-0.388733	
-0.387817	
-0.388489	
-0.387878	
-0.389099	
-0.387512	
-0.388611	
-0.387451	
-0.388916	
-0.389221	
-0.389587	
-0.389709	
-0.389343	
-0.389648	
-0.390076	
-0.390076	
-0.389648	
-0.389954	
-0.389465	
-0.390137	
-0.389648	
-0.390991	
-0.389954	
-0.391235	
-0.389709	
-0.390137	
-0.390503	
-0.389832	
-0.388855	
-0.388428	
-0.389709	
-0.389099	
-0.38916	
-0.388855	
-0.388855	
-0.389526	
-0.38855	
-0.388062	
-0.388367	
-0.38916	
-0.389771	
-0.388672	
-0.389587	
-0.388794	
-0.388977	
-0.388245	
-0.388672	
-0.389221	
-0.38855	
-0.388062	
-0.388184	
-0.389221	
-0.388733	
-0.388489	
-0.38739	
-0.388733	
-0.388306	
-0.388	
-0.387024	
-0.387573	
-0.387695	
-0.387573	
-0.388	
-0.387756	
-0.387573	
-0.387695	
-0.386597	
-0.387878	
-0.387878	
-0.38739	
-0.386719	
-0.387207	
-0.388611	
-0.387939	
-0.387634	
-0.387085	
-0.389404	
-0.389221	
-0.388977	
-0.388367	
-0.388733	
-0.38916	
-0.389648	
-0.389771	
-0.39032	
-0.389648	
-0.389954	
-0.388916	
-0.390198	
-0.390503	
-0.389709	
-0.389038	
-0.390137	
-0.391785	
-0.391113	
-0.391113	
-0.391235	
-0.392029	
-0.392029	
-0.391235	
-0.391113	
-0.390808	
-0.390503	
-0.390198	
-0.390747	
-0.390381	
-0.389221	
-0.388977	
-0.388062	
-0.388245	
-0.387451	
-0.386658	
-0.385498	
-0.38501	
-0.386047	
-0.385071	
-0.384827	
-0.384521	
-0.385132	
-0.384399	
-0.384644	
-0.384644	
-0.383789	
-0.383911	
-0.382996	
-0.384583	
-0.384521	
-0.383789	
-0.383484	
-0.383972	
-0.384338	
-0.384094	
-0.38269	
-0.382935	
-0.383728	
-0.384521	
-0.38385	
-0.383789	
-0.383545	
-0.383728	
-0.382935	
-0.383789	
-0.38385	
-0.383423	
-0.383972	
-0.383789	
-0.38501	
-0.385132	
-0.385071	
-0.385376	
-0.386963	
-0.387451	
-0.387024	
-0.386414	
-0.387024	
-0.387268	
-0.387695	
-0.387695	
-0.388672	
-0.388062	
-0.389221	
-0.388	
-0.38855	
-0.389038	
-0.388733	
-0.38855	
-0.38855	
-0.389832	
-0.388428	
-0.388	
-0.38678	
-0.38855	
-0.388428	
-0.387939	
-0.387695	
-0.386353	
-0.38678	
-0.385498	
-0.386169	
-0.386597	
-0.38562	
-0.386108	
-0.386108	
-0.386047	
-0.38562	
-0.385376	
-0.385193	
-0.385437	
-0.386108	
-0.385681	
-0.385681	
-0.38385	
-0.385376	
-0.38385	
-0.384338	
-0.384766	
-0.384216	
-0.384338	
-0.384277	
-0.384338	
-0.384399	
-0.384094	
-0.384399	
-0.38446	
-0.384277	
-0.384277	
-0.38446	
-0.384338	
-0.384888	
-0.384155	
-0.38501	
-0.385986	
-0.383423	
-0.38562	
-0.385193	
-0.385254	
-0.385071	
-0.384949	
-0.385376	
-0.385132	
-0.385132	
-0.385193	
-0.384949	
-0.385376	
-0.385437	
-0.385559	
-0.385498	
-0.386169	
-0.385559	
-0.385925	
-0.386658	
-0.386414	
-0.387329	
-0.38562	
-0.387695	
-0.387695	
-0.387512	
-0.387634	
-0.387268	
-0.387817	
-0.387939	
-0.387939	
-0.388306	
-0.388428	
-0.388611	
-0.388672	
-0.387939	
-0.38855	
-0.387817	
-0.387634	
-0.387817	
-0.388123	
-0.38739	
-0.387695	
-0.38562	
-0.387085	
-0.386536	
-0.38562	
-0.385681	
-0.385925	
-0.385559	
-0.385559	
-0.384216	
-0.38501	
-0.384155	
-0.384521	
-0.385071	
-0.383728	
-0.383118	
-0.382141	
-0.382751	
-0.382996	
-0.383057	
-0.382507	
-0.383179	
-0.381592	
-0.382202	
-0.382141	
-0.382446	
-0.382202	
-0.383057	
-0.382263	
-0.382385	
-0.381592	
-0.382568	
-0.382813	
-0.38324	
-0.384155	
-0.383972	
-0.38324	
-0.38324	
-0.382935	
-0.384583	
-0.385498	
-0.385193	
-0.386597	
-0.386475	
-0.387451	
-0.387451	
-0.388062	
-0.38855	
-0.388733	
-0.388184	
-0.388794	
-0.387268	
-0.388611	
-0.389282	
-0.388245	
-0.389648	
-0.388672	
-0.389282	
-0.388733	
-0.388916	
-0.389404	
-0.389282	
-0.389343	
-0.389465	
-0.389038	
-0.389221	
-0.389343	
-0.388733	
-0.388489	
-0.389404	
-0.388367	
-0.388123	
-0.387756	
-0.388062	
-0.388	
-0.386292	
-0.388428	
-0.38739	
-0.386658	
-0.385986	
-0.386047	
-0.386047	
-0.385925	
-0.385376	
-0.385559	
-0.385986	
-0.385193	
-0.384766	
-0.384338	
-0.385071	
-0.384827	
-0.383423	
-0.384521	
-0.384277	
-0.384705	
-0.385132	
-0.383423	
-0.384705	
-0.384155	
-0.384338	
-0.384399	
-0.384033	
-0.38446	
-0.384766	
-0.38501	
-0.384949	
-0.385376	
-0.385071	
-0.385193	
-0.384644	
-0.384949	
-0.385986	
-0.384521	
-0.385437	
-0.385315	
-0.385254	
-0.385925	
-0.384583	
-0.386658	
-0.385803	
-0.385193	
-0.385315	
-0.38501	
-0.385498	
-0.385315	
-0.384888	
-0.385315	
-0.386536	
-0.385742	
-0.385803	
-0.385986	
-0.385376	
-0.386047	
-0.385681	
-0.385742	
-0.385193	
-0.385803	
-0.386292	
-0.385681	
-0.386719	
-0.386475	
-0.386292	
-0.386902	
-0.386414	
-0.38562	
-0.386597	
-0.386719	
-0.386353	
-0.386719	
-0.386353	
-0.387207	
-0.386292	
-0.386414	
-0.386047	
-0.386047	
-0.385864	
-0.385986	
-0.385498	
-0.385254	
-0.384521	
-0.385193	
-0.384949	
-0.385315	
-0.385132	
-0.383972	
-0.382996	
-0.384277	
-0.384155	
-0.384155	
-0.384888	
-0.384277	
-0.384705	
-0.383301	
-0.383667	
-0.382019	
-0.382385	
-0.38269	
-0.382874	
-0.382507	
-0.382996	
-0.381958	
-0.382874	
-0.382813	
-0.384277	
-0.383728	
-0.383728	
-0.383728	
-0.38501	
-0.385681	
-0.386169	
-0.387573	
-0.387268	
-0.388916	
-0.387756	
-0.388672	
-0.388733	
-0.389038	
-0.388733	
-0.388977	
-0.389221	
-0.389465	
-0.388794	
-0.389771	
-0.389954	
-0.390869	
-0.39032	
-0.389709	
-0.389465	
-0.389709	
-0.390503	
-0.390137	
-0.390442	
-0.389343	
-0.390686	
-0.38916	
-0.390503	
-0.391357	
-0.390076	
-0.389893	
-0.389771	
-0.390076	
-0.390625	
-0.389893	
-0.390381	
-0.390564	
-0.390259	
-0.390198	
-0.388489	
-0.388916	
-0.388916	
-0.389709	
-0.388611	
-0.388611	
-0.386658	
-0.387756	
-0.385986	
-0.387756	
-0.387512	
-0.386536	
-0.385681	
-0.385376	
-0.385986	
-0.385925	
-0.385498	
-0.385986	
-0.387146	
-0.386475	
-0.386292	
-0.385986	
-0.386047	
-0.386169	
-0.387024	
-0.386902	
-0.387573	
-0.386841	
-0.387329	
-0.386414	
-0.388367	
-0.388489	
-0.387024	
-0.387329	
-0.38739	
-0.388245	
-0.388855	
-0.388306	
-0.388428	
	
