E:\DOCUMENTS AND SETTINGS\JPOTAS\MEUS DOCUMENTOS\UFRJ\RSCI-BM 12 WK SERIES\070720-RSCI-BM-04\RSCI-BM-04-REMG\070720-RSCI-BM-REMG-0004.ACQ
0.025000 msec/sample
1 channel
Analog input
Volts
CH1	
2000	
-0.390869	
-0.391235	
-0.39093	
-0.390747	
-0.391113	
-0.390991	
-0.390259	
-0.390198	
-0.390747	
-0.391113	
-0.391907	
-0.391846	
-0.391602	
-0.391235	
-0.391541	
-0.392578	
-0.390991	
-0.392029	
-0.391663	
-0.392395	
-0.392395	
-0.392822	
-0.393799	
-0.392822	
-0.392822	
-0.392761	
-0.393372	
-0.393005	
-0.392273	
-0.39209	
-0.393738	
-0.394165	
-0.39386	
-0.393799	
-0.393799	
-0.393738	
-0.394287	
-0.394043	
-0.394531	
-0.393982	
-0.395081	
-0.395264	
-0.395447	
-0.395752	
-0.395691	
-0.396179	
-0.395935	
-0.396729	
-0.395935	
-0.396362	
-0.396301	
-0.396912	
-0.397461	
-0.396912	
-0.397156	
-0.396423	
-0.396851	
-0.397888	
-0.39679	
-0.394958	
-0.394958	
-0.394836	
-0.395691	
-0.396118	
-0.39624	
-0.395935	
-0.394653	
-0.394958	
-0.394836	
-0.394714	
-0.394714	
-0.394165	
-0.394775	
-0.394348	
-0.394958	
-0.394287	
-0.394287	
-0.394836	
-0.395325	
-0.395386	
-0.394226	
-0.394653	
-0.394348	
-0.395142	
-0.395752	
-0.396301	
-0.395447	
-0.395508	
-0.395142	
-0.395203	
-0.393616	
-0.392395	
-0.39209	
-0.392517	
-0.392883	
-0.393311	
-0.393982	
-0.392578	
-0.391113	
-0.391418	
-0.393188	
-0.392151	
-0.391479	
-0.391663	
-0.391907	
-0.391541	
-0.391602	
-0.391663	
-0.391968	
-0.391968	
-0.392761	
-0.392334	
-0.391052	
-0.391541	
-0.391602	
-0.392151	
-0.393005	
-0.393066	
-0.392456	
-0.393127	
-0.393188	
-0.394043	
-0.393005	
-0.393677	
-0.392883	
-0.394104	
-0.394714	
-0.395996	
-0.395325	
-0.394958	
-0.395142	
-0.394714	
-0.395691	
-0.395264	
-0.396057	
-0.395386	
-0.395813	
-0.396362	
-0.395508	
-0.395203	
-0.395325	
-0.395569	
-0.396423	
-0.39563	
-0.394592	
-0.394409	
-0.395203	
-0.395142	
-0.395386	
-0.395996	
-0.395142	
-0.395142	
-0.394226	
-0.395081	
-0.394409	
-0.393982	
-0.393127	
-0.39325	
-0.393433	
-0.39447	
-0.393311	
-0.393127	
-0.392517	
-0.392273	
-0.393005	
-0.390808	
-0.391907	
-0.391052	
-0.391968	
-0.392151	
-0.392151	
-0.391846	
-0.391296	
-0.390747	
-0.392273	
-0.390869	
-0.391235	
-0.390015	
-0.390625	
-0.390442	
-0.391357	
-0.392029	
-0.390808	
-0.391541	
-0.391357	
-0.391663	
-0.391052	
-0.390808	
-0.391052	
-0.391418	
-0.391602	
-0.392639	
-0.392212	
-0.392151	
-0.391357	
-0.392029	
-0.393005	
-0.390686	
-0.388855	
-0.389099	
-0.390625	
-0.390076	
-0.389587	
-0.39093	
-0.392456	
-0.391113	
-0.391663	
-0.391479	
-0.391113	
-0.391174	
-0.391052	
-0.391418	
-0.391724	
-0.392578	
-0.391541	
-0.391846	
-0.391968	
-0.391418	
-0.390564	
-0.391052	
-0.390991	
-0.391296	
-0.391174	
-0.392639	
-0.391418	
-0.391479	
-0.390503	
-0.390869	
-0.392029	
-0.390808	
-0.39032	
-0.390686	
-0.390747	
-0.391235	
-0.391052	
-0.390686	
-0.391663	
-0.388794	
-0.388489	
-0.387756	
-0.38855	
-0.388245	
-0.38739	
-0.389893	
-0.391479	
-0.391541	
-0.390259	
-0.390747	
-0.390686	
-0.390625	
-0.391113	
-0.39032	
-0.390808	
-0.391418	
-0.391663	
-0.393188	
-0.392456	
-0.39325	
-0.39209	
-0.393311	
-0.394104	
-0.393738	
-0.393799	
-0.393372	
-0.394287	
-0.394409	
-0.394348	
-0.393921	
-0.393616	
-0.393677	
-0.394043	
-0.392334	
-0.392944	
-0.393555	
-0.39325	
-0.393799	
-0.394653	
-0.394714	
-0.395142	
-0.394592	
-0.394836	
-0.395996	
-0.396057	
-0.39563	
-0.395813	
-0.397583	
-0.398743	
-0.400024	
-0.400452	
-0.402283	
-0.403076	
-0.405029	
-0.405334	
-0.407959	
-0.40979	
-0.412598	
-0.414185	
-0.416626	
-0.41748	
-0.419678	
-0.420715	
-0.423706	
-0.425232	
-0.427185	
-0.429321	
-0.431763	
-0.433044	
-0.436157	
-0.437805	
-0.43988	
-0.441406	
-0.444336	
-0.446838	
-0.44873	
-0.450134	
-0.452209	
-0.456299	
-0.459595	
-0.463257	
-0.46637	
-0.471252	
-0.473816	
-0.478821	
-0.481812	
-0.487427	
-0.491577	
-0.496033	
-0.500366	
-0.504761	
-0.507324	
-0.511658	
-0.515076	
-0.519592	
-0.523193	
-0.526306	
-0.52887	
-0.531067	
-0.534241	
-0.535583	
-0.537964	
-0.539063	
-0.539856	
-0.540527	
-0.541565	
-0.539856	
-0.539978	
-0.539978	
-0.540405	
-0.539978	
-0.540222	
-0.53772	
-0.536133	
-0.534058	
-0.533447	
-0.532043	
-0.530884	
-0.53009	
-0.528015	
-0.527344	
-0.526184	
-0.52356	
-0.520813	
-0.518372	
-0.516785	
-0.514954	
-0.510742	
-0.509521	
-0.507629	
-0.505371	
-0.503113	
-0.501526	
-0.497437	
-0.494751	
-0.490173	
-0.487732	
-0.485229	
-0.48175	
-0.478577	
-0.474365	
-0.472656	
-0.470276	
-0.466858	
-0.464783	
-0.46167	
-0.458801	
-0.455505	
-0.450989	
-0.448425	
-0.444946	
-0.441406	
-0.437927	
-0.435669	
-0.430176	
-0.426147	
-0.421326	
-0.417175	
-0.41394	
-0.409851	
-0.40564	
-0.402405	
-0.399109	
-0.396118	
-0.394592	
-0.391113	
-0.389099	
-0.385376	
-0.386047	
-0.384827	
-0.383606	
-0.383667	
-0.382568	
-0.383728	
-0.385315	
-0.386047	
-0.388489	
-0.390381	
-0.392944	
-0.395752	
-0.397827	
-0.400452	
-0.404297	
-0.408447	
-0.412048	
-0.41626	
-0.418396	
-0.421875	
-0.424011	
-0.426575	
-0.429993	
-0.433167	
-0.436157	
-0.439331	
-0.442993	
-0.445618	
-0.44812	
-0.450684	
-0.452942	
-0.45459	
-0.457214	
-0.458069	
-0.459656	
-0.461426	
-0.463013	
-0.463318	
-0.46521	
-0.463501	
-0.463562	
-0.461365	
-0.461304	
-0.459717	
-0.457947	
-0.456726	
-0.455872	
-0.45343	
-0.451782	
-0.44873	
-0.446472	
-0.443726	
-0.441467	
-0.438843	
-0.434265	
-0.43158	
-0.427734	
-0.42511	
-0.421631	
-0.419739	
-0.414795	
-0.41156	
-0.407349	
-0.404053	
-0.400208	
-0.396423	
-0.393311	
-0.388306	
-0.385925	
-0.382629	
-0.380493	
-0.37561	
-0.373962	
-0.369507	
-0.368591	
-0.364746	
-0.362549	
-0.360779	
-0.359131	
-0.356995	
-0.354919	
-0.35321	
-0.351929	
-0.349792	
-0.348206	
-0.348267	
-0.346863	
-0.346375	
-0.345276	
-0.346558	
-0.347168	
-0.347046	
-0.347229	
-0.348083	
-0.346802	
-0.349731	
-0.348145	
-0.349792	
-0.349426	
-0.35083	
-0.351196	
-0.353027	
-0.35199	
-0.35321	
-0.351624	
-0.353699	
-0.353577	
-0.354736	
-0.354919	
-0.355225	
-0.355164	
-0.356628	
-0.357239	
-0.357666	
-0.357239	
-0.357544	
-0.357422	
-0.357422	
-0.357788	
-0.358154	
-0.358215	
-0.358765	
-0.358582	
-0.357971	
-0.358337	
-0.358154	
-0.358887	
-0.357849	
-0.35907	
-0.358337	
-0.359741	
-0.360229	
-0.361877	
-0.361938	
-0.362671	
-0.361877	
-0.364563	
-0.362305	
-0.364136	
-0.364136	
-0.365784	
-0.365479	
-0.367126	
-0.366333	
-0.368164	
-0.36615	
-0.368652	
-0.367737	
-0.369568	
-0.370605	
-0.371338	
-0.372437	
-0.374207	
-0.373718	
-0.375122	
-0.374268	
-0.375854	
-0.374939	
-0.376343	
-0.377136	
-0.377686	
-0.378052	
-0.379456	
-0.37915	
-0.379822	
-0.379883	
-0.380676	
-0.381531	
-0.381775	
-0.382324	
-0.382385	
-0.383301	
-0.38446	
-0.384949	
-0.384888	
-0.385681	
-0.38446	
-0.386719	
-0.385803	
-0.386902	
-0.386536	
-0.387207	
-0.388	
-0.388611	
-0.387756	
-0.389099	
-0.386108	
-0.387878	
-0.386719	
-0.387756	
-0.387573	
-0.388611	
-0.388855	
-0.390015	
-0.390259	
-0.390747	
-0.389954	
-0.390015	
-0.390869	
-0.391052	
-0.390991	
-0.390198	
-0.391113	
-0.391052	
-0.392151	
-0.391602	
-0.392761	
-0.391296	
-0.392029	
-0.390564	
-0.392578	
-0.392395	
-0.3927	
-0.392761	
-0.394226	
-0.393494	
-0.39447	
-0.393555	
-0.394043	
-0.394531	
-0.394714	
-0.39447	
-0.394226	
-0.395264	
-0.396118	
-0.39624	
-0.396973	
-0.39679	
-0.397461	
-0.398438	
-0.397766	
-0.398132	
-0.398865	
-0.39917	
-0.399231	
-0.399536	
-0.398926	
-0.399353	
-0.39917	
-0.398926	
-0.398743	
-0.398987	
-0.39856	
-0.398071	
-0.398499	
-0.398987	
-0.397583	
-0.398499	
-0.396484	
-0.396301	
-0.394409	
-0.39502	
-0.394287	
-0.392761	
-0.393005	
-0.393921	
-0.392212	
-0.39325	
-0.390442	
-0.392212	
-0.391785	
-0.391846	
-0.391907	
-0.391663	
-0.392273	
-0.392822	
-0.392334	
-0.391968	
-0.391235	
-0.391174	
-0.391846	
-0.392212	
-0.392517	
-0.391785	
-0.392273	
-0.392578	
-0.393494	
-0.392334	
-0.393921	
-0.391785	
-0.393005	
-0.392029	
-0.392578	
-0.392151	
-0.392273	
-0.392395	
-0.393311	
-0.39209	
-0.392273	
-0.391541	
-0.391235	
-0.391418	
-0.391724	
-0.390686	
-0.390503	
-0.389771	
-0.390564	
-0.391418	
-0.39093	
-0.391479	
-0.388062	
-0.389832	
-0.389832	
-0.390198	
-0.389893	
-0.389282	
-0.389404	
-0.390198	
-0.389099	
-0.388855	
-0.388611	
-0.388916	
-0.388489	
-0.388	
-0.389038	
-0.38916	
-0.387695	
-0.389099	
-0.389832	
-0.388733	
-0.389465	
-0.388306	
-0.388977	
-0.388123	
-0.389465	
-0.389282	
-0.388794	
-0.389771	
-0.390625	
-0.389893	
-0.390564	
-0.39032	
-0.390015	
-0.390076	
-0.390137	
-0.390076	
-0.390137	
-0.389587	
-0.390686	
-0.391541	
-0.391418	
-0.391846	
-0.391235	
-0.392578	
-0.391968	
-0.392517	
-0.3927	
-0.392578	
-0.392212	
-0.392883	
-0.391296	
-0.391541	
-0.390015	
-0.39032	
-0.390381	
-0.39093	
-0.390259	
-0.389893	
-0.389221	
-0.390686	
-0.390991	
-0.389893	
-0.390503	
-0.389221	
-0.389771	
-0.388855	
-0.389343	
-0.389832	
-0.390015	
-0.390198	
-0.390991	
-0.390564	
-0.390137	
-0.388855	
-0.390015	
-0.390015	
-0.390625	
-0.390442	
-0.390381	
-0.389648	
-0.390869	
-0.391724	
-0.390808	
-0.391541	
-0.391602	
-0.391907	
-0.39093	
-0.39209	
-0.39209	
-0.391968	
-0.392212	
-0.393616	
-0.393188	
-0.393677	
-0.39325	
-0.391724	
-0.3927	
-0.393005	
-0.392822	
-0.392883	
-0.392517	
-0.392761	
-0.393005	
-0.392334	
-0.393433	
-0.391968	
-0.392212	
-0.391174	
-0.392517	
-0.391968	
-0.391968	
-0.390442	
-0.3927	
-0.39209	
-0.391724	
-0.391418	
-0.390137	
-0.390076	
-0.390137	
-0.390686	
-0.390198	
-0.389709	
-0.390015	
-0.390198	
-0.389709	
-0.390381	
-0.389038	
-0.389282	
-0.387878	
-0.389465	
-0.388306	
-0.388428	
-0.387939	
-0.389282	
-0.388977	
-0.388428	
-0.387573	
-0.387024	
-0.387512	
-0.387451	
-0.387756	
-0.387817	
-0.387329	
-0.387085	
-0.387512	
-0.387878	
-0.388916	
-0.388367	
-0.387634	
-0.386414	
-0.388428	
-0.388672	
-0.388672	
-0.388977	
-0.389709	
-0.389709	
-0.389221	
-0.389648	
-0.388184	
-0.38855	
-0.388733	
-0.389771	
-0.388367	
-0.38916	
-0.388672	
-0.389465	
-0.388794	
-0.389954	
-0.387756	
-0.388977	
-0.387817	
-0.38916	
-0.38916	
-0.389465	
-0.389526	
-0.389465	
-0.390259	
-0.390137	
-0.389893	
-0.388916	
-0.389587	
-0.38916	
-0.389526	
-0.389343	
-0.388916	
-0.389282	
-0.390076	
-0.389465	
-0.389465	
-0.387817	
-0.388123	
-0.388672	
-0.388306	
-0.389404	
-0.388794	
-0.388733	
-0.388306	
-0.388855	
-0.389404	
-0.38855	
-0.387939	
-0.387634	
-0.387512	
-0.387939	
-0.387756	
-0.388	
-0.387573	
-0.388306	
-0.388672	
-0.387939	
-0.387695	
-0.386658	
-0.387878	
-0.387634	
-0.389221	
-0.388489	
-0.388855	
-0.389221	
-0.390686	
-0.390381	
-0.390991	
-0.389343	
-0.389954	
-0.390137	
-0.390869	
-0.391174	
-0.390076	
-0.390503	
-0.389526	
-0.390381	
-0.390625	
-0.389832	
-0.38855	
-0.389038	
-0.389038	
-0.390015	
-0.39032	
-0.390381	
-0.39032	
-0.390564	
-0.390198	
-0.389771	
-0.389038	
-0.389282	
-0.389038	
-0.389099	
-0.389832	
-0.389038	
-0.388184	
-0.387695	
-0.390259	
-0.389221	
-0.38916	
-0.385681	
-0.38678	
-0.38739	
-0.388184	
-0.387939	
-0.387512	
-0.387512	
-0.38855	
-0.387695	
-0.387146	
-0.386536	
-0.386719	
-0.386597	
-0.387024	
-0.387878	
-0.38678	
-0.386536	
-0.386597	
-0.388245	
-0.388062	
-0.387634	
-0.386353	
-0.386414	
-0.387451	
-0.389099	
-0.388184	
-0.388306	
-0.388062	
-0.389343	
-0.389648	
-0.389648	
-0.390442	
-0.390503	
-0.391174	
-0.39093	
-0.39093	
-0.391235	
-0.391724	
-0.39093	
-0.391968	
-0.391907	
-0.390991	
-0.38855	
-0.38916	
-0.390137	
-0.390747	
-0.389954	
-0.389832	
-0.389771	
-0.390381	
-0.390747	
-0.38916	
-0.390198	
-0.387695	
-0.388855	
-0.387817	
-0.388855	
-0.388367	
-0.388672	
-0.388794	
-0.389221	
-0.388977	
-0.387817	
-0.38678	
-0.38678	
-0.387451	
-0.388489	
-0.387329	
-0.387146	
-0.387329	
-0.387329	
-0.388062	
-0.386841	
-0.387512	
-0.385681	
-0.386841	
-0.387024	
-0.387146	
-0.386414	
-0.387024	
-0.385925	
-0.387512	
-0.387146	
-0.386047	
-0.386047	
-0.38501	
-0.385681	
-0.385254	
-0.385925	
-0.386047	
-0.385254	
-0.385986	
-0.38678	
-0.385925	
-0.38562	
-0.384155	
-0.385681	
-0.385925	
-0.386047	
-0.385437	
-0.385803	
-0.385803	
-0.387207	
-0.387451	
-0.386658	
-0.386597	
-0.386292	
-0.387024	
-0.387207	
-0.386658	
-0.387573	
-0.387268	
-0.387512	
-0.388855	
-0.387817	
-0.387451	
-0.386597	
-0.387817	
-0.387817	
-0.387024	
-0.387695	
-0.387207	
-0.387085	
-0.388306	
-0.387695	
-0.386597	
-0.386963	
-0.386353	
-0.386963	
-0.388611	
-0.387939	
-0.388489	
-0.388672	
-0.390137	
-0.390991	
-0.390381	
-0.389893	
-0.390137	
-0.389282	
-0.390198	
-0.389465	
-0.390381	
-0.390198	
-0.390503	
-0.391296	
-0.390808	
-0.390503	
-0.390442	
-0.389771	
-0.390564	
-0.391418	
-0.389709	
-0.389648	
-0.389404	
-0.389893	
-0.390076	
-0.389832	
-0.388367	
-0.388184	
-0.387024	
-0.387939	
-0.387634	
-0.38739	
-0.387085	
-0.386414	
-0.386658	
-0.38678	
-0.38562	
-0.384766	
-0.384338	
-0.384521	
-0.384766	
-0.383545	
-0.384338	
-0.383362	
-0.384216	
-0.385559	
-0.384644	
-0.384033	
-0.383179	
-0.384033	
-0.384216	
-0.38446	
-0.384827	
-0.384705	
-0.384583	
-0.385132	
-0.385803	
-0.385681	
-0.384827	
-0.384705	
-0.383911	
-0.385681	
-0.385071	
-0.385315	
-0.385559	
-0.38623	
-0.386597	
-0.38678	
-0.386658	
-0.38678	
-0.386841	
-0.387207	
-0.387512	
-0.386047	
-0.387512	
-0.386108	
-0.387573	
-0.388855	
-0.388428	
-0.387634	
-0.386658	
-0.387451	
-0.388123	
-0.387939	
-0.388489	
-0.388428	
-0.388733	
-0.388977	
-0.389465	
-0.389221	
-0.388733	
-0.389038	
-0.389343	
-0.389587	
-0.38855	
-0.388733	
-0.38855	
-0.389038	
-0.389771	
-0.389038	
-0.388489	
-0.388184	
-0.387512	
-0.38739	
-0.387817	
-0.387756	
-0.387756	
-0.387268	
-0.388123	
-0.389465	
-0.388611	
-0.388367	
-0.387207	
-0.387512	
-0.389526	
-0.388245	
-0.388855	
-0.388428	
-0.38855	
-0.389465	
-0.388489	
-0.388123	
-0.388428	
-0.389526	
-0.38855	
-0.388672	
-0.386902	
-0.388	
-0.387817	
-0.388428	
-0.39032	
-0.389343	
-0.388611	
-0.38739	
-0.388367	
-0.38916	
-0.38916	
-0.388672	
-0.388611	
-0.38916	
-0.389099	
-0.389893	
-0.388733	
-0.388611	
-0.388	
-0.388794	
-0.390076	
-0.388733	
-0.38916	
-0.388611	
-0.389709	
-0.390625	
-0.390564	
-0.39032	
-0.390076	
-0.389832	
-0.390381	
-0.390198	
-0.389893	
-0.389648	
-0.389771	
-0.390015	
-0.391418	
-0.390625	
-0.389282	
-0.388123	
-0.387756	
-0.388977	
-0.38739	
-0.387451	
-0.387146	
-0.387329	
-0.387268	
-0.387207	
-0.387329	
-0.387268	
-0.387512	
-0.388123	
-0.388367	
-0.387512	
-0.387756	
-0.387512	
-0.388245	
-0.389648	
-0.388611	
-0.387573	
-0.387817	
-0.38739	
-0.388367	
-0.388306	
-0.388367	
-0.388489	
-0.388672	
-0.389221	
-0.389893	
-0.389526	
-0.389099	
-0.389404	
-0.389587	
-0.390076	
-0.389038	
-0.390015	
-0.388489	
-0.390137	
-0.391724	
-0.391174	
-0.390686	
-0.390625	
-0.391174	
-0.391357	
-0.391113	
-0.391418	
-0.391479	
-0.391357	
-0.392029	
-0.39325	
-0.3927	
-0.392151	
-0.390625	
-0.390625	
-0.393188	
-0.391052	
-0.392029	
-0.391296	
-0.391846	
-0.392151	
-0.391785	
-0.391907	
-0.390991	
-0.390564	
-0.39093	
-0.390198	
-0.389709	
-0.389465	
-0.388184	
-0.389038	
-0.390198	
-0.388794	
-0.387634	
-0.386963	
-0.387451	
-0.387939	
-0.387085	
-0.388367	
-0.387756	
-0.388123	
-0.388611	
-0.388794	
-0.389099	
-0.388306	
-0.388611	
-0.387939	
-0.389465	
-0.388611	
-0.388916	
-0.388367	
-0.389404	
-0.390564	
-0.389648	
-0.390015	
-0.390137	
-0.389587	
-0.390015	
-0.389709	
-0.390076	
-0.390137	
-0.390442	
-0.39093	
-0.391724	
-0.391479	
-0.390747	
-0.390076	
-0.390625	
-0.391968	
-0.390381	
-0.391235	
-0.390625	
-0.391663	
-0.393005	
-0.392151	
-0.392273	
-0.391907	
-0.392456	
-0.392761	
-0.392883	
-0.393005	
-0.393188	
-0.392883	
-0.393616	
-0.394775	
-0.394836	
-0.393616	
-0.392822	
-0.394226	
-0.394653	
-0.39386	
-0.394226	
-0.394348	
-0.394531	
-0.39502	
-0.394653	
-0.394653	
-0.393982	
-0.393921	
-0.392761	
-0.394104	
-0.393433	
-0.39325	
-0.391724	
-0.393372	
-0.394836	
-0.393127	
-0.392944	
-0.392639	
-0.392029	
-0.392273	
-0.391846	
-0.391907	
-0.391785	
-0.392273	
-0.392639	
-0.392944	
-0.393005	
-0.392456	
-0.391113	
-0.392639	
-0.393494	
-0.391846	
-0.393188	
-0.392639	
-0.393005	
-0.393372	
-0.392517	
-0.392212	
-0.391296	
-0.390503	
-0.390076	
-0.390625	
-0.390137	
-0.390137	
-0.389587	
-0.390198	
-0.391541	
-0.389954	
-0.389648	
-0.389404	
-0.389099	
-0.390076	
-0.389343	
-0.389587	
-0.389343	
-0.389465	
-0.389893	
-0.390137	
-0.390442	
-0.389404	
-0.388977	
-0.388855	
-0.390259	
-0.389099	
-0.390198	
-0.388855	
-0.390564	
-0.391846	
-0.391357	
-0.391052	
-0.391418	
-0.391541	
-0.392273	
-0.392578	
-0.392944	
-0.392639	
-0.392639	
-0.393188	
-0.394714	
-0.394287	
-0.393738	
-0.3927	
-0.3927	
-0.394287	
-0.3927	
-0.393555	
-0.393188	
-0.393311	
-0.393616	
-0.393799	
-0.392944	
-0.392944	
-0.391296	
-0.392639	
-0.393005	
-0.3927	
-0.393005	
-0.391846	
-0.392761	
-0.393066	
-0.392883	
-0.391968	
-0.390869	
-0.391052	
-0.391418	
-0.389832	
-0.390869	
-0.391052	
-0.390808	
-0.390991	
-0.391296	
-0.39032	
-0.39032	
-0.389526	
-0.390015	
-0.390381	
-0.389832	
-0.389465	
-0.38916	
-0.389221	
-0.390442	
-0.390686	
-0.389221	
-0.389099	
-0.386841	
-0.388672	
-0.388062	
-0.388977	
-0.388855	
-0.387756	
-0.389221	
-0.388916	
-0.388733	
-0.389587	
-0.388855	
-0.389343	
-0.389465	
-0.389221	
-0.389771	
-0.389526	
-0.390381	
-0.39093	
-0.391602	
-0.390076	
-0.389709	
-0.389221	
-0.389832	
-0.389282	
-0.389404	
-0.389465	
-0.389404	
-0.389771	
-0.389648	
-0.389893	
-0.388977	
-0.387939	
-0.388306	
-0.38916	
-0.389832	
-0.389587	
-0.389587	
-0.388306	
-0.390076	
-0.390625	
-0.389404	
-0.389832	
-0.38855	
-0.389404	
-0.388977	
-0.389099	
-0.389343	
-0.389038	
-0.389343	
-0.39032	
-0.39032	
-0.388794	
-0.388	
-0.388855	
-0.388672	
-0.388977	
-0.388672	
-0.388306	
-0.38855	
-0.389282	
-0.38916	
-0.388428	
-0.388428	
-0.387756	
-0.387817	
-0.387817	
-0.388062	
-0.387634	
-0.387756	
-0.387024	
-0.388733	
-0.388733	
-0.387939	
-0.38855	
-0.386475	
-0.388306	
-0.388367	
-0.388489	
-0.388916	
-0.389221	
-0.390076	
-0.390869	
-0.390991	
-0.390564	
-0.389038	
-0.389832	
-0.390991	
-0.391541	
-0.390869	
-0.390503	
-0.389343	
-0.390686	
-0.391418	
-0.389771	
-0.390015	
-0.389221	
-0.389648	
-0.389832	
-0.389832	
-0.390198	
-0.389587	
-0.389587	
-0.390991	
-0.390625	
-0.389282	
-0.389648	
-0.388123	
-0.389282	
-0.388428	
-0.388367	
-0.388611	
-0.387878	
-0.388428	
-0.389038	
-0.388611	
-0.388184	
-0.386414	
-0.387329	
-0.388	
-0.387817	
-0.387207	
-0.386963	
-0.386169	
-0.387085	
-0.388	
-0.386963	
-0.386536	
-0.385376	
-0.386536	
-0.386414	
-0.386292	
-0.386414	
-0.386047	
-0.386169	
-0.387756	
-0.387573	
-0.387085	
-0.38739	
-0.386414	
-0.387329	
-0.387634	
-0.387634	
-0.387817	
-0.386841	
-0.388794	
-0.390381	
-0.389954	
-0.39032	
-0.39032	
-0.390747	
-0.391235	
-0.390076	
-0.391174	
-0.390747	
-0.390869	
-0.391663	
-0.391235	
-0.390442	
-0.389893	
-0.389099	
-0.390625	
-0.390503	
-0.390137	
-0.389465	
-0.388489	
-0.390198	
-0.39093	
-0.390503	
-0.389465	
-0.388977	
-0.387512	
-0.389038	
-0.388184	
-0.388428	
-0.388428	
-0.388611	
-0.389038	
-0.389404	
-0.388367	
-0.388428	
-0.386841	
-0.387878	
-0.388367	
-0.386658	
-0.387329	
-0.387207	
-0.387695	
-0.388245	
-0.388489	
-0.387268	
-0.387085	
-0.386658	
-0.387329	
-0.386353	
-0.386597	
-0.386658	
-0.386536	
-0.386475	
-0.386536	
-0.385742	
-0.385376	
-0.384583	
-0.384888	
-0.385986	
-0.384277	
-0.385498	
-0.384705	
-0.385071	
-0.385986	
-0.385559	
-0.384644	
-0.384155	
-0.384583	
-0.384766	
-0.385071	
-0.384888	
-0.385376	
-0.385437	
-0.38562	
-0.38739	
-0.386292	
-0.385681	
-0.384705	
-0.384888	
-0.387085	
-0.386047	
-0.385925	
-0.386169	
-0.386414	
-0.387268	
-0.386902	
-0.386902	
-0.386719	
-0.386719	
-0.386963	
-0.387451	
-0.38562	
-0.386353	
-0.385193	
-0.385986	
-0.387085	
-0.386719	
-0.385315	
-0.385254	
-0.385498	
-0.386902	
-0.386902	
-0.386719	
-0.387634	
-0.388062	
-0.388733	
-0.389465	
-0.388489	
-0.388	
-0.388123	
-0.388977	
-0.390198	
-0.388367	
-0.389465	
-0.389099	
-0.389343	
-0.390564	
-0.390381	
-0.389282	
-0.389404	
-0.389771	
-0.389465	
-0.389526	
-0.388245	
-0.388733	
-0.388428	
-0.389343	
-0.390503	
-0.389099	
-0.388489	
-0.386902	
-0.387268	
-0.388916	
-0.387817	
-0.387817	
-0.387146	
-0.387146	
-0.386902	
-0.386902	
-0.386536	
-0.385742	
-0.386169	
-0.385986	
-0.386475	
-0.385254	
-0.385681	
-0.384644	
-0.385986	
-0.387085	
-0.386353	
-0.385315	
-0.385132	
-0.385071	
-0.386353	
-0.385986	
-0.386047	
-0.386841	
-0.386475	
-0.387146	
-0.387634	
-0.386353	
-0.386719	
-0.385864	
-0.387024	
-0.387878	
-0.387207	
-0.387939	
-0.387268	
-0.387878	
-0.389099	
-0.388977	
-0.388672	
-0.388184	
-0.387756	
-0.388672	
-0.388855	
-0.387756	
-0.388733	
-0.389343	
-0.389832	
-0.391357	
-0.389587	
-0.389709	
-0.38855	
-0.390076	
-0.390625	
-0.389893	
-0.389832	
-0.390198	
-0.390808	
-0.391296	
-0.391785	
-0.391052	
-0.390808	
-0.390442	
-0.390991	
-0.391296	
-0.390076	
-0.390625	
-0.389832	
-0.390808	
-0.392212	
-0.390198	
-0.389404	
-0.388306	
-0.389465	
-0.389771	
-0.38916	
-0.389771	
-0.389587	
-0.390015	
-0.390381	
-0.390808	
-0.390259	
-0.389709	
-0.389893	
-0.390076	
-0.390259	
-0.390137	
-0.390137	
-0.389648	
-0.390503	
-0.392334	
-0.390503	
-0.389587	
-0.388916	
-0.39032	
-0.390686	
-0.390076	
-0.388977	
-0.390076	
-0.390015	
-0.39032	
-0.390808	
-0.390259	
-0.389893	
-0.389343	
-0.390686	
-0.390686	
-0.390076	
-0.390076	
-0.390259	
-0.390869	
-0.391418	
-0.391296	
-0.390564	
-0.390137	
-0.390808	
-0.391357	
-0.390991	
-0.390259	
-0.390869	
-0.391479	
-0.392029	
-0.392761	
-0.391968	
-0.391418	
-0.390381	
-0.391968	
-0.39209	
-0.391418	
-0.391113	
-0.39032	
-0.391113	
-0.392334	
-0.391663	
-0.390381	
-0.389465	
-0.39032	
-0.389709	
-0.389099	
-0.389038	
-0.388916	
-0.388794	
-0.388977	
-0.389893	
-0.389587	
-0.389038	
-0.388	
-0.389099	
-0.390808	
-0.389587	
-0.388611	
-0.389099	
-0.389893	
-0.390564	
-0.390137	
-0.389954	
-0.389282	
-0.389771	
-0.390442	
-0.390442	
-0.390137	
-0.390503	
-0.39093	
-0.391235	
-0.392029	
-0.392212	
-0.391174	
-0.390198	
-0.392212	
-0.392273	
-0.39209	
-0.391296	
-0.391663	
-0.392212	
-0.3927	
-0.393433	
-0.392517	
-0.392273	
-0.391541	
-0.392578	
-0.394043	
-0.392883	
-0.393433	
-0.39325	
-0.393738	
-0.395081	
-0.394287	
-0.393799	
-0.393127	
-0.394104	
-0.394592	
-0.393311	
-0.39325	
-0.393555	
-0.393616	
-0.393616	
-0.394836	
-0.39325	
-0.392639	
-0.391174	
-0.392334	
-0.392761	
-0.391418	
-0.390869	
-0.389648	
-0.390381	
-0.390686	
-0.390564	
-0.389587	
-0.389404	
-0.390137	
-0.390076	
-0.390198	
	
