E:\DOCUMENTS AND SETTINGS\JPOTAS\MEUS DOCUMENTOS\UFRJ\RSCI-BM 12 WK SERIES\070720-RSCI-BM-04\RSCI-BM-04-REMG\070720-RSCI-BM-REMG-0001.ACQ
0.025000 msec/sample
1 channel
Analog input
Volts
CH1	
2000	
-0.396057	
-0.396545	
-0.396179	
-0.395569	
-0.394409	
-0.395691	
-0.395447	
-0.395264	
-0.394836	
-0.392822	
-0.393738	
-0.393188	
-0.394287	
-0.392151	
-0.391418	
-0.391724	
-0.391541	
-0.391174	
-0.391113	
-0.390442	
-0.390503	
-0.389893	
-0.391602	
-0.390991	
-0.390137	
-0.389465	
-0.389709	
-0.391846	
-0.390625	
-0.391174	
-0.390991	
-0.391541	
-0.391296	
-0.3927	
-0.391785	
-0.391724	
-0.390747	
-0.392578	
-0.392883	
-0.392822	
-0.393982	
-0.392395	
-0.39325	
-0.39325	
-0.393982	
-0.393066	
-0.392761	
-0.391907	
-0.39386	
-0.393738	
-0.393616	
-0.393311	
-0.393555	
-0.393311	
-0.394653	
-0.394775	
-0.393982	
-0.39386	
-0.393921	
-0.39563	
-0.394714	
-0.39502	
-0.394592	
-0.39563	
-0.395874	
-0.397095	
-0.395569	
-0.395935	
-0.394775	
-0.396179	
-0.396729	
-0.396667	
-0.397339	
-0.396118	
-0.396729	
-0.397278	
-0.398926	
-0.397095	
-0.396423	
-0.395508	
-0.397034	
-0.39624	
-0.39624	
-0.396179	
-0.395508	
-0.395813	
-0.395508	
-0.396057	
-0.39502	
-0.395081	
-0.394104	
-0.395691	
-0.394714	
-0.394653	
-0.393677	
-0.393921	
-0.394348	
-0.395203	
-0.39386	
-0.394409	
-0.393494	
-0.394226	
-0.394958	
-0.395447	
-0.395691	
-0.394348	
-0.39502	
-0.395325	
-0.396423	
-0.395508	
-0.395325	
-0.394348	
-0.396362	
-0.395447	
-0.395691	
-0.396301	
-0.395447	
-0.395447	
-0.394714	
-0.395813	
-0.39447	
-0.393982	
-0.392822	
-0.394409	
-0.393188	
-0.392822	
-0.392639	
-0.392944	
-0.392517	
-0.393799	
-0.393188	
-0.392212	
-0.391907	
-0.391479	
-0.39325	
-0.392151	
-0.393311	
-0.391785	
-0.392273	
-0.393005	
-0.394714	
-0.392639	
-0.3927	
-0.391479	
-0.393188	
-0.393005	
-0.393677	
-0.393799	
-0.392395	
-0.393616	
-0.39325	
-0.394958	
-0.394714	
-0.394592	
-0.393677	
-0.395081	
-0.395447	
-0.395508	
-0.394958	
-0.395264	
-0.39502	
-0.396118	
-0.396423	
-0.395813	
-0.394775	
-0.394714	
-0.395569	
-0.395325	
-0.395325	
-0.394958	
-0.395142	
-0.395081	
-0.397095	
-0.395752	
-0.39563	
-0.394836	
-0.395203	
-0.396423	
-0.395569	
-0.396301	
-0.394775	
-0.395081	
-0.394531	
-0.395508	
-0.394653	
-0.393982	
-0.391541	
-0.393494	
-0.393616	
-0.393677	
-0.393188	
-0.392273	
-0.392883	
-0.392212	
-0.393433	
-0.392273	
-0.391968	
-0.389709	
-0.392273	
-0.391846	
-0.392029	
-0.391296	
-0.391785	
-0.391602	
-0.392456	
-0.392029	
-0.390991	
-0.390442	
-0.390381	
-0.392395	
-0.391663	
-0.392578	
-0.391663	
-0.391724	
-0.391846	
-0.393311	
-0.391907	
-0.391785	
-0.39093	
-0.392151	
-0.393066	
-0.392822	
-0.392883	
-0.391479	
-0.392334	
-0.392883	
-0.393494	
-0.392212	
-0.391663	
-0.39032	
-0.391968	
-0.392151	
-0.391907	
-0.391113	
-0.391174	
-0.391479	
-0.392517	
-0.391907	
-0.39093	
-0.390259	
-0.389954	
-0.391296	
-0.390869	
-0.391541	
-0.390747	
-0.391174	
-0.39093	
-0.391968	
-0.391479	
-0.391235	
-0.390564	
-0.391968	
-0.392578	
-0.392395	
-0.392578	
-0.391785	
-0.391541	
-0.391724	
-0.393555	
-0.39209	
-0.391785	
-0.391602	
-0.392578	
-0.393066	
-0.392334	
-0.392578	
-0.391479	
-0.39209	
-0.393188	
-0.392761	
-0.392029	
-0.390869	
-0.390686	
-0.393433	
-0.393677	
-0.395264	
-0.394836	
-0.395508	
-0.396362	
-0.398071	
-0.398193	
-0.398438	
-0.399597	
-0.401184	
-0.402832	
-0.403809	
-0.404846	
-0.405701	
-0.407837	
-0.410461	
-0.412842	
-0.413208	
-0.414734	
-0.415466	
-0.419739	
-0.421753	
-0.424194	
-0.424927	
-0.42688	
-0.428345	
-0.430847	
-0.430969	
-0.431702	
-0.432861	
-0.434631	
-0.436218	
-0.438232	
-0.43927	
-0.439941	
-0.441345	
-0.443542	
-0.444519	
-0.445557	
-0.447266	
-0.449707	
-0.454041	
-0.456116	
-0.459351	
-0.46228	
-0.465393	
-0.468201	
-0.4729	
-0.474976	
-0.4776	
-0.480713	
-0.48468	
-0.487488	
-0.49115	
-0.494141	
-0.49707	
-0.500427	
-0.504578	
-0.507446	
-0.509216	
-0.511047	
-0.51416	
-0.518311	
-0.518921	
-0.520691	
-0.521423	
-0.523132	
-0.524536	
-0.52655	
-0.525635	
-0.525452	
-0.525513	
-0.526184	
-0.526855	
-0.527344	
-0.525635	
-0.52478	
-0.524109	
-0.525085	
-0.522888	
-0.521851	
-0.518616	
-0.517761	
-0.517212	
-0.514832	
-0.512451	
-0.509155	
-0.507202	
-0.504089	
-0.502502	
-0.499023	
-0.495789	
-0.492249	
-0.489075	
-0.485779	
-0.482178	
-0.477234	
-0.47345	
-0.469421	
-0.467163	
-0.463196	
-0.45813	
-0.453613	
-0.447632	
-0.446411	
-0.442017	
-0.439026	
-0.434021	
-0.430115	
-0.425171	
-0.421875	
-0.416992	
-0.411377	
-0.406372	
-0.401611	
-0.397766	
-0.392151	
-0.386963	
-0.380554	
-0.376221	
-0.370605	
-0.368042	
-0.362427	
-0.357849	
-0.353394	
-0.349731	
-0.345459	
-0.342834	
-0.3396	
-0.337463	
-0.336121	
-0.335999	
-0.3349	
-0.333435	
-0.332092	
-0.332153	
-0.333313	
-0.333313	
-0.334351	
-0.333679	
-0.334961	
-0.335571	
-0.338013	
-0.338257	
-0.33905	
-0.339539	
-0.341858	
-0.342651	
-0.34436	
-0.344482	
-0.345398	
-0.34613	
-0.347412	
-0.348511	
-0.348511	
-0.348572	
-0.348816	
-0.350891	
-0.351196	
-0.351257	
-0.350281	
-0.351318	
-0.353088	
-0.352905	
-0.352722	
-0.351624	
-0.353027	
-0.354309	
-0.354309	
-0.354675	
-0.35437	
-0.355591	
-0.356018	
-0.356567	
-0.355835	
-0.356506	
-0.35675	
-0.358643	
-0.359741	
-0.361572	
-0.362061	
-0.363159	
-0.364136	
-0.366638	
-0.367432	
-0.367249	
-0.367798	
-0.36792	
-0.369751	
-0.370361	
-0.370056	
-0.3703	
-0.370667	
-0.371521	
-0.371887	
-0.371216	
-0.370728	
-0.37146	
-0.372314	
-0.371521	
-0.371704	
-0.37085	
-0.371948	
-0.373352	
-0.37262	
-0.372742	
-0.372253	
-0.372864	
-0.372986	
-0.372925	
-0.373169	
-0.371887	
-0.372009	
-0.37146	
-0.372253	
-0.371765	
-0.37085	
-0.370239	
-0.370911	
-0.371399	
-0.372314	
-0.371338	
-0.371704	
-0.371704	
-0.372253	
-0.371399	
-0.370911	
-0.3703	
-0.370667	
-0.371155	
-0.370789	
-0.370361	
-0.369568	
-0.3703	
-0.371094	
-0.370911	
-0.37146	
-0.370544	
-0.370056	
-0.371094	
-0.371399	
-0.37207	
-0.371033	
-0.371399	
-0.371826	
-0.372986	
-0.37323	
-0.372437	
-0.37262	
-0.372864	
-0.373291	
-0.373596	
-0.373779	
-0.373657	
-0.374573	
-0.376282	
-0.375977	
-0.377075	
-0.376404	
-0.377197	
-0.377441	
-0.378418	
-0.379456	
-0.378662	
-0.379395	
-0.379333	
-0.380676	
-0.38031	
-0.380249	
-0.380554	
-0.380554	
-0.381104	
-0.381042	
-0.381287	
-0.380676	
-0.380859	
-0.38147	
-0.38147	
-0.38147	
-0.379456	
-0.37915	
-0.380798	
-0.380554	
-0.380249	
-0.38031	
-0.380493	
-0.381226	
-0.381836	
-0.381775	
-0.381592	
-0.381165	
-0.381836	
-0.38208	
-0.382263	
-0.382874	
-0.381958	
-0.382874	
-0.382446	
-0.38324	
-0.383911	
-0.382324	
-0.383484	
-0.383057	
-0.383667	
-0.384033	
-0.383728	
-0.383667	
-0.384399	
-0.384827	
-0.384399	
-0.383728	
-0.384155	
-0.384094	
-0.384583	
-0.384644	
-0.385071	
-0.383545	
-0.384705	
-0.385132	
-0.384888	
-0.38562	
-0.38385	
-0.38385	
-0.384277	
-0.38501	
-0.385559	
-0.385925	
-0.385498	
-0.386047	
-0.384766	
-0.385742	
-0.38562	
-0.385376	
-0.385193	
-0.385132	
-0.384033	
-0.38385	
-0.383118	
-0.383484	
-0.384033	
-0.383972	
-0.38385	
-0.382141	
-0.382385	
-0.38269	
-0.383972	
-0.383545	
-0.383606	
-0.381836	
-0.383667	
-0.383362	
-0.383606	
-0.383423	
-0.382996	
-0.383057	
-0.382874	
-0.384094	
-0.38385	
-0.385071	
-0.385071	
-0.385986	
-0.384644	
-0.385986	
-0.38501	
-0.385742	
-0.386108	
-0.387329	
-0.386475	
-0.386536	
-0.386047	
-0.387695	
-0.387817	
-0.388245	
-0.388428	
-0.388611	
-0.388672	
-0.388794	
-0.389587	
-0.390137	
-0.389832	
-0.389771	
-0.39093	
-0.390076	
-0.391235	
-0.389954	
-0.390381	
-0.390259	
-0.391663	
-0.391296	
-0.391479	
-0.390015	
-0.391174	
-0.391113	
-0.391663	
-0.390991	
-0.390686	
-0.390076	
-0.391052	
-0.390503	
-0.39032	
-0.390015	
-0.389832	
-0.389648	
-0.389526	
-0.389587	
-0.388184	
-0.387817	
-0.38678	
-0.388184	
-0.387024	
-0.38678	
-0.384949	
-0.386475	
-0.386658	
-0.385925	
-0.386353	
-0.385559	
-0.386047	
-0.386902	
-0.386841	
-0.387512	
-0.386841	
-0.387146	
-0.387573	
-0.388123	
-0.38855	
-0.387634	
-0.387573	
-0.38739	
-0.388489	
-0.388916	
-0.389771	
-0.388428	
-0.389038	
-0.389587	
-0.389832	
-0.389648	
-0.388672	
-0.389465	
-0.390015	
-0.390076	
-0.389832	
-0.390137	
-0.390198	
-0.390381	
-0.390869	
-0.391174	
-0.390686	
-0.389893	
-0.390015	
-0.391357	
-0.391479	
-0.391907	
-0.391296	
-0.391907	
-0.392944	
-0.3927	
-0.392151	
-0.392151	
-0.392639	
-0.393616	
-0.392944	
-0.393921	
-0.394165	
-0.393555	
-0.393677	
-0.393738	
-0.394958	
-0.393799	
-0.392151	
-0.393677	
-0.394043	
-0.393799	
-0.393188	
-0.392456	
-0.39325	
-0.393616	
-0.393066	
-0.393127	
-0.3927	
-0.392395	
-0.392273	
-0.3927	
-0.392456	
-0.392761	
-0.39209	
-0.391724	
-0.392883	
-0.391846	
-0.391541	
-0.389832	
-0.391663	
-0.393066	
-0.392273	
-0.392456	
-0.391541	
-0.392456	
-0.392883	
-0.392578	
-0.393616	
-0.392578	
-0.393005	
-0.392395	
-0.392761	
-0.393372	
-0.393799	
-0.39325	
-0.393311	
-0.393799	
-0.393616	
-0.393066	
-0.391846	
-0.392395	
-0.392822	
-0.392029	
-0.391602	
-0.390198	
-0.390564	
-0.390686	
-0.391235	
-0.39093	
-0.39032	
-0.389587	
-0.390259	
-0.390137	
-0.390625	
-0.390991	
-0.390442	
-0.390198	
-0.390625	
-0.390381	
-0.390869	
-0.390564	
-0.39093	
-0.390259	
-0.390808	
-0.391296	
-0.390076	
-0.390747	
-0.391174	
-0.391724	
-0.391907	
-0.391846	
-0.390747	
-0.392334	
-0.392822	
-0.392578	
-0.392944	
-0.393188	
-0.393066	
-0.393066	
-0.393555	
-0.394409	
-0.39325	
-0.393616	
-0.393738	
-0.393921	
-0.39386	
-0.393188	
-0.393616	
-0.393677	
-0.395142	
-0.393433	
-0.39386	
-0.392212	
-0.393799	
-0.39447	
-0.393982	
-0.394714	
-0.392456	
-0.394165	
-0.393555	
-0.393616	
-0.394043	
-0.393372	
-0.393005	
-0.393555	
-0.393005	
-0.392944	
-0.392334	
-0.391785	
-0.391785	
-0.393311	
-0.392029	
-0.391968	
-0.390076	
-0.391174	
-0.390564	
-0.39093	
-0.391663	
-0.389709	
-0.390381	
-0.389954	
-0.39032	
-0.390442	
-0.389954	
-0.389648	
-0.389648	
-0.389954	
-0.389832	
-0.390137	
-0.389954	
-0.389771	
-0.391296	
-0.390198	
-0.391113	
-0.389771	
-0.390198	
-0.390625	
-0.390442	
-0.391602	
-0.39093	
-0.390747	
-0.390747	
-0.392334	
-0.391785	
-0.390747	
-0.390015	
-0.391418	
-0.391296	
-0.390686	
-0.390625	
-0.38916	
-0.390625	
-0.390808	
-0.389832	
-0.390808	
-0.389648	
-0.390076	
-0.390076	
-0.390259	
-0.390381	
-0.389038	
-0.389526	
-0.389648	
-0.390747	
-0.390015	
-0.389893	
-0.389038	
-0.389893	
-0.391113	
-0.390076	
-0.389954	
-0.389465	
-0.389771	
-0.390625	
-0.390442	
-0.390564	
-0.389404	
-0.388	
-0.389648	
-0.389404	
-0.390381	
-0.389832	
-0.389465	
-0.389954	
-0.390198	
-0.389893	
-0.390381	
-0.388489	
-0.389771	
-0.388916	
-0.389404	
-0.388977	
-0.388611	
-0.389587	
-0.389587	
-0.391235	
-0.390869	
-0.390747	
-0.390869	
-0.391541	
-0.392151	
-0.392029	
-0.391663	
-0.391418	
-0.391846	
-0.393005	
-0.392395	
-0.392578	
-0.391418	
-0.392212	
-0.392822	
-0.392212	
-0.392761	
-0.392273	
-0.392151	
-0.391479	
-0.392883	
-0.391846	
-0.391846	
-0.390747	
-0.391296	
-0.390137	
-0.390564	
-0.390259	
-0.388916	
-0.389893	
-0.390869	
-0.390137	
-0.390137	
-0.389099	
-0.388977	
-0.388977	
-0.388672	
-0.389221	
-0.387573	
-0.388062	
-0.387329	
-0.38855	
-0.388	
-0.388428	
-0.386475	
-0.387024	
-0.388062	
-0.387634	
-0.38678	
-0.38678	
-0.386292	
-0.386719	
-0.386597	
-0.386658	
-0.386719	
-0.385864	
-0.387207	
-0.38678	
-0.387146	
-0.386658	
-0.386963	
-0.387207	
-0.388611	
-0.388245	
-0.38855	
-0.387024	
-0.388733	
-0.38916	
-0.38916	
-0.389038	
-0.389343	
-0.390015	
-0.390442	
-0.3927	
-0.391968	
-0.392395	
-0.390503	
-0.392334	
-0.392212	
-0.393066	
-0.392578	
-0.391724	
-0.392517	
-0.393921	
-0.392822	
-0.393005	
-0.39209	
-0.391907	
-0.392151	
-0.391846	
-0.391785	
-0.391174	
-0.390625	
-0.389893	
-0.392273	
-0.390564	
-0.391052	
-0.388855	
-0.390625	
-0.390198	
-0.389587	
-0.389526	
-0.389526	
-0.388977	
-0.389587	
-0.390259	
-0.389282	
-0.389954	
-0.388489	
-0.38916	
-0.388794	
-0.389893	
-0.389038	
-0.388062	
-0.387878	
-0.389099	
-0.388062	
-0.388245	
-0.387695	
-0.387329	
-0.387756	
-0.387939	
-0.387451	
-0.387146	
-0.386475	
-0.386597	
-0.387085	
-0.386353	
-0.38739	
-0.38562	
-0.386414	
-0.386108	
-0.387024	
-0.386658	
-0.385803	
-0.385803	
-0.387451	
-0.387817	
-0.387024	
-0.386658	
-0.385925	
-0.386597	
-0.387817	
-0.38739	
-0.386963	
-0.386292	
-0.386963	
-0.387817	
-0.387756	
-0.387939	
-0.386719	
-0.387695	
-0.388611	
-0.38855	
-0.387817	
-0.387634	
-0.387756	
-0.388	
-0.388611	
-0.387878	
-0.388184	
-0.387451	
-0.387939	
-0.387207	
-0.388245	
-0.387451	
-0.386292	
-0.386108	
-0.388184	
-0.387512	
-0.386963	
-0.386719	
-0.385742	
-0.38678	
-0.387146	
-0.387268	
-0.387146	
-0.387451	
-0.387634	
-0.389526	
-0.388977	
-0.389465	
-0.388	
-0.389038	
-0.390259	
-0.390503	
-0.389709	
-0.389526	
-0.389343	
-0.390076	
-0.390503	
-0.390076	
-0.390137	
-0.389832	
-0.390137	
-0.389404	
-0.39032	
-0.389465	
-0.389404	
-0.388245	
-0.390198	
-0.390076	
-0.389343	
-0.38855	
-0.388367	
-0.388794	
-0.389282	
-0.388672	
-0.388306	
-0.388184	
-0.388367	
-0.387695	
-0.387329	
-0.387634	
-0.385742	
-0.386047	
-0.386963	
-0.387817	
-0.387146	
-0.385742	
-0.386414	
-0.38739	
-0.388	
-0.386963	
-0.387024	
-0.387085	
-0.387146	
-0.387146	
-0.387329	
-0.386719	
-0.386902	
-0.385986	
-0.387878	
-0.387756	
-0.387939	
-0.38623	
-0.386475	
-0.387817	
-0.387634	
-0.387268	
-0.386536	
-0.388123	
-0.388611	
-0.388855	
-0.388977	
-0.38916	
-0.388489	
-0.388611	
-0.388611	
-0.389893	
-0.389038	
-0.389221	
-0.38916	
-0.390381	
-0.390564	
-0.390076	
-0.390015	
-0.390198	
-0.391113	
-0.390625	
-0.390869	
-0.389832	
-0.390808	
-0.389954	
-0.391846	
-0.391724	
-0.391785	
-0.390137	
-0.390747	
-0.390686	
-0.391113	
-0.390625	
-0.391296	
-0.390747	
-0.391174	
-0.39093	
-0.391357	
-0.390503	
-0.389893	
-0.389832	
-0.38916	
-0.390625	
-0.388672	
-0.390015	
-0.389465	
-0.391357	
-0.390442	
-0.390503	
-0.389893	
-0.39032	
-0.390015	
-0.390808	
-0.390503	
-0.390625	
-0.39093	
-0.391296	
-0.391602	
-0.391968	
-0.392029	
-0.390991	
-0.391663	
-0.390259	
-0.391602	
-0.39032	
-0.391174	
-0.391113	
-0.391479	
-0.390991	
-0.391235	
-0.390747	
-0.390808	
-0.389954	
-0.390503	
-0.39209	
-0.390808	
-0.391357	
-0.390747	
-0.391724	
-0.391663	
-0.391846	
-0.390625	
-0.391479	
-0.390869	
-0.391541	
-0.390808	
-0.391418	
-0.391724	
-0.391907	
-0.391785	
-0.392639	
-0.392334	
-0.391174	
-0.390991	
-0.389099	
-0.390076	
-0.389038	
-0.389404	
-0.388916	
-0.389771	
-0.389282	
-0.389343	
-0.388672	
-0.389282	
-0.387634	
-0.388977	
-0.389099	
-0.388733	
-0.388428	
-0.387512	
-0.389404	
-0.388916	
-0.389526	
-0.387817	
-0.38916	
-0.388733	
-0.389709	
-0.388	
-0.389832	
-0.389954	
-0.390015	
-0.39032	
-0.391357	
-0.390808	
-0.390747	
-0.390076	
-0.389526	
-0.391602	
-0.391357	
-0.391785	
-0.391357	
-0.392578	
-0.392212	
-0.393066	
-0.3927	
-0.393738	
-0.391479	
-0.393494	
-0.393799	
-0.393433	
-0.393372	
-0.393188	
-0.394592	
-0.394348	
-0.394409	
-0.393127	
-0.393982	
-0.393799	
-0.39447	
-0.393372	
-0.393982	
-0.394592	
-0.394592	
-0.394348	
-0.395203	
-0.394348	
-0.393066	
-0.392334	
-0.391846	
-0.393677	
-0.392578	
-0.392212	
-0.39093	
-0.391907	
-0.390869	
-0.390686	
-0.390442	
-0.390015	
-0.388977	
-0.389038	
-0.387939	
-0.388855	
-0.388184	
-0.388062	
-0.388977	
-0.389221	
-0.389282	
-0.388733	
-0.388611	
-0.388855	
-0.389038	
-0.389038	
-0.388916	
-0.389038	
-0.389465	
-0.390137	
-0.390015	
-0.390564	
-0.389893	
-0.389893	
-0.389465	
-0.390686	
-0.391052	
-0.391052	
-0.390137	
-0.391602	
-0.391602	
-0.391418	
-0.391663	
-0.391113	
-0.391541	
-0.391907	
-0.392212	
-0.391724	
-0.391541	
-0.391235	
-0.392822	
-0.392578	
-0.392944	
-0.392944	
-0.391968	
-0.392639	
-0.392883	
-0.392944	
-0.393311	
-0.393677	
-0.394165	
-0.395142	
-0.393921	
-0.394714	
-0.393555	
-0.394348	
-0.393555	
-0.395386	
-0.39502	
-0.395142	
-0.394775	
-0.395264	
-0.395569	
-0.39563	
-0.39502	
-0.39386	
-0.394592	
-0.394165	
-0.393921	
-0.39386	
-0.393982	
-0.392883	
-0.394348	
-0.393921	
-0.394409	
-0.392822	
-0.393311	
-0.392578	
-0.39209	
-0.392883	
-0.392822	
-0.392395	
-0.392456	
-0.394104	
-0.392456	
-0.393372	
-0.391479	
-0.392517	
-0.391663	
-0.394226	
-0.393433	
-0.393005	
-0.393188	
-0.393921	
-0.393555	
-0.393372	
-0.394104	
-0.392456	
-0.393005	
-0.392456	
-0.393921	
-0.393494	
-0.393616	
-0.3927	
-0.394165	
-0.392944	
-0.393372	
-0.391602	
-0.392029	
-0.391235	
-0.391174	
-0.390869	
-0.390808	
-0.390442	
-0.39032	
-0.39209	
-0.390686	
-0.391907	
-0.388977	
-0.390503	
-0.389648	
-0.391296	
-0.390381	
-0.390503	
-0.390198	
-0.391113	
-0.391357	
-0.390808	
-0.391296	
-0.389893	
-0.390686	
-0.389343	
-0.391296	
-0.391357	
-0.391113	
-0.39093	
-0.392639	
-0.391602	
-0.392578	
-0.392273	
-0.392822	
-0.392395	
-0.393188	
-0.393005	
-0.393188	
-0.393372	
-0.39386	
-0.394836	
-0.393555	
-0.395264	
-0.392151	
-0.393066	
-0.392151	
-0.393921	
-0.393372	
-0.393799	
-0.393005	
-0.393799	
-0.393799	
-0.393677	
-0.394043	
-0.3927	
-0.393799	
-0.392151	
-0.393555	
-0.393188	
-0.393066	
-0.392334	
-0.394226	
-0.393005	
-0.393005	
-0.392029	
-0.391968	
-0.391235	
-0.391785	
-0.391846	
-0.391357	
-0.391052	
-0.391357	
-0.392029	
-0.391296	
-0.392273	
-0.389587	
-0.390015	
-0.389343	
-0.390869	
-0.389832	
-0.389832	
-0.389038	
-0.390198	
-0.390259	
-0.389526	
-0.389832	
-0.388794	
-0.389709	
-0.387756	
-0.389771	
-0.389709	
-0.389587	
-0.389954	
-0.390808	
-0.389954	
-0.390442	
-0.389221	
-0.389954	
-0.390381	
-0.391235	
-0.390564	
-0.39032	
-0.389587	
-0.390747	
-0.391418	
-0.390686	
-0.391479	
-0.389465	
-0.389954	
-0.389526	
-0.389587	
-0.389343	
-0.389343	
-0.389587	
-0.390564	
-0.390137	
-0.389587	
-0.390137	
-0.388611	
-0.388672	
-0.388	
-0.38916	
-0.389099	
-0.388062	
-0.389282	
-0.390259	
-0.389771	
-0.390015	
-0.388	
-0.389526	
-0.389221	
-0.389099	
-0.389038	
-0.389343	
-0.389038	
-0.389038	
-0.389954	
-0.388733	
-0.390381	
-0.388489	
-0.389404	
-0.389099	
-0.389465	
-0.38916	
-0.388855	
-0.389282	
-0.390076	
-0.388916	
-0.388855	
-0.389648	
-0.388672	
-0.388611	
-0.388306	
-0.389526	
-0.389954	
-0.389038	
-0.390564	
-0.392212	
-0.390564	
-0.391235	
-0.390198	
-0.391113	
-0.391174	
-0.390442	
-0.391235	
-0.391418	
-0.391663	
-0.392151	
-0.392822	
-0.391968	
-0.392761	
-0.390808	
-0.392029	
-0.391479	
-0.391785	
-0.391479	
-0.39093	
-0.39093	
-0.391418	
-0.390259	
-0.39032	
-0.390076	
-0.389343	
-0.389526	
-0.389282	
-0.388977	
-0.389465	
-0.388428	
-0.389282	
-0.390198	
-0.388428	
-0.389343	
-0.386536	
-0.387451	
-0.387512	
-0.386475	
-0.387512	
-0.386841	
-0.38678	
-0.387268	
-0.386841	
-0.387512	
-0.386597	
-0.386169	
-0.386353	
-0.386414	
-0.386047	
-0.386169	
-0.385742	
-0.386292	
-0.387573	
-0.386597	
-0.38678	
-0.386414	
-0.38678	
-0.387085	
-0.386719	
-0.386658	
-0.38739	
-0.387207	
-0.388367	
-0.389099	
-0.388184	
-0.38916	
-0.388123	
-0.389893	
-0.389282	
-0.38916	
-0.390991	
-0.390808	
-0.391846	
-0.392151	
-0.391846	
-0.391724	
-0.391968	
-0.391785	
-0.392212	
-0.392639	
-0.392456	
-0.392395	
-0.390991	
-0.391907	
-0.392456	
-0.391602	
-0.39209	
-0.390259	
-0.391174	
-0.390503	
-0.389832	
-0.390076	
-0.389648	
-0.390259	
-0.389893	
-0.390381	
-0.389893	
-0.389832	
-0.388367	
-0.388916	
-0.388489	
-0.387695	
-0.388733	
-0.388855	
-0.389038	
-0.389954	
-0.388489	
-0.388489	
-0.388428	
-0.388245	
-0.388184	
-0.388062	
-0.38739	
-0.387817	
-0.386658	
-0.387451	
-0.388367	
-0.38678	
-0.38739	
-0.386169	
-0.386292	
-0.38623	
-0.386047	
-0.386047	
-0.385498	
-0.385986	
-0.38678	
-0.387146	
-0.386108	
-0.385925	
-0.385376	
-0.385803	
-0.385925	
-0.384949	
-0.386719	
-0.386353	
-0.386353	
-0.386841	
-0.38678	
-0.387085	
-0.38623	
-0.386292	
-0.386902	
-0.387329	
-0.387146	
-0.387268	
-0.387085	
-0.388062	
-0.389771	
-0.388	
-0.388733	
-0.388	
-0.387634	
-0.387268	
-0.386902	
-0.387329	
-0.387329	
-0.387512	
-0.387756	
-0.388	
-0.387268	
-0.386902	
-0.386047	
-0.386902	
-0.387146	
-0.385986	
-0.386597	
-0.385071	
-0.386414	
-0.386841	
-0.386841	
-0.387146	
-0.386902	
-0.387146	
-0.386902	
-0.387939	
-0.388245	
-0.388306	
-0.388611	
-0.389648	
-0.390503	
-0.389526	
-0.389709	
-0.389954	
-0.38916	
-0.390015	
-0.389465	
-0.390015	
-0.389771	
-0.390076	
-0.390259	
-0.390625	
-0.390686	
-0.389526	
-0.387939	
-0.389343	
-0.389893	
-0.389343	
-0.389282	
-0.388184	
-0.389343	
-0.389771	
-0.389465	
-0.389099	
-0.388916	
-0.388245	
-0.38739	
-0.387146	
-0.387085	
-0.386597	
-0.386536	
-0.38678	
-0.38855	
-0.387756	
-0.38678	
-0.386108	
-0.386719	
-0.387512	
-0.386108	
-0.386963	
-0.387085	
-0.387207	
-0.387573	
-0.387756	
-0.387268	
-0.386597	
-0.385681	
-0.385986	
-0.387451	
-0.386597	
-0.386841	
-0.387451	
-0.387451	
-0.388	
-0.387512	
-0.387268	
-0.386719	
-0.38739	
-0.388	
-0.389526	
-0.388184	
-0.388062	
-0.38739	
-0.389099	
-0.390076	
-0.390259	
-0.389221	
-0.389771	
-0.388733	
-0.389954	
-0.389038	
-0.390015	
-0.389954	
-0.390442	
-0.391479	
-0.391602	
-0.390991	
-0.39032	
-0.389954	
-0.391113	
-0.392029	
-0.390686	
-0.391052	
-0.391052	
-0.391479	
-0.392151	
-0.392151	
-0.391296	
-0.390381	
-0.390869	
-0.39093	
-0.391357	
-0.390991	
-0.390564	
-0.389343	
-0.390686	
-0.390625	
-0.39032	
-0.389526	
-0.390625	
-0.389465	
-0.390747	
-0.390198	
-0.390747	
-0.390625	
-0.39093	
-0.391479	
-0.391846	
-0.390564	
-0.390808	
-0.390198	
-0.391418	
-0.391846	
-0.390198	
-0.391663	
-0.391357	
-0.391357	
-0.391968	
-0.392273	
-0.391479	
-0.390747	
-0.390625	
-0.391357	
-0.391907	
-0.390991	
-0.391235	
-0.390625	
-0.391602	
-0.392029	
-0.391174	
-0.390991	
-0.391968	
-0.391663	
-0.391357	
-0.391479	
-0.391724	
-0.391418	
-0.390747	
-0.392456	
-0.392761	
-0.391479	
-0.391296	
-0.390747	
-0.392334	
-0.39209	
-0.392029	
-0.391968	
-0.391602	
-0.391968	
-0.391785	
-0.390503	
-0.389954	
-0.389343	
-0.389771	
-0.389648	
-0.390137	
-0.389343	
-0.389343	
-0.389465	
-0.389771	
-0.390503	
-0.389099	
-0.389221	
-0.388855	
-0.388794	
-0.389221	
-0.389099	
-0.389099	
-0.389038	
-0.388428	
-0.390503	
-0.391113	
-0.389893	
-0.389771	
-0.388428	
-0.390625	
-0.390747	
-0.390869	
-0.390564	
-0.391113	
-0.391357	
-0.391846	
-0.391174	
-0.391602	
-0.391907	
-0.392334	
-0.392639	
-0.393188	
-0.393127	
-0.393066	
-0.392761	
-0.394104	
-0.395081	
-0.393799	
-0.393311	
-0.393494	
-0.394348	
-0.394348	
-0.394104	
-0.39447	
-0.394287	
-0.393494	
-0.395813	
-0.395264	
-0.39447	
-0.393982	
-0.393677	
-0.394958	
	
