E:\DOCUMENTS AND SETTINGS\JPOTAS\MEUS DOCUMENTOS\UFRJ\RSCI-BM 12 WK SERIES\070720-RSCI-BM-04\RSCI-BM-04-REMG\070720-RSCI-BM-REMG-0008.ACQ
0.025000 msec/sample
1 channel
Analog input
Volts
CH1	
2000	
-0.391174	
-0.390991	
-0.390198	
-0.391113	
-0.392212	
-0.390869	
-0.391296	
-0.391052	
-0.392944	
-0.392517	
-0.392334	
-0.392151	
-0.392212	
-0.394043	
-0.39325	
-0.393127	
-0.393127	
-0.393738	
-0.39386	
-0.395264	
-0.395081	
-0.394348	
-0.39386	
-0.394775	
-0.396057	
-0.39502	
-0.394531	
-0.391907	
-0.394287	
-0.394409	
-0.394836	
-0.395203	
-0.394165	
-0.393127	
-0.393188	
-0.393188	
-0.394287	
-0.393127	
-0.393494	
-0.392578	
-0.39325	
-0.393005	
-0.393066	
-0.392578	
-0.392639	
-0.393982	
-0.392944	
-0.392578	
-0.391174	
-0.392578	
-0.392395	
-0.393616	
-0.392944	
-0.392517	
-0.392578	
-0.392822	
-0.393188	
-0.392944	
-0.392212	
-0.3927	
-0.3927	
-0.39325	
-0.39325	
-0.393799	
-0.3927	
-0.391846	
-0.393738	
-0.392212	
-0.393188	
-0.391418	
-0.391968	
-0.391663	
-0.391663	
-0.391785	
-0.391296	
-0.391052	
-0.390503	
-0.390259	
-0.389954	
-0.390015	
-0.388733	
-0.389099	
-0.388123	
-0.389954	
-0.389587	
-0.389038	
-0.389282	
-0.390808	
-0.389954	
-0.389893	
-0.389526	
-0.390564	
-0.390564	
-0.391235	
-0.391785	
-0.391724	
-0.391907	
-0.391235	
-0.392334	
-0.392395	
-0.393372	
-0.390686	
-0.392883	
-0.392761	
-0.392883	
-0.393311	
-0.39325	
-0.393494	
-0.393921	
-0.394104	
-0.394409	
-0.394165	
-0.393677	
-0.394226	
-0.393616	
-0.394592	
-0.394592	
-0.394043	
-0.393616	
-0.394714	
-0.393921	
-0.393738	
-0.392029	
-0.393127	
-0.392822	
-0.392822	
-0.392578	
-0.391785	
-0.391174	
-0.390076	
-0.390991	
-0.390747	
-0.390808	
-0.389282	
-0.390259	
-0.389954	
-0.390198	
-0.390198	
-0.39032	
-0.389587	
-0.390381	
-0.389465	
-0.390259	
-0.389771	
-0.389709	
-0.389404	
-0.388672	
-0.390259	
-0.390381	
-0.389038	
-0.389648	
-0.390442	
-0.390076	
-0.390564	
-0.387939	
-0.389465	
-0.389648	
-0.390076	
-0.390381	
-0.389343	
-0.389771	
-0.388672	
-0.390198	
-0.390015	
-0.390503	
-0.389771	
-0.390808	
-0.390259	
-0.390991	
-0.391846	
-0.391357	
-0.391479	
-0.391479	
-0.392029	
-0.391968	
-0.391602	
-0.392578	
-0.392578	
-0.393066	
-0.39386	
-0.393494	
-0.393066	
-0.392822	
-0.394653	
-0.393311	
-0.393555	
-0.391418	
-0.392944	
-0.392395	
-0.392883	
-0.394287	
-0.392517	
-0.392212	
-0.390503	
-0.391724	
-0.392334	
-0.392456	
-0.390869	
-0.390625	
-0.389832	
-0.391602	
-0.390991	
-0.390503	
-0.391541	
-0.392883	
-0.391785	
-0.391907	
-0.390747	
-0.391724	
-0.391663	
-0.391296	
-0.392029	
-0.391174	
-0.391724	
-0.391235	
-0.391907	
-0.390808	
-0.391663	
-0.39032	
-0.391235	
-0.391296	
-0.391602	
-0.3927	
-0.391296	
-0.391479	
-0.389832	
-0.390625	
-0.390808	
-0.390991	
-0.390808	
-0.390625	
-0.38916	
-0.391357	
-0.39032	
-0.389648	
-0.389648	
-0.390991	
-0.389587	
-0.389526	
-0.388245	
-0.389221	
-0.38916	
-0.389465	
-0.390625	
-0.389771	
-0.390198	
-0.389832	
-0.390564	
-0.390686	
-0.391357	
-0.390503	
-0.39093	
-0.390625	
-0.391357	
-0.391907	
-0.391724	
-0.391724	
-0.392639	
-0.392029	
-0.392151	
-0.391724	
-0.392151	
-0.392944	
-0.392029	
-0.393372	
-0.393005	
-0.392822	
-0.392212	
-0.393616	
-0.392883	
-0.393066	
-0.390442	
-0.392273	
-0.392029	
-0.392212	
-0.392639	
-0.391663	
-0.391907	
-0.391724	
-0.392212	
-0.392639	
-0.392517	
-0.392761	
-0.3927	
-0.39209	
-0.394653	
-0.394897	
-0.395081	
-0.395691	
-0.398193	
-0.398621	
-0.400024	
-0.398926	
-0.40332	
-0.405029	
-0.40741	
-0.410706	
-0.411926	
-0.413818	
-0.417908	
-0.419922	
-0.423401	
-0.424927	
-0.428345	
-0.430969	
-0.434326	
-0.437439	
-0.439636	
-0.441956	
-0.445007	
-0.447266	
-0.450195	
-0.451904	
-0.454163	
-0.456726	
-0.458557	
-0.462219	
-0.464844	
-0.467468	
-0.470886	
-0.474304	
-0.478271	
-0.482422	
-0.483765	
-0.489441	
-0.492798	
-0.497314	
-0.501221	
-0.505249	
-0.508728	
-0.513367	
-0.516418	
-0.519897	
-0.522705	
-0.526489	
-0.52948	
-0.531616	
-0.534485	
-0.535583	
-0.536743	
-0.536377	
-0.537476	
-0.539063	
-0.539856	
-0.538269	
-0.539185	
-0.538635	
-0.539307	
-0.539124	
-0.538086	
-0.53656	
-0.536011	
-0.533936	
-0.532776	
-0.53064	
-0.530334	
-0.528992	
-0.52832	
-0.527405	
-0.525879	
-0.522644	
-0.520691	
-0.518799	
-0.516968	
-0.515076	
-0.510986	
-0.51001	
-0.506592	
-0.504761	
-0.501404	
-0.498047	
-0.494873	
-0.492126	
-0.488037	
-0.484253	
-0.479187	
-0.476013	
-0.47229	
-0.468445	
-0.465332	
-0.461792	
-0.457092	
-0.453003	
-0.449768	
-0.445862	
-0.4422	
-0.436951	
-0.433655	
-0.429077	
-0.425232	
-0.420288	
-0.415344	
-0.409363	
-0.404724	
-0.397644	
-0.393677	
-0.388489	
-0.383423	
-0.37915	
-0.373779	
-0.371277	
-0.366821	
-0.363342	
-0.359802	
-0.357849	
-0.354187	
-0.352234	
-0.348267	
-0.347656	
-0.346252	
-0.344788	
-0.343933	
-0.34436	
-0.343201	
-0.344421	
-0.34314	
-0.344482	
-0.344788	
-0.345398	
-0.346191	
-0.346252	
-0.348877	
-0.348999	
-0.349487	
-0.349609	
-0.35144	
-0.351501	
-0.352417	
-0.351746	
-0.353088	
-0.353333	
-0.354492	
-0.353943	
-0.354309	
-0.354065	
-0.355774	
-0.354431	
-0.355347	
-0.354675	
-0.355957	
-0.355896	
-0.356445	
-0.356628	
-0.358521	
-0.357666	
-0.358826	
-0.358154	
-0.359375	
-0.359436	
-0.359863	
-0.360657	
-0.360657	
-0.361877	
-0.362549	
-0.362732	
-0.363953	
-0.364197	
-0.364868	
-0.366455	
-0.365845	
-0.366699	
-0.366516	
-0.368469	
-0.367981	
-0.368408	
-0.368225	
-0.369385	
-0.369446	
-0.370728	
-0.369873	
-0.370544	
-0.370972	
-0.371948	
-0.37146	
-0.372009	
-0.371216	
-0.372803	
-0.370605	
-0.371216	
-0.369873	
-0.371582	
-0.371704	
-0.371582	
-0.37207	
-0.373352	
-0.372131	
-0.373596	
-0.372009	
-0.373047	
-0.372009	
-0.372986	
-0.372681	
-0.37262	
-0.373352	
-0.373718	
-0.373108	
-0.373535	
-0.373108	
-0.373901	
-0.373779	
-0.372803	
-0.37262	
-0.372192	
-0.373291	
-0.372559	
-0.372253	
-0.370544	
-0.371826	
-0.370544	
-0.370422	
-0.369873	
-0.369629	
-0.370056	
-0.37085	
-0.370422	
-0.371887	
-0.371765	
-0.372803	
-0.371704	
-0.372375	
-0.372498	
-0.373535	
-0.37384	
-0.374573	
-0.375793	
-0.377014	
-0.376587	
-0.378296	
-0.377441	
-0.377747	
-0.37854	
-0.379028	
-0.378784	
-0.378906	
-0.380188	
-0.3797	
-0.380737	
-0.379211	
-0.380798	
-0.380737	
-0.380554	
-0.379639	
-0.381104	
-0.380981	
-0.381897	
-0.381531	
-0.381592	
-0.381836	
-0.38324	
-0.38147	
-0.381714	
-0.381165	
-0.381165	
-0.381165	
-0.380676	
-0.382324	
-0.381775	
-0.382568	
-0.382141	
-0.383423	
-0.382446	
-0.384155	
-0.383911	
-0.385193	
-0.385864	
-0.387634	
-0.388184	
-0.389893	
-0.390808	
-0.393494	
-0.393616	
-0.395386	
-0.39563	
-0.399231	
-0.401489	
-0.404114	
-0.406189	
-0.408752	
-0.4104	
-0.414246	
-0.415039	
-0.417297	
-0.417908	
-0.422363	
-0.424133	
-0.426514	
-0.429321	
-0.432373	
-0.434326	
-0.437927	
-0.438904	
-0.441833	
-0.442871	
-0.447571	
-0.450073	
-0.453125	
-0.457031	
-0.460693	
-0.464783	
-0.468689	
-0.473206	
-0.47644	
-0.481201	
-0.485535	
-0.489319	
-0.492493	
-0.498962	
-0.502441	
-0.507019	
-0.510132	
-0.513367	
-0.515747	
-0.518982	
-0.521118	
-0.523193	
-0.525818	
-0.528259	
-0.530029	
-0.531433	
-0.532715	
-0.535217	
-0.534119	
-0.535217	
-0.534058	
-0.534973	
-0.534912	
-0.534363	
-0.534668	
-0.533142	
-0.532959	
-0.531494	
-0.529968	
-0.527588	
-0.5271	
-0.525452	
-0.523071	
-0.519836	
-0.518372	
-0.51593	
-0.513306	
-0.51062	
-0.508301	
-0.504639	
-0.502136	
-0.49823	
-0.495728	
-0.49231	
-0.489258	
-0.486328	
-0.482178	
-0.478699	
-0.474304	
-0.470642	
-0.466187	
-0.463074	
-0.459839	
-0.455994	
-0.451477	
-0.449158	
-0.444702	
-0.440918	
-0.436707	
-0.432739	
-0.427734	
-0.423584	
-0.417297	
-0.412903	
-0.407654	
-0.402771	
-0.397888	
-0.392212	
-0.387695	
-0.381897	
-0.376343	
-0.371155	
-0.366821	
-0.361938	
-0.357666	
-0.353333	
-0.351929	
-0.348816	
-0.346252	
-0.344421	
-0.343262	
-0.34137	
-0.339966	
-0.338989	
-0.339722	
-0.339417	
-0.340393	
-0.340637	
-0.341003	
-0.342285	
-0.343628	
-0.343323	
-0.343994	
-0.345032	
-0.346191	
-0.347778	
-0.347839	
-0.350586	
-0.350891	
-0.351929	
-0.351929	
-0.352661	
-0.353577	
-0.355103	
-0.354492	
-0.355347	
-0.355591	
-0.356934	
-0.356567	
-0.356689	
-0.3573	
-0.358215	
-0.357605	
-0.358154	
-0.357605	
-0.359253	
-0.358948	
-0.359497	
-0.359253	
-0.359558	
-0.360718	
-0.361389	
-0.360168	
-0.359558	
-0.359863	
-0.360718	
-0.360901	
-0.361572	
-0.361145	
-0.361694	
-0.362122	
-0.363281	
-0.362244	
-0.362549	
-0.362183	
-0.362854	
-0.363159	
-0.362549	
-0.363464	
-0.363464	
-0.363342	
-0.363953	
-0.362732	
-0.362732	
-0.362854	
-0.362122	
-0.362549	
-0.361938	
-0.362488	
-0.362427	
-0.363342	
-0.364502	
-0.363464	
-0.364319	
-0.364197	
-0.365051	
-0.365662	
-0.366211	
-0.366943	
-0.367065	
-0.367554	
-0.368958	
-0.368835	
-0.369385	
-0.368896	
-0.36969	
-0.370483	
-0.370789	
-0.371765	
-0.371399	
-0.372192	
-0.372375	
-0.374451	
-0.373718	
-0.37384	
-0.373352	
-0.374268	
-0.374878	
-0.375732	
-0.374878	
-0.375305	
-0.375305	
-0.377136	
-0.375549	
-0.375854	
-0.375488	
-0.376526	
-0.376648	
-0.376282	
-0.377258	
-0.37677	
-0.376892	
-0.378418	
-0.377258	
-0.377625	
-0.377563	
-0.378174	
-0.378174	
-0.378723	
-0.380066	
-0.379089	
-0.37915	
-0.37915	
-0.380676	
-0.379822	
-0.380249	
-0.379028	
-0.380615	
-0.380737	
-0.381409	
-0.381714	
-0.381714	
-0.381653	
-0.384521	
-0.382202	
-0.382446	
-0.382446	
-0.382874	
-0.383423	
-0.38324	
-0.384338	
-0.384277	
-0.384644	
-0.385559	
-0.385132	
-0.384949	
-0.384827	
-0.385437	
-0.386169	
-0.38623	
-0.38739	
-0.387268	
-0.387207	
-0.387146	
-0.388611	
-0.387329	
-0.387756	
-0.386047	
-0.387878	
-0.388428	
-0.388794	
-0.388245	
-0.388428	
-0.387695	
-0.390442	
-0.388733	
-0.389038	
-0.387024	
-0.388184	
-0.388428	
-0.388367	
-0.388062	
-0.388123	
-0.387573	
-0.389282	
-0.387634	
-0.386841	
-0.38739	
-0.387024	
-0.387024	
-0.38678	
-0.386719	
-0.386536	
-0.386597	
-0.387146	
-0.387817	
-0.386292	
-0.385925	
-0.384888	
-0.38623	
-0.386108	
-0.385864	
-0.385803	
-0.385681	
-0.385986	
-0.387146	
-0.385925	
-0.385437	
-0.385315	
-0.385254	
-0.385803	
-0.385681	
-0.385437	
-0.384949	
-0.384277	
-0.385681	
-0.385376	
-0.384033	
-0.383484	
-0.383667	
-0.384216	
-0.383911	
-0.383545	
-0.383057	
-0.382813	
-0.383179	
-0.383728	
-0.38269	
-0.381775	
-0.380188	
-0.380371	
-0.381348	
-0.38092	
-0.380493	
-0.38031	
-0.380127	
-0.381775	
-0.380798	
-0.380005	
-0.380127	
-0.380249	
-0.380493	
-0.381042	
-0.380249	
-0.38031	
-0.38031	
-0.381287	
-0.381836	
-0.381836	
-0.380554	
-0.380859	
-0.380432	
-0.381348	
-0.381409	
-0.381531	
-0.381653	
-0.381042	
-0.383423	
-0.382385	
-0.38208	
-0.381409	
-0.382324	
-0.382385	
-0.38269	
-0.382507	
-0.382324	
-0.381836	
-0.382263	
-0.382263	
-0.382019	
-0.381653	
-0.381226	
-0.3797	
-0.38092	
-0.380371	
-0.380615	
-0.380371	
-0.379639	
-0.379944	
-0.379456	
-0.379272	
-0.378357	
-0.378113	
-0.378357	
-0.378601	
-0.378235	
-0.378296	
-0.378418	
-0.379028	
-0.378601	
-0.378967	
-0.378174	
-0.378479	
-0.378418	
-0.379456	
-0.380127	
-0.380249	
-0.380188	
-0.380554	
-0.381348	
-0.38092	
-0.380554	
-0.380493	
-0.380127	
-0.380188	
-0.380737	
-0.380554	
-0.380249	
-0.38031	
-0.381226	
-0.380737	
-0.380798	
-0.380066	
-0.380127	
-0.379578	
-0.380737	
-0.380737	
-0.381165	
-0.380798	
-0.381226	
-0.382751	
-0.381958	
-0.381287	
-0.380676	
-0.381714	
-0.382568	
-0.383118	
-0.382507	
-0.382446	
-0.381348	
-0.383057	
-0.38324	
-0.383789	
-0.382629	
-0.382263	
-0.381836	
-0.382446	
-0.382446	
-0.382324	
-0.381653	
-0.381714	
-0.382996	
-0.382263	
-0.381531	
-0.381042	
-0.38031	
-0.380127	
-0.379578	
-0.379761	
-0.379333	
-0.378784	
-0.380371	
-0.380493	
-0.381165	
-0.380554	
-0.379578	
-0.378967	
-0.380432	
-0.380493	
-0.380249	
-0.380188	
-0.380981	
-0.381836	
-0.380798	
-0.380859	
-0.381287	
-0.380737	
-0.381409	
-0.380066	
-0.381287	
-0.380798	
-0.380859	
-0.381348	
-0.38147	
-0.381226	
-0.380859	
-0.37915	
-0.379761	
-0.380737	
-0.380127	
-0.380554	
-0.379456	
-0.380493	
-0.381409	
-0.380554	
-0.380371	
-0.380432	
-0.379944	
-0.380798	
-0.379517	
-0.380432	
-0.379944	
-0.380615	
-0.380798	
-0.382019	
-0.381958	
-0.381531	
-0.379395	
-0.381287	
-0.381714	
-0.38208	
-0.382385	
-0.382996	
-0.382996	
-0.383911	
-0.384094	
-0.383911	
-0.38385	
-0.384033	
-0.384827	
-0.383728	
-0.38446	
-0.383606	
-0.384155	
-0.383789	
-0.384766	
-0.383667	
-0.383423	
-0.380737	
-0.381104	
-0.382202	
-0.381775	
-0.381226	
-0.380371	
-0.381165	
-0.381531	
-0.380127	
-0.380066	
-0.380188	
-0.379395	
-0.3797	
-0.378296	
-0.379028	
-0.378723	
-0.379028	
-0.378906	
-0.378723	
-0.379028	
-0.378113	
-0.377014	
-0.377075	
-0.378662	
-0.378601	
-0.377686	
-0.377441	
-0.378906	
-0.380188	
-0.379517	
-0.379028	
-0.37915	
-0.379211	
-0.379578	
-0.379822	
-0.380554	
-0.380188	
-0.380859	
-0.381287	
-0.382324	
-0.382324	
-0.381287	
-0.381226	
-0.381653	
-0.382996	
-0.381897	
-0.381836	
-0.381714	
-0.382202	
-0.383179	
-0.382874	
-0.382813	
-0.381775	
-0.382141	
-0.382202	
-0.381958	
-0.382568	
-0.382813	
-0.382263	
-0.382629	
-0.382568	
-0.382751	
-0.381836	
-0.381897	
-0.381897	
-0.382507	
-0.382507	
-0.382385	
-0.381836	
-0.382935	
-0.383545	
-0.382385	
-0.38269	
-0.381592	
-0.380737	
-0.38031	
-0.38147	
-0.381165	
-0.381042	
-0.380005	
-0.380676	
-0.379944	
-0.380371	
-0.380188	
-0.379395	
-0.378113	
-0.37854	
-0.376831	
-0.377625	
-0.377808	
-0.377869	
-0.379211	
-0.379517	
-0.378906	
-0.377563	
-0.377258	
-0.377075	
-0.378174	
-0.378113	
-0.378662	
-0.378052	
-0.379028	
-0.379211	
-0.379211	
-0.379272	
-0.3797	
-0.379028	
-0.379272	
-0.378357	
-0.379761	
-0.379578	
-0.379822	
-0.380432	
-0.381042	
-0.380676	
-0.380249	
-0.379578	
-0.379272	
-0.380554	
-0.380127	
-0.380371	
-0.379578	
-0.380798	
-0.381714	
-0.381409	
-0.38092	
-0.380249	
-0.380493	
-0.381165	
-0.379761	
-0.380554	
-0.380981	
-0.381042	
-0.38147	
-0.381531	
-0.382141	
-0.381897	
-0.381287	
-0.380615	
-0.382446	
-0.381775	
-0.382019	
-0.381287	
-0.38269	
-0.383301	
-0.383118	
-0.38269	
-0.382385	
-0.381775	
-0.382935	
-0.382263	
-0.382813	
-0.38269	
-0.383179	
-0.382935	
-0.383057	
-0.383423	
-0.382507	
-0.381897	
-0.381165	
-0.382202	
-0.381592	
-0.381592	
-0.38092	
-0.381165	
-0.381653	
-0.382019	
-0.380493	
-0.380432	
-0.379517	
-0.380615	
-0.380798	
-0.380371	
-0.38031	
-0.380371	
-0.380554	
-0.381042	
-0.381165	
-0.381287	
-0.379517	
-0.379639	
-0.380737	
-0.38092	
-0.38147	
-0.381104	
-0.381714	
-0.382446	
-0.382935	
-0.382385	
-0.382019	
-0.381531	
-0.382874	
-0.383728	
-0.384521	
-0.384033	
-0.384094	
-0.385132	
-0.386597	
-0.386414	
-0.386292	
-0.384705	
-0.384705	
-0.385498	
-0.385925	
-0.385742	
-0.386169	
-0.386292	
-0.386047	
-0.387146	
-0.386292	
-0.385437	
-0.383789	
-0.384827	
-0.385254	
-0.384583	
-0.384399	
-0.384033	
-0.384521	
-0.385376	
-0.385254	
-0.385132	
-0.384338	
-0.383728	
-0.384155	
-0.384521	
-0.385376	
-0.384827	
-0.385193	
-0.385498	
-0.386108	
-0.384949	
-0.384338	
-0.38269	
-0.38501	
-0.385315	
-0.385071	
-0.385071	
-0.384094	
-0.385193	
-0.385498	
-0.385681	
-0.384827	
-0.383911	
-0.383179	
-0.383545	
-0.383728	
-0.38385	
-0.383789	
-0.384827	
-0.384827	
-0.386597	
-0.385681	
-0.385315	
-0.383972	
-0.385315	
-0.385986	
-0.385742	
-0.385864	
-0.386292	
-0.38678	
-0.388306	
-0.38739	
-0.387939	
-0.386414	
-0.386658	
-0.387634	
-0.387695	
-0.38739	
-0.387634	
-0.387939	
-0.388367	
-0.388977	
-0.387756	
-0.387634	
-0.386353	
-0.387817	
-0.386902	
-0.386658	
-0.386841	
-0.385559	
-0.386475	
-0.387756	
-0.387207	
-0.387329	
-0.385498	
-0.384888	
-0.386108	
-0.386108	
-0.386597	
-0.385498	
-0.386292	
-0.386719	
-0.38739	
-0.386414	
-0.386292	
-0.385437	
-0.386292	
-0.385254	
-0.385803	
-0.385315	
-0.38501	
-0.386108	
-0.387329	
-0.386658	
-0.385864	
-0.385132	
-0.385132	
-0.38562	
-0.385681	
-0.385437	
-0.384827	
-0.384949	
-0.385376	
-0.385376	
-0.384827	
-0.384949	
-0.383545	
-0.384094	
-0.384155	
-0.383179	
-0.383118	
-0.382324	
-0.382751	
-0.383606	
-0.383118	
-0.382385	
-0.38092	
-0.382019	
-0.382385	
-0.381775	
-0.382935	
-0.382751	
-0.383484	
-0.383667	
-0.383911	
-0.384521	
-0.384705	
-0.38501	
-0.384644	
-0.385254	
-0.385803	
-0.385132	
-0.385803	
-0.386292	
-0.387695	
-0.386536	
-0.386047	
-0.385803	
-0.386292	
-0.38739	
-0.386292	
-0.387268	
-0.387451	
-0.387878	
-0.388306	
-0.388062	
-0.388306	
-0.387939	
-0.38739	
-0.386292	
-0.387756	
-0.387085	
-0.387085	
-0.38623	
-0.387085	
-0.388184	
-0.386597	
-0.386108	
-0.384521	
-0.385315	
-0.385925	
-0.383667	
-0.384521	
-0.384216	
-0.383911	
-0.385132	
-0.383972	
-0.384705	
-0.384033	
-0.383911	
-0.382629	
-0.383545	
-0.383423	
-0.383179	
-0.383118	
-0.383484	
-0.384583	
-0.383301	
-0.383301	
-0.381836	
-0.383179	
-0.383606	
-0.382813	
-0.383667	
-0.383179	
-0.383362	
-0.383484	
-0.383362	
-0.38324	
-0.383057	
-0.382813	
-0.383789	
-0.383728	
-0.383972	
-0.383911	
-0.383972	
-0.384094	
-0.386292	
-0.384766	
-0.384888	
-0.38446	
-0.384705	
-0.38501	
-0.384216	
-0.385803	
-0.385437	
-0.385559	
-0.387146	
-0.38678	
-0.386963	
-0.386658	
-0.385315	
-0.386841	
-0.386536	
-0.387024	
-0.386902	
-0.387024	
-0.387146	
-0.387573	
-0.386719	
-0.387146	
-0.386414	
-0.386169	
-0.385986	
-0.38562	
-0.385864	
-0.385071	
-0.385864	
-0.386047	
-0.386169	
-0.385986	
-0.385864	
-0.384521	
-0.385193	
-0.385437	
-0.385803	
-0.385315	
-0.385742	
-0.385742	
-0.386475	
-0.385925	
-0.386719	
-0.385315	
-0.385315	
-0.385681	
-0.384949	
-0.385254	
-0.384827	
-0.385559	
-0.386108	
-0.38623	
-0.385925	
-0.38562	
-0.385071	
-0.385254	
-0.385376	
-0.384888	
-0.384949	
-0.384705	
-0.38501	
-0.385498	
-0.38501	
-0.385315	
-0.384338	
-0.385071	
-0.384827	
-0.384033	
-0.384155	
-0.38324	
-0.383789	
-0.384521	
-0.384583	
-0.384155	
-0.383667	
-0.384033	
-0.383911	
-0.383789	
-0.383118	
-0.384277	
-0.384827	
-0.384888	
-0.384949	
-0.384949	
-0.38562	
-0.385315	
-0.385132	
-0.385742	
-0.385803	
-0.385864	
-0.385742	
-0.386475	
-0.387573	
-0.387146	
-0.38678	
-0.386719	
-0.387329	
-0.38739	
-0.387085	
-0.386963	
-0.387329	
-0.386902	
-0.387512	
-0.387756	
-0.387207	
-0.387573	
-0.386169	
-0.386536	
-0.386597	
-0.385864	
-0.385193	
-0.38501	
-0.385254	
-0.385803	
-0.385803	
-0.384644	
-0.384277	
-0.384155	
-0.383667	
-0.382019	
-0.38269	
-0.382385	
-0.382568	
-0.382263	
-0.382507	
-0.382141	
-0.382019	
-0.381714	
-0.381897	
-0.382446	
-0.38147	
-0.380737	
-0.381104	
-0.382141	
-0.383484	
-0.383972	
-0.382996	
-0.384094	
-0.383728	
-0.38385	
-0.382996	
-0.383728	
-0.383667	
-0.383667	
-0.383728	
-0.384033	
-0.383545	
-0.384155	
-0.383789	
-0.384399	
-0.384888	
-0.384521	
-0.383301	
-0.383179	
-0.384155	
-0.385315	
-0.385193	
-0.384766	
-0.384521	
-0.384033	
-0.384888	
-0.384094	
-0.384521	
-0.384399	
-0.385315	
-0.385498	
-0.386169	
-0.385986	
-0.385925	
-0.385498	
-0.386353	
-0.386169	
-0.385925	
-0.38446	
-0.384705	
-0.385376	
-0.386047	
-0.386292	
-0.385498	
-0.384949	
-0.384827	
-0.384277	
-0.383301	
-0.383728	
-0.383545	
-0.383301	
-0.384033	
-0.384277	
-0.382935	
-0.382874	
-0.382629	
-0.38385	
-0.384338	
-0.383423	
-0.383423	
-0.383179	
-0.38385	
-0.38446	
-0.384399	
-0.384583	
-0.384583	
-0.383972	
-0.384277	
-0.383301	
-0.384338	
-0.384216	
-0.384583	
-0.38501	
-0.385925	
-0.385071	
-0.384949	
-0.384155	
-0.385559	
-0.385864	
-0.384949	
-0.384033	
-0.384155	
-0.385803	
-0.385986	
-0.386047	
-0.384888	
-0.38562	
-0.384827	
-0.385193	
-0.383972	
-0.384521	
-0.384827	
-0.385437	
-0.385254	
-0.385681	
-0.385437	
-0.385559	
-0.384277	
-0.385803	
-0.38623	
-0.385498	
-0.385254	
-0.385315	
-0.386353	
-0.38739	
-0.387268	
-0.386963	
-0.38739	
-0.38739	
-0.388306	
-0.387024	
-0.387756	
-0.388489	
-0.388306	
-0.389038	
-0.389648	
-0.388916	
-0.388794	
-0.388611	
-0.388245	
-0.388306	
-0.388184	
-0.387817	
-0.387268	
-0.387268	
-0.388	
-0.387573	
-0.386658	
-0.385986	
-0.387024	
-0.386658	
-0.384949	
-0.38446	
-0.385437	
-0.385559	
-0.385254	
-0.385925	
-0.384888	
-0.384521	
-0.384094	
-0.38385	
-0.383789	
-0.383484	
-0.383301	
-0.382874	
-0.383057	
-0.384216	
-0.383789	
-0.383667	
-0.384827	
-0.384949	
-0.385254	
-0.38446	
-0.383972	
-0.38446	
-0.385071	
-0.386353	
-0.386719	
-0.386047	
-0.386475	
-0.38623	
-0.387329	
-0.388	
-0.386169	
-0.387695	
-0.38678	
-0.388062	
-0.387878	
-0.387695	
-0.387451	
-0.388184	
-0.388855	
-0.388245	
-0.388	
-0.387329	
-0.388489	
-0.38855	
-0.389282	
-0.388855	
-0.388184	
-0.387207	
-0.388733	
-0.388367	
-0.388977	
-0.387573	
-0.388367	
-0.388062	
-0.388794	
-0.389099	
-0.388489	
-0.387939	
-0.388428	
-0.388977	
-0.388611	
-0.388977	
-0.387268	
-0.388062	
-0.386841	
-0.388611	
-0.387756	
-0.387756	
-0.386536	
-0.38739	
-0.386841	
-0.387085	
-0.386108	
-0.386536	
-0.386108	
-0.386292	
-0.386292	
-0.385376	
-0.385132	
-0.38501	
-0.386414	
-0.38562	
-0.386841	
-0.384277	
-0.385925	
-0.385376	
-0.386536	
-0.386108	
-0.385864	
-0.385864	
-0.386902	
-0.386536	
-0.386597	
-0.386292	
-0.386658	
-0.386841	
-0.387329	
-0.387146	
-0.386719	
-0.386475	
-0.386414	
-0.387695	
-0.387146	
-0.387268	
-0.384583	
-0.386719	
-0.386902	
-0.387146	
-0.38739	
-0.387085	
-0.38678	
-0.387085	
-0.387573	
-0.387085	
-0.386963	
-0.387207	
-0.387085	
-0.386902	
-0.388	
-0.386841	
-0.386475	
-0.387451	
-0.388916	
-0.387634	
-0.38739	
-0.385193	
-0.387878	
-0.388123	
-0.388245	
-0.388306	
-0.388062	
-0.388367	
-0.387939	
-0.388611	
-0.38855	
-0.388855	
-0.388611	
-0.388733	
-0.389832	
-0.388916	
-0.388916	
-0.387939	
-0.388672	
-0.390259	
-0.388611	
-0.388428	
-0.387085	
-0.388428	
-0.388306	
-0.387207	
-0.388916	
-0.387634	
-0.387329	
-0.387146	
-0.387207	
-0.38678	
-0.386475	
-0.386108	
-0.386536	
-0.386902	
-0.386658	
-0.386169	
-0.385132	
-0.385864	
-0.386108	
-0.386169	
-0.38562	
-0.386292	
-0.386353	
-0.386536	
-0.385742	
-0.387207	
-0.38678	
-0.387146	
-0.387451	
-0.388794	
-0.388245	
-0.387878	
-0.387451	
-0.388733	
-0.389893	
-0.389526	
-0.389709	
-0.389465	
-0.390747	
-0.391357	
-0.390991	
-0.391602	
-0.392517	
-0.391724	
-0.392151	
-0.392151	
-0.393005	
-0.392151	
-0.392395	
-0.39209	
-0.393311	
-0.392456	
-0.391968	
-0.391357	
-0.391602	
-0.391846	
-0.391052	
-0.390991	
-0.389832	
-0.390564	
-0.390747	
-0.390686	
-0.390442	
-0.390076	
-0.390686	
-0.39093	
-0.390442	
-0.390991	
-0.390625	
-0.390625	
-0.39032	
-0.391602	
-0.390747	
-0.390869	
-0.391235	
-0.39032	
-0.390686	
-0.389893	
-0.390625	
-0.390015	
-0.390869	
-0.391235	
-0.391174	
-0.390137	
-0.389099	
-0.388489	
	
