E:\DOCUMENTS AND SETTINGS\JPOTAS\MEUS DOCUMENTOS\UFRJ\RSCI-BM 12 WK SERIES\070720-RSCI-BM-04\RSCI-BM-04-REMG\070720-RSCI-BM-REMG-0003.ACQ
0.025000 msec/sample
1 channel
Analog input
Volts
CH1	
2000	
-0.391113	
-0.391174	
-0.390015	
-0.391479	
-0.390686	
-0.390991	
-0.391235	
-0.391235	
-0.391418	
-0.390442	
-0.390564	
-0.390808	
-0.391052	
-0.390198	
-0.389832	
-0.387451	
-0.39032	
-0.389893	
-0.390015	
-0.390808	
-0.390808	
-0.389893	
-0.389709	
-0.389343	
-0.390137	
-0.389404	
-0.39032	
-0.390869	
-0.389771	
-0.390564	
-0.390259	
-0.390442	
-0.390625	
-0.391663	
-0.39032	
-0.390381	
-0.388855	
-0.390381	
-0.390686	
-0.39032	
-0.391052	
-0.389282	
-0.389709	
-0.390137	
-0.389771	
-0.389709	
-0.389587	
-0.388428	
-0.389832	
-0.389343	
-0.389526	
-0.389771	
-0.390198	
-0.389465	
-0.389771	
-0.388733	
-0.389343	
-0.388	
-0.388916	
-0.388733	
-0.388062	
-0.388611	
-0.388306	
-0.388611	
-0.388611	
-0.389221	
-0.38855	
-0.388306	
-0.388306	
-0.388733	
-0.389954	
-0.388733	
-0.389771	
-0.389221	
-0.38916	
-0.389587	
-0.389343	
-0.389038	
-0.388428	
-0.388062	
-0.389282	
-0.388977	
-0.38916	
-0.389221	
-0.388977	
-0.389038	
-0.388306	
-0.388123	
-0.388977	
-0.388855	
-0.389404	
-0.389404	
-0.389038	
-0.389465	
-0.389221	
-0.389526	
-0.389954	
-0.389893	
-0.389221	
-0.38916	
-0.389587	
-0.389771	
-0.390686	
-0.390259	
-0.391479	
-0.390137	
-0.390686	
-0.390442	
-0.391907	
-0.391602	
-0.390686	
-0.391663	
-0.392883	
-0.392822	
-0.393127	
-0.393311	
-0.393311	
-0.393372	
-0.393311	
-0.392517	
-0.393494	
-0.393372	
-0.392212	
-0.393066	
-0.392944	
-0.393127	
-0.392212	
-0.391785	
-0.392456	
-0.391785	
-0.391174	
-0.390076	
-0.391174	
-0.390991	
-0.391968	
-0.391174	
-0.391968	
-0.391479	
-0.391052	
-0.389282	
-0.391296	
-0.390686	
-0.391052	
-0.390076	
-0.391479	
-0.391113	
-0.391174	
-0.391052	
-0.390991	
-0.391296	
-0.390991	
-0.389648	
-0.389282	
-0.389587	
-0.388306	
-0.389404	
-0.389282	
-0.389832	
-0.388672	
-0.388428	
-0.388123	
-0.387939	
-0.387207	
-0.387024	
-0.387573	
-0.386719	
-0.387512	
-0.387146	
-0.387695	
-0.38678	
-0.386963	
-0.385681	
-0.386902	
-0.38623	
-0.386658	
-0.386047	
-0.386658	
-0.38678	
-0.386658	
-0.387024	
-0.387085	
-0.387451	
-0.387085	
-0.385986	
-0.385742	
-0.387329	
-0.385986	
-0.387573	
-0.38739	
-0.387939	
-0.387207	
-0.387817	
-0.38623	
-0.387573	
-0.387817	
-0.387817	
-0.387512	
-0.386414	
-0.38739	
-0.387207	
-0.386841	
-0.387268	
-0.387939	
-0.38855	
-0.389648	
-0.38855	
-0.389038	
-0.388489	
-0.388306	
-0.388123	
-0.389038	
-0.388123	
-0.387573	
-0.387756	
-0.388123	
-0.388184	
-0.388184	
-0.388123	
-0.387146	
-0.38916	
-0.388672	
-0.38739	
-0.387329	
-0.387451	
-0.385925	
-0.386597	
-0.38678	
-0.388306	
-0.388733	
-0.388977	
-0.389893	
-0.388855	
-0.388977	
-0.389099	
-0.388306	
-0.388123	
-0.388062	
-0.38739	
-0.388123	
-0.388062	
-0.388	
-0.388062	
-0.38855	
-0.387817	
-0.387817	
-0.388184	
-0.388428	
-0.38855	
-0.388611	
-0.38855	
-0.388245	
-0.389038	
-0.388977	
-0.389771	
-0.389648	
-0.389099	
-0.387695	
-0.388672	
-0.387756	
-0.388855	
-0.388428	
-0.389099	
-0.390198	
-0.389893	
-0.39032	
-0.388733	
-0.389709	
-0.39032	
-0.390259	
-0.390076	
-0.389893	
-0.389099	
-0.39032	
-0.390015	
-0.390869	
-0.390808	
-0.391663	
-0.390808	
-0.391785	
-0.391968	
-0.393494	
-0.393616	
-0.394287	
-0.39624	
-0.396545	
-0.397522	
-0.398315	
-0.399109	
-0.401184	
-0.4021	
-0.404236	
-0.405762	
-0.407043	
-0.410095	
-0.411743	
-0.415283	
-0.417236	
-0.419556	
-0.420715	
-0.423706	
-0.424194	
-0.427307	
-0.429626	
-0.432983	
-0.434631	
-0.437866	
-0.439453	
-0.442322	
-0.44342	
-0.446228	
-0.447327	
-0.4505	
-0.452087	
-0.454651	
-0.456909	
-0.459412	
-0.461914	
-0.463989	
-0.467468	
-0.470825	
-0.474609	
-0.477661	
-0.480469	
-0.483704	
-0.489136	
-0.492371	
-0.496765	
-0.500183	
-0.503235	
-0.505066	
-0.509338	
-0.512329	
-0.516846	
-0.520264	
-0.524475	
-0.52771	
-0.530029	
-0.53302	
-0.533569	
-0.535767	
-0.537659	
-0.539063	
-0.539795	
-0.540405	
-0.539978	
-0.54126	
-0.541077	
-0.541687	
-0.540405	
-0.540161	
-0.537537	
-0.53656	
-0.534668	
-0.534363	
-0.532471	
-0.531616	
-0.530579	
-0.529053	
-0.527649	
-0.523865	
-0.521973	
-0.518982	
-0.516724	
-0.51416	
-0.511292	
-0.507874	
-0.506714	
-0.503906	
-0.501709	
-0.498352	
-0.4953	
-0.489868	
-0.487793	
-0.482666	
-0.479126	
-0.475159	
-0.471313	
-0.467957	
-0.462769	
-0.459106	
-0.453613	
-0.449829	
-0.445435	
-0.442139	
-0.437195	
-0.43335	
-0.427856	
-0.424927	
-0.420227	
-0.416626	
-0.411865	
-0.406799	
-0.401184	
-0.395386	
-0.391235	
-0.386047	
-0.380493	
-0.37561	
-0.371765	
-0.367249	
-0.364075	
-0.358887	
-0.355469	
-0.350708	
-0.350037	
-0.346069	
-0.344727	
-0.342712	
-0.341492	
-0.34137	
-0.340698	
-0.339844	
-0.340027	
-0.340332	
-0.339111	
-0.340515	
-0.341736	
-0.342163	
-0.343018	
-0.344727	
-0.345825	
-0.347107	
-0.347778	
-0.34906	
-0.350037	
-0.351624	
-0.351501	
-0.352356	
-0.352051	
-0.354248	
-0.355103	
-0.356018	
-0.355896	
-0.355896	
-0.355652	
-0.356995	
-0.356506	
-0.357239	
-0.357483	
-0.358093	
-0.358765	
-0.358887	
-0.358459	
-0.357483	
-0.35791	
-0.358215	
-0.358643	
-0.359253	
-0.358948	
-0.360168	
-0.361328	
-0.361877	
-0.362671	
-0.362915	
-0.363525	
-0.363586	
-0.364258	
-0.366089	
-0.36615	
-0.367432	
-0.367859	
-0.368591	
-0.369263	
-0.369263	
-0.36908	
-0.369385	
-0.370483	
-0.370178	
-0.370117	
-0.369629	
-0.370972	
-0.370728	
-0.371521	
-0.371094	
-0.370972	
-0.371033	
-0.371765	
-0.371521	
-0.371643	
-0.37207	
-0.372559	
-0.373047	
-0.373535	
-0.373535	
-0.372253	
-0.37207	
-0.373352	
-0.373962	
-0.374573	
-0.374939	
-0.375305	
-0.376709	
-0.37677	
-0.377686	
-0.376953	
-0.376831	
-0.377136	
-0.377319	
-0.377441	
-0.377869	
-0.376831	
-0.378723	
-0.378601	
-0.378357	
-0.378601	
-0.377869	
-0.377869	
-0.377991	
-0.377747	
-0.377808	
-0.377319	
-0.37793	
-0.377808	
-0.377991	
-0.377441	
-0.376892	
-0.37616	
-0.37738	
-0.378235	
-0.377869	
-0.377869	
-0.378296	
-0.379456	
-0.379761	
-0.380188	
-0.3797	
-0.379944	
-0.380005	
-0.38092	
-0.380737	
-0.380554	
-0.380188	
-0.381287	
-0.381165	
-0.381409	
-0.381531	
-0.381897	
-0.382141	
-0.382813	
-0.383179	
-0.383911	
-0.383484	
-0.383911	
-0.385254	
-0.385071	
-0.385315	
-0.384216	
-0.383484	
-0.383728	
-0.384216	
-0.384338	
-0.384216	
-0.383789	
-0.383606	
-0.383545	
-0.383545	
-0.383118	
-0.382507	
-0.38269	
-0.382996	
-0.383301	
-0.382385	
-0.382446	
-0.381531	
-0.383667	
-0.383118	
-0.383179	
-0.382324	
-0.382568	
-0.38147	
-0.381775	
-0.382813	
-0.383362	
-0.383362	
-0.384094	
-0.385437	
-0.385132	
-0.384399	
-0.384094	
-0.384705	
-0.385193	
-0.386475	
-0.385376	
-0.385376	
-0.38501	
-0.385986	
-0.385986	
-0.387085	
-0.38678	
-0.386353	
-0.385803	
-0.386353	
-0.387329	
-0.387207	
-0.387085	
-0.386719	
-0.387817	
-0.387207	
-0.386658	
-0.386047	
-0.386719	
-0.387085	
-0.387817	
-0.387451	
-0.387695	
-0.387634	
-0.388733	
-0.387512	
-0.387695	
-0.38739	
-0.387207	
-0.385681	
-0.386475	
-0.387695	
-0.386414	
-0.386292	
-0.385742	
-0.386475	
-0.385925	
-0.385376	
-0.384277	
-0.384888	
-0.384888	
-0.384644	
-0.38501	
-0.384644	
-0.384216	
-0.383667	
-0.383484	
-0.383606	
-0.382996	
-0.382629	
-0.381836	
-0.381592	
-0.382446	
-0.38208	
-0.382019	
-0.382263	
-0.382813	
-0.382141	
-0.381165	
-0.380127	
-0.380981	
-0.380798	
-0.381104	
-0.381897	
-0.381165	
-0.381042	
-0.381775	
-0.381287	
-0.382019	
-0.38147	
-0.381409	
-0.38147	
-0.381165	
-0.382568	
-0.382446	
-0.382629	
-0.382385	
-0.382996	
-0.384277	
-0.383911	
-0.383484	
-0.383667	
-0.384521	
-0.384644	
-0.385254	
-0.385132	
-0.384888	
-0.386108	
-0.386108	
-0.385132	
-0.383911	
-0.385254	
-0.385132	
-0.384888	
-0.385681	
-0.385071	
-0.38501	
-0.38562	
-0.384888	
-0.384705	
-0.385315	
-0.384399	
-0.384399	
-0.384399	
-0.385376	
-0.385193	
-0.38501	
-0.385559	
-0.386841	
-0.386292	
-0.385742	
-0.384033	
-0.384827	
-0.38623	
-0.386108	
-0.387146	
-0.386108	
-0.386658	
-0.385925	
-0.386841	
-0.386353	
-0.386597	
-0.386292	
-0.386597	
-0.385315	
-0.386841	
-0.386597	
-0.385925	
-0.386169	
-0.386902	
-0.385742	
-0.385681	
-0.384155	
-0.384949	
-0.384827	
-0.385498	
-0.385803	
-0.385681	
-0.38562	
-0.385559	
-0.38623	
-0.385498	
-0.384888	
-0.383911	
-0.384338	
-0.38385	
-0.384827	
-0.384888	
-0.384644	
-0.384216	
-0.385742	
-0.385254	
-0.385559	
-0.384216	
-0.385437	
-0.385437	
-0.38562	
-0.386353	
-0.385925	
-0.385864	
-0.385864	
-0.386475	
-0.385681	
-0.384827	
-0.385071	
-0.385498	
-0.38501	
-0.386169	
-0.385925	
-0.385864	
-0.386169	
-0.386719	
-0.386292	
-0.38623	
-0.385132	
-0.385986	
-0.386169	
-0.386169	
-0.387085	
-0.386719	
-0.386353	
-0.385864	
-0.387512	
-0.386719	
-0.385315	
-0.386108	
-0.386902	
-0.386658	
-0.387451	
-0.387024	
-0.387268	
-0.387939	
-0.389282	
-0.388855	
-0.388916	
-0.38916	
-0.389221	
-0.389587	
-0.39032	
-0.390991	
-0.390259	
-0.39032	
-0.390564	
-0.390869	
-0.390381	
-0.389282	
-0.389771	
-0.390381	
-0.389893	
-0.390381	
-0.389221	
-0.389099	
-0.388977	
-0.389709	
-0.388794	
-0.388855	
-0.387695	
-0.388611	
-0.388611	
-0.388733	
-0.38855	
-0.388733	
-0.388367	
-0.387939	
-0.389038	
-0.388428	
-0.387207	
-0.388367	
-0.388062	
-0.388367	
-0.389038	
-0.388733	
-0.388062	
-0.388916	
-0.389099	
-0.388062	
-0.388	
-0.386597	
-0.387024	
-0.386658	
-0.387024	
-0.38678	
-0.386475	
-0.386108	
-0.385071	
-0.386475	
-0.385681	
-0.385315	
-0.384949	
-0.385437	
-0.384888	
-0.385254	
-0.384827	
-0.384583	
-0.38501	
-0.385071	
-0.384583	
-0.384644	
-0.383789	
-0.383911	
-0.383545	
-0.384094	
-0.384827	
-0.384827	
-0.385193	
-0.383606	
-0.385742	
-0.384399	
-0.384583	
-0.384338	
-0.384644	
-0.384216	
-0.385193	
-0.38501	
-0.385254	
-0.385376	
-0.38562	
-0.385559	
-0.384644	
-0.385376	
-0.386108	
-0.385986	
-0.386536	
-0.38739	
-0.38678	
-0.386658	
-0.385498	
-0.387512	
-0.386902	
-0.386658	
-0.386047	
-0.386414	
-0.385864	
-0.386353	
-0.385986	
-0.386169	
-0.386108	
-0.386292	
-0.386292	
-0.385559	
-0.385437	
-0.385742	
-0.38623	
-0.386353	
-0.387451	
-0.386414	
-0.387451	
-0.386902	
-0.388062	
-0.386597	
-0.386902	
-0.386353	
-0.387024	
-0.386536	
-0.387024	
-0.387146	
-0.386719	
-0.38678	
-0.387451	
-0.386597	
-0.386841	
-0.385864	
-0.386292	
-0.38623	
-0.386414	
-0.386963	
-0.386047	
-0.38739	
-0.38623	
-0.387024	
-0.385742	
-0.386536	
-0.385559	
-0.385803	
-0.386353	
-0.386658	
-0.386047	
-0.386719	
-0.386597	
-0.387085	
-0.385742	
-0.38562	
-0.385132	
-0.385742	
-0.385193	
-0.385803	
-0.38739	
-0.386475	
-0.387024	
-0.386169	
-0.387146	
-0.38678	
-0.386475	
-0.386169	
-0.38678	
-0.38678	
-0.386841	
-0.386963	
-0.387329	
-0.387207	
-0.387329	
-0.387817	
-0.386902	
-0.38739	
-0.386536	
-0.387634	
-0.388367	
-0.389282	
-0.387756	
-0.388306	
-0.387817	
-0.38916	
-0.388306	
-0.38855	
-0.387634	
-0.388855	
-0.389221	
-0.389465	
-0.389343	
-0.389832	
-0.390991	
-0.390564	
-0.391174	
-0.391052	
-0.390869	
-0.390259	
-0.390869	
-0.391418	
-0.392334	
-0.391907	
-0.392395	
-0.391296	
-0.393555	
-0.392334	
-0.392456	
-0.391663	
-0.392761	
-0.392944	
-0.393372	
-0.392822	
-0.392395	
-0.393127	
-0.3927	
-0.39325	
-0.393066	
-0.392151	
-0.391602	
-0.391296	
-0.39209	
-0.392578	
-0.391602	
-0.391357	
-0.390503	
-0.391724	
-0.390381	
-0.388855	
-0.389404	
-0.388855	
-0.389099	
-0.389404	
-0.389343	
-0.389343	
-0.38916	
-0.389404	
-0.389709	
-0.389832	
-0.389587	
-0.389282	
-0.389771	
-0.389893	
-0.390808	
-0.390015	
-0.390686	
-0.391174	
-0.390808	
-0.391479	
-0.390137	
-0.390198	
-0.389343	
-0.389099	
-0.390686	
-0.390625	
-0.390747	
-0.390442	
-0.389587	
-0.390991	
-0.390381	
-0.389893	
-0.389038	
-0.389587	
-0.389893	
-0.390442	
-0.389893	
-0.39032	
-0.39032	
-0.390686	
-0.390686	
-0.390991	
-0.390503	
-0.390137	
-0.389893	
-0.391052	
-0.391602	
-0.39093	
-0.390869	
-0.390747	
-0.392212	
-0.391663	
-0.39093	
-0.390076	
-0.391846	
-0.391846	
-0.392273	
-0.391724	
-0.39209	
-0.3927	
-0.392761	
-0.392822	
-0.393494	
-0.392395	
-0.392151	
-0.391785	
-0.392395	
-0.393311	
-0.392456	
-0.391846	
-0.391418	
-0.393005	
-0.391785	
-0.391174	
-0.391052	
-0.390991	
-0.391479	
-0.391785	
-0.391296	
-0.391235	
-0.39209	
-0.392151	
-0.392029	
-0.392456	
-0.391296	
-0.390503	
-0.391418	
-0.391602	
-0.392334	
-0.391602	
-0.391663	
-0.391602	
-0.392517	
-0.391418	
-0.391296	
-0.390137	
-0.391479	
-0.390076	
-0.391418	
-0.391052	
-0.391052	
-0.391663	
-0.391418	
-0.391296	
-0.390503	
-0.390076	
-0.389282	
-0.390015	
-0.39032	
-0.390381	
-0.389282	
-0.389099	
-0.388977	
-0.389587	
-0.388062	
-0.387268	
-0.386719	
-0.387573	
-0.387024	
-0.388306	
-0.387573	
-0.388306	
-0.387939	
-0.387634	
-0.38916	
-0.388428	
-0.388977	
-0.387146	
-0.389038	
-0.389282	
-0.389893	
-0.389465	
-0.389587	
-0.390503	
-0.390381	
-0.389404	
-0.390259	
-0.389526	
-0.389526	
-0.389526	
-0.389771	
-0.390747	
-0.389465	
-0.389893	
-0.388916	
-0.390747	
-0.389771	
-0.389526	
-0.387634	
-0.389587	
-0.389709	
-0.390503	
-0.390137	
-0.390503	
-0.390869	
-0.391602	
-0.391724	
-0.391907	
-0.391357	
-0.391541	
-0.39209	
-0.392334	
-0.393494	
-0.393433	
-0.39325	
-0.39325	
-0.395325	
-0.393677	
-0.39386	
-0.392822	
-0.39447	
-0.393188	
-0.394897	
-0.394531	
-0.394653	
-0.39502	
-0.394836	
-0.394775	
-0.394897	
-0.393677	
-0.393433	
-0.393738	
-0.394104	
-0.394287	
-0.393921	
-0.393982	
-0.394531	
-0.395203	
-0.393311	
-0.393433	
-0.392639	
-0.393616	
-0.392517	
-0.393616	
-0.394226	
-0.393005	
-0.393005	
-0.39209	
-0.392883	
-0.391846	
-0.391418	
-0.391663	
-0.391846	
-0.391541	
-0.392029	
-0.391541	
-0.391968	
-0.392029	
-0.393433	
-0.392029	
-0.392883	
-0.39093	
-0.392029	
-0.392578	
-0.392883	
-0.392944	
-0.392334	
-0.392822	
-0.392883	
-0.393066	
-0.392212	
-0.391113	
-0.391052	
-0.391541	
-0.390564	
-0.391968	
-0.391541	
-0.391968	
-0.392151	
-0.392151	
-0.39209	
-0.391418	
-0.390747	
-0.391602	
-0.391785	
-0.392029	
-0.392639	
-0.392212	
-0.39209	
-0.392578	
-0.392761	
-0.392273	
-0.392395	
-0.391907	
-0.392212	
-0.391724	
-0.392639	
-0.393555	
-0.392761	
-0.393066	
-0.3927	
-0.393372	
-0.392639	
-0.392029	
-0.391541	
-0.392761	
-0.392456	
-0.393555	
-0.393433	
-0.394104	
-0.394287	
-0.393616	
-0.393616	
-0.392761	
-0.392761	
-0.392639	
-0.391968	
-0.392151	
-0.392578	
-0.392212	
-0.392334	
-0.392578	
-0.393066	
-0.392151	
-0.391541	
-0.391174	
-0.391357	
-0.391296	
-0.390991	
-0.391663	
-0.391541	
-0.391663	
-0.391052	
-0.390503	
-0.39032	
-0.390198	
-0.389954	
-0.390076	
-0.389648	
-0.390015	
-0.389465	
-0.389648	
-0.389954	
-0.389709	
-0.389221	
-0.388611	
-0.387146	
-0.388184	
-0.387878	
-0.387939	
-0.388367	
-0.387695	
-0.388611	
-0.386353	
-0.38678	
-0.386292	
-0.386292	
-0.386414	
-0.386047	
-0.386353	
-0.385864	
-0.385742	
-0.385986	
-0.386658	
-0.387268	
-0.386414	
-0.386597	
-0.384827	
-0.386292	
-0.385193	
-0.38623	
-0.387268	
-0.386658	
-0.38739	
-0.38678	
-0.387634	
-0.386597	
-0.386475	
-0.387634	
-0.388184	
-0.388245	
-0.388611	
-0.389221	
-0.388916	
-0.389893	
-0.38916	
-0.388855	
-0.390015	
-0.389038	
-0.389648	
-0.388611	
-0.38855	
-0.389221	
-0.388977	
-0.389893	
-0.388916	
-0.388916	
-0.388	
-0.388245	
-0.387207	
-0.387878	
-0.387695	
-0.387817	
-0.388367	
-0.388	
-0.388367	
-0.386963	
-0.387817	
-0.38855	
-0.387939	
-0.387817	
-0.388	
-0.388672	
-0.388367	
-0.388611	
-0.389343	
-0.38916	
-0.38916	
-0.387756	
-0.388489	
-0.387634	
-0.388306	
-0.387024	
-0.388245	
-0.388733	
-0.388245	
-0.388916	
-0.387451	
-0.388	
-0.387878	
-0.387756	
-0.387878	
-0.387878	
-0.387207	
-0.387756	
-0.387512	
-0.388245	
-0.387939	
-0.388184	
-0.387451	
-0.38678	
-0.387268	
-0.387085	
-0.386108	
-0.386536	
-0.387329	
-0.386475	
-0.38678	
-0.386414	
-0.386841	
-0.385803	
-0.386841	
-0.38562	
-0.386963	
-0.386963	
-0.386963	
-0.387268	
-0.388123	
-0.388062	
-0.38739	
-0.387329	
-0.386902	
-0.386902	
-0.386841	
-0.386475	
-0.387268	
-0.387512	
-0.386841	
-0.388	
-0.38678	
-0.388	
-0.386658	
-0.386902	
-0.386963	
-0.386963	
-0.387207	
-0.387207	
-0.388062	
-0.387817	
-0.387939	
-0.386353	
-0.387451	
-0.387756	
-0.38739	
-0.388	
-0.386719	
-0.388184	
-0.388123	
-0.389221	
-0.389404	
-0.388184	
-0.389404	
-0.388855	
-0.389099	
-0.389343	
-0.390076	
-0.390747	
-0.390991	
-0.392395	
-0.391602	
-0.3927	
-0.391663	
-0.39209	
-0.391235	
-0.391113	
-0.390503	
-0.390442	
-0.391174	
-0.390991	
-0.391052	
-0.391479	
-0.390503	
-0.389099	
-0.390198	
-0.390137	
-0.389526	
-0.389099	
-0.389282	
-0.389526	
-0.389465	
-0.389526	
-0.390625	
-0.389282	
-0.39032	
-0.389038	
-0.389221	
-0.388184	
-0.388184	
-0.38916	
-0.38916	
-0.390259	
-0.389587	
-0.389709	
-0.388794	
-0.388489	
-0.388123	
-0.388733	
-0.38739	
-0.387817	
-0.387573	
-0.387939	
-0.387207	
-0.388	
-0.386719	
-0.385742	
-0.385498	
-0.38562	
-0.385925	
-0.385559	
-0.385315	
-0.385193	
-0.38562	
-0.385315	
-0.385864	
-0.385071	
-0.385803	
-0.383606	
-0.384216	
-0.383667	
-0.383545	
-0.384888	
-0.385071	
-0.385681	
-0.385864	
-0.385193	
-0.384827	
-0.384277	
-0.385315	
-0.385376	
-0.385132	
-0.385559	
-0.38562	
-0.385742	
-0.385681	
-0.386108	
-0.385254	
-0.38562	
-0.386475	
-0.385925	
-0.384888	
-0.385742	
-0.38678	
-0.387024	
-0.387451	
-0.388245	
-0.387939	
-0.38623	
-0.386414	
-0.386414	
-0.386841	
-0.387146	
-0.387024	
-0.38678	
-0.387024	
-0.386902	
-0.386902	
-0.38623	
-0.386841	
-0.386475	
-0.386108	
-0.385498	
-0.386108	
-0.38678	
-0.38678	
-0.388123	
-0.388611	
-0.387878	
-0.387024	
-0.38678	
-0.386841	
-0.387024	
-0.386902	
-0.386047	
-0.38739	
-0.387756	
-0.387207	
-0.387085	
-0.387146	
-0.386963	
-0.386963	
-0.386841	
-0.38562	
-0.387146	
-0.386475	
-0.387085	
-0.387085	
-0.38739	
-0.386963	
-0.386475	
-0.386108	
-0.385803	
-0.386475	
-0.386353	
-0.385559	
-0.386658	
-0.386719	
-0.387085	
-0.386963	
-0.386353	
-0.386353	
-0.385437	
-0.385925	
-0.385132	
-0.38562	
-0.385681	
-0.385803	
-0.38739	
-0.387268	
-0.38739	
-0.387085	
-0.386963	
-0.387329	
-0.386719	
-0.386597	
-0.386536	
-0.386902	
-0.387451	
-0.387573	
-0.388123	
-0.387939	
-0.387146	
-0.386414	
-0.386719	
-0.387695	
-0.387634	
-0.387756	
-0.388855	
-0.388855	
-0.388916	
-0.389099	
-0.388611	
-0.389587	
-0.389587	
-0.388977	
-0.388428	
-0.389343	
-0.389587	
-0.390015	
-0.390686	
-0.391418	
-0.390869	
-0.390198	
-0.39032	
-0.390503	
-0.391296	
-0.391235	
-0.391052	
-0.391907	
-0.3927	
-0.392822	
-0.393005	
-0.393372	
-0.393555	
-0.392883	
-0.393127	
-0.393005	
-0.393005	
-0.393494	
-0.394043	
-0.394104	
-0.393738	
-0.394043	
-0.392395	
-0.393677	
-0.393372	
-0.3927	
-0.392944	
-0.391174	
-0.392273	
-0.392334	
-0.392212	
-0.392761	
-0.392029	
-0.392395	
-0.39032	
-0.389282	
-0.389771	
-0.389893	
-0.390503	
-0.390015	
-0.390747	
-0.390808	
-0.390564	
-0.389465	
-0.390076	
-0.391174	
-0.390259	
-0.389893	
-0.389038	
-0.390381	
-0.390869	
-0.391235	
-0.391846	
-0.391724	
-0.391418	
-0.391174	
-0.390686	
-0.390686	
-0.391235	
-0.390869	
-0.39093	
-0.391479	
-0.390747	
-0.391907	
-0.39093	
-0.391541	
-0.390564	
-0.389832	
-0.389587	
-0.390564	
-0.390808	
-0.391052	
-0.391113	
-0.390869	
-0.391174	
-0.390198	
-0.390991	
-0.390869	
-0.39093	
-0.391174	
-0.390686	
-0.391418	
-0.391724	
-0.391296	
-0.392639	
-0.392395	
-0.392578	
-0.391968	
-0.391479	
-0.390869	
-0.391968	
-0.392151	
-0.392395	
-0.393555	
-0.392517	
-0.393738	
-0.3927	
-0.393127	
-0.393372	
-0.393616	
-0.393677	
-0.392334	
-0.393005	
-0.393494	
-0.392822	
-0.392944	
-0.392822	
-0.392883	
-0.392212	
-0.391357	
-0.391968	
-0.391968	
-0.39209	
-0.392334	
-0.392944	
-0.392578	
-0.393738	
-0.392334	
-0.3927	
-0.391296	
-0.392212	
-0.392578	
-0.393005	
-0.392395	
-0.392578	
-0.392395	
-0.392761	
-0.392517	
-0.392761	
-0.391846	
-0.392273	
-0.391235	
-0.392029	
-0.391479	
-0.391663	
-0.392761	
-0.392273	
-0.393005	
-0.392517	
-0.391846	
-0.390991	
-0.391418	
-0.391052	
-0.390869	
-0.390442	
-0.39093	
-0.390869	
-0.390747	
-0.389648	
-0.388855	
-0.388428	
-0.387512	
-0.388428	
-0.388794	
-0.388611	
-0.388916	
-0.389465	
-0.388977	
-0.389954	
-0.388977	
-0.389709	
-0.388611	
-0.390686	
-0.388672	
-0.389709	
-0.389404	
-0.390381	
-0.390991	
-0.390869	
-0.391846	
-0.390198	
-0.390198	
-0.388611	
-0.39093	
-0.390747	
-0.390381	
-0.389954	
-0.391418	
-0.39093	
-0.391113	
-0.390503	
-0.391052	
-0.39032	
-0.391052	
-0.390442	
-0.390991	
-0.391052	
-0.39093	
-0.391846	
-0.391663	
-0.393188	
-0.390747	
-0.392212	
-0.391174	
-0.39325	
-0.39209	
-0.393127	
-0.392822	
-0.393738	
-0.393799	
-0.394348	
-0.394287	
-0.394775	
-0.394043	
-0.394836	
-0.395142	
-0.395203	
-0.395142	
-0.395752	
-0.396973	
-0.396057	
-0.396912	
-0.395142	
-0.396118	
-0.395081	
-0.396301	
-0.393799	
-0.395142	
-0.394226	
-0.394897	
-0.395081	
-0.394836	
-0.395508	
-0.394165	
-0.394897	
-0.393799	
-0.394653	
-0.394653	
-0.39447	
-0.394226	
-0.394165	
-0.394531	
-0.394775	
-0.393799	
-0.394409	
-0.393066	
-0.393677	
-0.392761	
-0.392517	
-0.392456	
-0.392334	
-0.392883	
-0.392639	
-0.394226	
-0.392273	
-0.393555	
-0.392273	
-0.394043	
-0.392029	
-0.393677	
-0.392334	
-0.394104	
-0.393616	
-0.39386	
-0.393799	
-0.393311	
-0.393127	
-0.392273	
-0.393005	
-0.393066	
-0.392456	
-0.393005	
-0.393433	
-0.392883	
-0.393677	
-0.392273	
-0.393433	
-0.391968	
-0.393677	
-0.392334	
-0.392639	
-0.392334	
-0.393372	
-0.393982	
-0.393616	
-0.393921	
-0.392639	
-0.393677	
-0.392578	
-0.393494	
-0.392639	
-0.393799	
-0.39386	
-0.394531	
-0.394165	
-0.394897	
-0.39386	
-0.394409	
-0.393372	
-0.395081	
-0.393799	
-0.394104	
-0.394226	
-0.394409	
-0.395203	
-0.394775	
-0.395691	
-0.394409	
-0.395203	
-0.393616	
-0.394226	
-0.393005	
-0.393311	
-0.392883	
-0.393372	
-0.39386	
-0.394165	
-0.392944	
-0.392395	
-0.393127	
-0.39386	
-0.393372	
-0.393005	
-0.392761	
-0.392578	
-0.392517	
-0.392883	
-0.392761	
-0.391296	
-0.392334	
-0.390991	
-0.392456	
-0.391357	
-0.391174	
-0.390076	
-0.391541	
-0.391479	
-0.39093	
-0.391174	
-0.390076	
-0.391052	
-0.389587	
-0.390137	
-0.38855	
-0.388977	
-0.389465	
-0.389038	
-0.389587	
-0.389648	
-0.388184	
-0.386963	
-0.386719	
-0.388733	
-0.387573	
-0.38739	
-0.386475	
-0.387573	
-0.387512	
-0.387878	
-0.388	
-0.387085	
-0.387878	
-0.386841	
-0.387207	
-0.386902	
-0.387756	
-0.387695	
-0.387634	
-0.388977	
-0.388977	
-0.388733	
-0.388184	
-0.387634	
-0.388916	
-0.388611	
-0.388428	
-0.388184	
-0.390015	
-0.390686	
-0.391418	
-0.391052	
-0.389771	
	
