E:\DOCUMENTS AND SETTINGS\JPOTAS\MEUS DOCUMENTOS\UFRJ\RSCI-BM 12 WK SERIES\070727-RSCI-BM-05\RSCI-BM-05-LEMG\070727-RSCI-BM-05-LEMG-0009.ACQ
0.025000 msec/sample
1 channel
Analog input
Volts
CH1	
2000	
-0.388916	
-0.388916	
-0.388611	
-0.389099	
-0.387878	
-0.388794	
-0.387939	
-0.38855	
-0.389465	
-0.388855	
-0.388428	
-0.388489	
-0.388245	
-0.388306	
-0.389404	
-0.388733	
-0.387451	
-0.388123	
-0.387634	
-0.387756	
-0.388672	
-0.387878	
-0.38623	
-0.387329	
-0.388062	
-0.387329	
-0.388062	
-0.387634	
-0.386841	
-0.386047	
-0.386597	
-0.386414	
-0.386475	
-0.386414	
-0.386108	
-0.385986	
-0.38562	
-0.385803	
-0.385925	
-0.384827	
-0.385742	
-0.384827	
-0.384644	
-0.386108	
-0.386414	
-0.385742	
-0.385803	
-0.385132	
-0.386292	
-0.387146	
-0.38678	
-0.385376	
-0.386658	
-0.386658	
-0.38623	
-0.387024	
-0.386658	
-0.385986	
-0.386353	
-0.386963	
-0.38678	
-0.387451	
-0.387634	
-0.386658	
-0.386108	
-0.386719	
-0.385803	
-0.385315	
-0.385376	
-0.385559	
-0.385071	
-0.386658	
-0.386536	
-0.385925	
-0.386047	
-0.38562	
-0.385132	
-0.384338	
-0.386108	
-0.38623	
-0.385559	
-0.386108	
-0.38501	
-0.386719	
-0.386292	
-0.386292	
-0.385681	
-0.385803	
-0.386353	
-0.385376	
-0.386841	
-0.386475	
-0.385315	
-0.386597	
-0.386536	
-0.387085	
-0.38678	
-0.387268	
-0.385864	
-0.385742	
-0.387268	
-0.386597	
-0.387085	
-0.385864	
-0.386536	
-0.385742	
-0.385986	
-0.386658	
-0.386475	
-0.385681	
-0.384216	
-0.385864	
-0.384277	
-0.385925	
-0.386414	
-0.384277	
-0.385437	
-0.385681	
-0.386414	
-0.385498	
-0.385681	
-0.385376	
-0.38446	
-0.38562	
-0.384705	
-0.385925	
-0.385559	
-0.384949	
-0.385559	
-0.385254	
-0.386963	
-0.386292	
-0.387512	
-0.385742	
-0.385803	
-0.387634	
-0.387085	
-0.388123	
-0.387207	
-0.387207	
-0.386719	
-0.386841	
-0.387939	
-0.386841	
-0.386658	
-0.385437	
-0.38678	
-0.386169	
-0.386963	
-0.38739	
-0.386353	
-0.386536	
-0.386597	
-0.388062	
-0.387329	
-0.387634	
-0.387634	
-0.387146	
-0.389038	
-0.388916	
-0.389465	
-0.389404	
-0.388916	
-0.38916	
-0.388367	
-0.390564	
-0.389832	
-0.39032	
-0.388916	
-0.387939	
-0.38916	
-0.388367	
-0.387878	
-0.387146	
-0.387573	
-0.387329	
-0.386597	
-0.387756	
-0.386719	
-0.386047	
-0.385254	
-0.385681	
-0.38562	
-0.386169	
-0.38739	
-0.385315	
-0.385742	
-0.385742	
-0.386841	
-0.385986	
-0.386108	
-0.385559	
-0.385437	
-0.385986	
-0.385803	
-0.385803	
-0.38623	
-0.381897	
-0.379761	
-0.37915	
-0.380615	
-0.3797	
-0.379639	
-0.382996	
-0.385132	
-0.386719	
-0.386475	
-0.386292	
-0.386047	
-0.385925	
-0.386292	
-0.385315	
-0.386536	
-0.386414	
-0.386475	
-0.385864	
-0.386841	
-0.386963	
-0.386841	
-0.387451	
-0.386597	
-0.386841	
-0.387024	
-0.388306	
-0.388733	
-0.388733	
-0.387817	
-0.387024	
-0.389038	
-0.389099	
-0.389465	
-0.389404	
-0.388367	
-0.389099	
-0.388794	
-0.389832	
-0.389587	
-0.388611	
-0.387939	
-0.387329	
-0.387878	
-0.388	
-0.388245	
-0.387451	
-0.38739	
-0.388	
-0.387756	
-0.389893	
-0.390198	
-0.388184	
-0.385437	
-0.388428	
-0.391296	
-0.394043	
-0.398132	
-0.404358	
-0.41095	
-0.415466	
-0.4198	
-0.424744	
-0.428772	
-0.431458	
-0.435181	
-0.440369	
-0.444641	
-0.44928	
-0.453064	
-0.458435	
-0.464355	
-0.470886	
-0.480225	
-0.488159	
-0.495117	
-0.502014	
-0.510742	
-0.516174	
-0.520813	
-0.525452	
-0.526855	
-0.527771	
-0.528442	
-0.529663	
-0.527893	
-0.52655	
-0.524475	
-0.522278	
-0.519348	
-0.516968	
-0.513855	
-0.509644	
-0.505981	
-0.50238	
-0.498474	
-0.49353	
-0.489258	
-0.483215	
-0.478027	
-0.474487	
-0.469299	
-0.465515	
-0.461548	
-0.458374	
-0.455444	
-0.452576	
-0.451599	
-0.447571	
-0.444946	
-0.441589	
-0.438171	
-0.435181	
-0.432495	
-0.429382	
-0.425598	
-0.422974	
-0.420471	
-0.41748	
-0.417297	
-0.415405	
-0.413635	
-0.412048	
-0.41449	
-0.414246	
-0.415833	
-0.417297	
-0.418396	
-0.4198	
-0.420654	
-0.423279	
-0.422119	
-0.422485	
-0.422241	
-0.422668	
-0.422058	
-0.422302	
-0.421814	
-0.419922	
-0.418396	
-0.41571	
-0.413391	
-0.412109	
-0.407715	
-0.403992	
-0.399719	
-0.395752	
-0.390991	
-0.386047	
-0.381531	
-0.374451	
-0.3703	
-0.365662	
-0.361877	
-0.357544	
-0.353943	
-0.350708	
-0.346069	
-0.345154	
-0.342529	
-0.340942	
-0.339539	
-0.338501	
-0.338623	
-0.338257	
-0.342468	
-0.342834	
-0.344727	
-0.346252	
-0.349915	
-0.352295	
-0.356995	
-0.360168	
-0.362183	
-0.365479	
-0.366516	
-0.370239	
-0.370056	
-0.371155	
-0.370483	
-0.369446	
-0.369934	
-0.369812	
-0.370056	
-0.369507	
-0.370178	
-0.370544	
-0.372131	
-0.37439	
-0.375549	
-0.376465	
-0.376892	
-0.381714	
-0.383606	
-0.386597	
-0.388306	
-0.390442	
-0.392944	
-0.395874	
-0.399658	
-0.401001	
-0.402954	
-0.40448	
-0.407532	
-0.408081	
-0.409851	
-0.410645	
-0.411011	
-0.411682	
-0.411072	
-0.412842	
-0.411804	
-0.410522	
-0.409058	
-0.409912	
-0.408447	
-0.407776	
-0.407471	
-0.406067	
-0.404907	
-0.404053	
-0.40387	
-0.403198	
-0.401733	
-0.399292	
-0.397156	
-0.395569	
-0.392883	
-0.390442	
-0.387207	
-0.384705	
-0.380981	
-0.37793	
-0.375244	
-0.370789	
-0.365906	
-0.361633	
-0.356812	
-0.351563	
-0.347412	
-0.342468	
-0.336121	
-0.330383	
-0.325378	
-0.320984	
-0.315247	
-0.310913	
-0.306152	
-0.302246	
-0.299438	
-0.298279	
-0.297485	
-0.295837	
-0.297791	
-0.298645	
-0.301086	
-0.303528	
-0.306702	
-0.308777	
-0.312622	
-0.315857	
-0.319702	
-0.323364	
-0.32666	
-0.329712	
-0.332825	
-0.336487	
-0.338562	
-0.340637	
-0.341492	
-0.344177	
-0.344543	
-0.345947	
-0.347839	
-0.348389	
-0.348694	
-0.349487	
-0.351135	
-0.351257	
-0.351807	
-0.351563	
-0.352905	
-0.351807	
-0.352539	
-0.354431	
-0.354309	
-0.354675	
-0.355225	
-0.356567	
-0.357422	
-0.358154	
-0.358398	
-0.359802	
-0.359497	
-0.359985	
-0.362061	
-0.360962	
-0.36145	
-0.362488	
-0.362061	
-0.362122	
-0.362122	
-0.36084	
-0.361328	
-0.362061	
-0.362122	
-0.363098	
-0.36322	
-0.364014	
-0.364197	
-0.363708	
-0.365234	
-0.365295	
-0.365173	
-0.366211	
-0.366089	
-0.365845	
-0.366821	
-0.368225	
-0.367859	
-0.368591	
-0.368347	
-0.368408	
-0.368958	
-0.369446	
-0.368896	
-0.369995	
-0.369507	
-0.370911	
-0.371765	
-0.371338	
-0.372437	
-0.372559	
-0.373352	
-0.373352	
-0.374512	
-0.373657	
-0.375244	
-0.374023	
-0.375549	
-0.376343	
-0.374817	
-0.376404	
-0.377014	
-0.377197	
-0.377563	
-0.378357	
-0.377563	
-0.377869	
-0.378174	
-0.37793	
-0.378357	
-0.379333	
-0.378723	
-0.379089	
-0.379517	
-0.379028	
-0.380005	
-0.380432	
-0.379028	
-0.379211	
-0.379089	
-0.378662	
-0.378906	
-0.379028	
-0.379456	
-0.3797	
-0.378784	
-0.379822	
-0.380066	
-0.379028	
-0.380188	
-0.380188	
-0.3797	
-0.380859	
-0.380432	
-0.381226	
-0.381409	
-0.381653	
-0.38147	
-0.382324	
-0.382263	
-0.381836	
-0.381592	
-0.381287	
-0.381531	
-0.381165	
-0.381714	
-0.381714	
-0.382019	
-0.381531	
-0.38208	
-0.381714	
-0.38147	
-0.381653	
-0.381165	
-0.38147	
-0.381714	
-0.381226	
-0.380981	
-0.382019	
-0.380981	
-0.381775	
-0.380188	
-0.380249	
-0.380249	
-0.379578	
-0.379639	
-0.379944	
-0.379639	
-0.379944	
-0.380188	
-0.379211	
-0.379822	
-0.378906	
-0.379822	
-0.378906	
-0.378113	
-0.379211	
-0.379456	
-0.3797	
-0.379456	
-0.379395	
-0.379333	
-0.379883	
-0.378845	
-0.379944	
-0.379456	
-0.379395	
-0.380005	
-0.380432	
-0.381287	
-0.380676	
-0.380798	
-0.38031	
-0.380676	
-0.379578	
-0.380127	
-0.38031	
-0.380371	
-0.380249	
-0.380188	
-0.38147	
-0.380676	
-0.381104	
-0.38092	
-0.381104	
-0.380371	
-0.380432	
-0.381042	
-0.381042	
-0.381104	
-0.381836	
-0.383545	
-0.382874	
-0.384338	
-0.384827	
-0.384949	
-0.384521	
-0.383118	
-0.384888	
-0.385254	
-0.384583	
-0.38446	
-0.384094	
-0.386292	
-0.385193	
-0.385742	
-0.384644	
-0.384583	
-0.383118	
-0.383606	
-0.383728	
-0.38385	
-0.384216	
-0.383728	
-0.384705	
-0.384521	
-0.38501	
-0.384033	
-0.384521	
-0.383362	
-0.383545	
-0.383362	
-0.383423	
-0.383911	
-0.383545	
-0.382751	
-0.383484	
-0.383972	
-0.383484	
-0.383301	
-0.382629	
-0.38208	
-0.382385	
-0.382263	
-0.382141	
-0.382141	
-0.381592	
-0.382507	
-0.381531	
-0.382385	
-0.380798	
-0.38147	
-0.380554	
-0.38092	
-0.38031	
-0.380798	
-0.38092	
-0.380554	
-0.382141	
-0.381348	
-0.382385	
-0.381531	
-0.382629	
-0.381165	
-0.381287	
-0.382385	
-0.382141	
-0.381836	
-0.382263	
-0.382507	
-0.382446	
-0.383728	
-0.383118	
-0.382385	
-0.38269	
-0.382629	
-0.382202	
-0.381348	
-0.383057	
-0.383789	
-0.382813	
-0.383667	
-0.384216	
-0.38269	
-0.382141	
-0.382629	
-0.382263	
-0.381226	
-0.382263	
-0.382874	
-0.382813	
-0.382141	
-0.382996	
-0.383301	
-0.382141	
-0.38324	
-0.38269	
-0.382935	
-0.381653	
-0.381653	
-0.382813	
-0.383301	
-0.381958	
-0.383057	
-0.383118	
-0.383972	
-0.384583	
-0.384094	
-0.382446	
-0.383179	
-0.38324	
-0.383362	
-0.383301	
-0.383118	
-0.383606	
-0.383484	
-0.384644	
-0.383301	
-0.383789	
-0.382996	
-0.383789	
-0.381531	
-0.381653	
-0.382813	
-0.382141	
-0.383118	
-0.382996	
-0.383545	
-0.382446	
-0.383728	
-0.383362	
-0.382935	
-0.383118	
-0.38269	
-0.382507	
-0.382324	
-0.382507	
-0.382446	
-0.38269	
-0.382629	
-0.381714	
-0.383057	
-0.381653	
-0.382385	
-0.383118	
-0.382568	
-0.382813	
-0.381958	
-0.383789	
-0.383301	
-0.384644	
-0.383667	
-0.384827	
-0.384155	
-0.384583	
-0.384705	
-0.383057	
-0.38446	
-0.384277	
-0.384583	
-0.383667	
-0.384338	
-0.384155	
-0.383972	
-0.384949	
-0.383057	
-0.384583	
-0.382751	
-0.383972	
-0.384094	
-0.38446	
-0.385925	
-0.385193	
-0.385742	
-0.385681	
-0.386719	
-0.386536	
-0.386658	
-0.386902	
-0.385864	
-0.387207	
-0.38678	
-0.388123	
-0.387573	
-0.387817	
-0.387329	
-0.387756	
-0.387268	
-0.386292	
-0.385986	
-0.38501	
-0.385193	
-0.384705	
-0.384888	
-0.384705	
-0.384521	
-0.384888	
-0.383667	
-0.384705	
-0.383484	
-0.383423	
-0.382507	
-0.383057	
-0.38324	
-0.383362	
-0.383606	
-0.38324	
-0.383484	
-0.382629	
-0.383484	
-0.383667	
-0.383301	
-0.38385	
-0.383484	
-0.383484	
-0.383179	
-0.383606	
-0.38385	
-0.383362	
-0.382996	
-0.382874	
-0.383667	
-0.382507	
-0.383789	
-0.382874	
-0.383484	
-0.382996	
-0.382202	
-0.383667	
-0.383362	
-0.383728	
-0.382751	
-0.38446	
-0.384277	
-0.38324	
-0.384216	
-0.38324	
-0.384094	
-0.384094	
-0.384949	
-0.384827	
-0.385193	
-0.385803	
-0.385925	
-0.38678	
-0.38562	
-0.386963	
-0.385132	
-0.386108	
-0.385925	
-0.387085	
-0.386658	
-0.386292	
-0.38623	
-0.385986	
-0.386963	
-0.385742	
-0.384399	
-0.38501	
-0.384644	
-0.385437	
-0.385376	
-0.386047	
-0.385559	
-0.385925	
-0.386353	
-0.385559	
-0.386353	
-0.385315	
-0.386353	
-0.384033	
-0.385864	
-0.385559	
-0.386047	
-0.385376	
-0.385498	
-0.386108	
-0.386719	
-0.387512	
-0.385925	
-0.38562	
-0.385437	
-0.386353	
-0.386658	
-0.385803	
-0.386597	
-0.386719	
-0.387085	
-0.387451	
-0.387085	
-0.388184	
-0.386963	
-0.386963	
-0.386414	
-0.386963	
-0.385986	
-0.387207	
-0.387146	
-0.387146	
-0.387329	
-0.38678	
-0.388916	
-0.387512	
-0.387634	
-0.387512	
-0.387207	
-0.387451	
-0.387329	
-0.388489	
-0.387573	
-0.387695	
-0.387878	
-0.388245	
-0.388916	
-0.388123	
-0.388	
-0.387573	
-0.388672	
-0.388367	
-0.389038	
-0.388977	
-0.389221	
-0.388977	
-0.390381	
-0.390137	
-0.389587	
-0.389954	
-0.389709	
-0.388489	
-0.389771	
-0.389709	
-0.390808	
-0.389893	
-0.389099	
-0.389099	
-0.388916	
-0.38916	
-0.387207	
-0.38678	
-0.385498	
-0.38623	
-0.385864	
-0.386292	
-0.386414	
-0.386475	
-0.386292	
-0.385803	
-0.387451	
-0.386658	
-0.387085	
-0.387207	
-0.387268	
-0.388367	
-0.387207	
-0.388611	
-0.388367	
-0.388	
-0.387085	
-0.388062	
-0.389832	
-0.387695	
-0.387756	
-0.387878	
-0.388367	
-0.388245	
-0.389526	
-0.38916	
-0.389038	
-0.388977	
-0.389587	
-0.389404	
-0.389343	
-0.389526	
-0.389221	
-0.388123	
-0.388977	
-0.389709	
-0.39093	
-0.389709	
-0.390503	
-0.390808	
-0.391235	
-0.391541	
-0.39093	
-0.390625	
-0.389954	
-0.391174	
-0.391296	
-0.391479	
-0.390869	
-0.391724	
-0.391479	
-0.392212	
-0.392334	
-0.392517	
-0.392151	
-0.391541	
-0.390076	
-0.391235	
-0.391479	
-0.391907	
-0.391296	
-0.39032	
-0.390808	
-0.390991	
-0.391296	
-0.390686	
-0.390808	
-0.390442	
-0.389832	
-0.389709	
-0.391418	
-0.391541	
-0.391357	
-0.391418	
-0.391418	
-0.393677	
-0.393311	
-0.392517	
-0.39032	
-0.391907	
-0.392273	
-0.391541	
-0.392273	
-0.391418	
-0.391357	
-0.39093	
-0.392334	
-0.392151	
-0.392151	
-0.392029	
-0.390869	
-0.391113	
-0.391479	
-0.392029	
-0.391602	
-0.391602	
-0.391418	
-0.391174	
-0.391846	
-0.391418	
-0.391296	
-0.390076	
-0.390503	
-0.389954	
-0.390564	
-0.391846	
-0.391052	
-0.391174	
-0.390808	
-0.391418	
-0.391113	
-0.391479	
-0.391479	
-0.389465	
-0.390808	
-0.390808	
-0.391968	
-0.391663	
-0.39209	
-0.391724	
-0.390991	
-0.393494	
-0.392334	
-0.391785	
-0.39093	
-0.391418	
-0.391113	
-0.39093	
-0.392639	
-0.392029	
-0.391663	
-0.391907	
-0.392517	
-0.392761	
-0.392456	
-0.391907	
-0.391418	
-0.391296	
-0.391357	
-0.391663	
-0.391174	
-0.391174	
-0.391174	
-0.390137	
-0.391602	
-0.390564	
-0.390625	
-0.389893	
-0.389893	
-0.389221	
-0.389587	
-0.390198	
-0.390686	
-0.390686	
-0.390076	
-0.391052	
-0.390686	
-0.391174	
-0.390442	
-0.389954	
-0.390564	
-0.389954	
-0.389465	
-0.390991	
-0.389771	
-0.389893	
-0.389526	
-0.389832	
-0.388794	
-0.389709	
-0.388794	
-0.38678	
-0.387512	
-0.387817	
-0.38855	
-0.388245	
-0.387939	
-0.387756	
-0.387878	
-0.389038	
-0.389038	
-0.38916	
-0.388306	
-0.389099	
-0.389282	
-0.389465	
-0.390503	
-0.390503	
-0.390442	
-0.390503	
-0.392334	
-0.391418	
-0.391785	
-0.391418	
-0.39032	
-0.391296	
-0.391418	
-0.391174	
-0.391479	
-0.391724	
-0.391663	
-0.390747	
-0.391724	
-0.391235	
-0.391479	
-0.390747	
-0.390564	
-0.390198	
-0.390381	
-0.391907	
-0.391296	
-0.391663	
-0.391479	
-0.391418	
-0.392151	
-0.391968	
-0.391602	
-0.390503	
-0.391418	
-0.391296	
-0.391541	
-0.391663	
-0.391174	
-0.391113	
-0.391052	
-0.392212	
-0.391113	
-0.391052	
-0.390686	
-0.39093	
-0.389709	
-0.389954	
-0.391602	
-0.390137	
-0.389648	
-0.389526	
-0.389954	
-0.390076	
-0.389526	
-0.389038	
-0.388794	
-0.388489	
-0.388428	
-0.389404	
-0.389099	
-0.388977	
-0.388611	
-0.388672	
-0.390381	
-0.389587	
-0.390076	
-0.389038	
-0.388794	
-0.388611	
-0.388245	
-0.389832	
-0.389221	
-0.38916	
-0.389343	
-0.389099	
-0.390015	
-0.389648	
-0.389648	
-0.388611	
-0.388733	
-0.388916	
-0.388794	
-0.388733	
-0.389221	
-0.388733	
-0.388184	
-0.389282	
-0.389282	
-0.389343	
-0.388184	
-0.387817	
-0.387573	
-0.387695	
-0.388245	
-0.387939	
-0.387817	
-0.387329	
-0.388184	
-0.387817	
-0.387878	
-0.388306	
-0.387268	
-0.38678	
-0.386658	
-0.388123	
-0.387451	
-0.387146	
-0.387146	
-0.386963	
-0.388	
-0.387207	
-0.387939	
-0.387024	
-0.386108	
-0.386353	
-0.386414	
-0.387268	
-0.386597	
-0.386292	
-0.386414	
-0.387024	
-0.386475	
-0.385681	
-0.386536	
-0.385742	
-0.384277	
-0.38446	
-0.385193	
-0.384705	
-0.384827	
-0.384705	
-0.384399	
-0.384338	
-0.385071	
-0.385132	
-0.383789	
-0.38385	
-0.383728	
-0.383972	
-0.385193	
-0.385071	
-0.385742	
-0.386047	
-0.387085	
-0.387451	
-0.388	
-0.388245	
-0.387207	
-0.386719	
-0.386658	
-0.387756	
-0.387939	
-0.388	
-0.387878	
-0.386719	
-0.388062	
-0.387451	
-0.387207	
-0.385864	
-0.386108	
-0.38446	
-0.385315	
-0.386902	
-0.385925	
-0.386047	
-0.385315	
-0.387268	
-0.386414	
-0.386963	
-0.386658	
-0.385986	
-0.385559	
-0.384521	
-0.385986	
-0.385498	
-0.385254	
-0.384705	
-0.385132	
-0.385559	
-0.385437	
-0.385193	
-0.38446	
-0.384644	
-0.383667	
-0.382751	
-0.384033	
-0.384338	
-0.384277	
-0.383179	
-0.383728	
-0.383667	
-0.384399	
-0.385071	
-0.382263	
-0.382935	
-0.382813	
-0.382874	
-0.383545	
-0.38324	
-0.383179	
-0.38324	
-0.383911	
-0.383667	
-0.384583	
-0.384033	
-0.383362	
-0.382324	
-0.382935	
-0.383911	
-0.384033	
-0.384033	
-0.38446	
-0.384155	
-0.384277	
-0.385132	
-0.384949	
-0.382507	
-0.383667	
-0.384094	
-0.384583	
-0.384644	
-0.384338	
-0.383545	
-0.383545	
-0.383911	
-0.382996	
-0.383972	
-0.38385	
-0.383728	
-0.383545	
-0.382935	
-0.383484	
-0.383911	
-0.382996	
-0.382263	
-0.384277	
-0.383423	
-0.383911	
-0.384033	
-0.383179	
-0.383301	
-0.382446	
-0.382935	
-0.383362	
-0.383423	
-0.383301	
-0.384094	
-0.384216	
-0.384216	
-0.385071	
-0.38446	
-0.383606	
-0.383545	
-0.383545	
-0.384277	
-0.383911	
-0.383789	
-0.384094	
-0.384216	
-0.38446	
-0.384338	
-0.384827	
-0.382629	
-0.383667	
-0.38324	
-0.382568	
-0.383423	
-0.383057	
-0.383057	
-0.38324	
-0.384399	
-0.383301	
-0.383484	
-0.38446	
-0.383423	
-0.382996	
-0.382874	
-0.383057	
-0.383362	
-0.382935	
-0.382141	
-0.383179	
-0.383423	
-0.383606	
-0.383972	
-0.383301	
-0.383728	
-0.383362	
-0.382629	
-0.384033	
-0.384338	
-0.384155	
-0.384399	
-0.38562	
-0.384949	
-0.384949	
-0.385742	
-0.384949	
-0.384766	
-0.383606	
-0.383484	
-0.384644	
-0.384338	
-0.383545	
-0.385193	
-0.384705	
-0.384094	
-0.385132	
-0.385193	
-0.384155	
-0.384399	
-0.384644	
-0.384644	
-0.384949	
-0.385193	
-0.385986	
-0.386902	
-0.386414	
-0.387268	
-0.387512	
-0.387573	
-0.387268	
-0.386475	
-0.386597	
-0.387268	
-0.387329	
-0.386047	
-0.387085	
-0.387512	
-0.386292	
-0.386353	
-0.386047	
-0.385742	
-0.385254	
-0.384521	
-0.38385	
-0.384644	
-0.384277	
-0.383972	
-0.384338	
-0.384033	
-0.384155	
-0.38446	
-0.383484	
-0.38324	
-0.383118	
-0.383118	
-0.383484	
-0.383728	
-0.383423	
-0.382996	
-0.384644	
-0.384033	
-0.384583	
-0.384827	
-0.383972	
-0.38385	
-0.384216	
-0.383484	
-0.383423	
-0.38385	
-0.384033	
-0.383789	
-0.384888	
-0.38385	
-0.385071	
-0.383972	
-0.383972	
-0.383667	
-0.383301	
-0.38269	
-0.384155	
-0.383301	
-0.38501	
-0.385071	
-0.384827	
-0.384766	
-0.385986	
-0.38501	
-0.385254	
-0.383972	
-0.38562	
-0.386536	
-0.38623	
-0.387085	
-0.38623	
-0.387878	
-0.386902	
-0.388306	
-0.387451	
-0.387146	
-0.387512	
-0.387024	
-0.386475	
-0.386963	
-0.385742	
-0.38562	
-0.386292	
-0.387329	
-0.386719	
-0.388	
-0.386353	
-0.386047	
-0.386475	
-0.385742	
-0.386047	
-0.386292	
-0.386536	
-0.386292	
-0.387146	
-0.386353	
-0.386841	
-0.386841	
-0.386902	
-0.386902	
-0.38562	
-0.385986	
-0.387085	
-0.386169	
-0.386963	
-0.38678	
-0.387085	
-0.387329	
-0.388428	
-0.387207	
-0.387512	
-0.387268	
-0.387573	
-0.386719	
-0.387756	
-0.387695	
-0.387817	
-0.388428	
-0.388184	
-0.388123	
-0.388916	
-0.388245	
-0.388123	
-0.387573	
-0.387939	
-0.387756	
-0.386597	
-0.388611	
-0.388672	
-0.389343	
-0.388611	
-0.389832	
-0.388672	
-0.388733	
-0.389893	
-0.387695	
-0.388123	
-0.38855	
-0.389221	
-0.38916	
-0.389587	
-0.389099	
-0.390076	
-0.391052	
-0.389465	
-0.390076	
-0.390564	
-0.390137	
-0.390564	
-0.390381	
-0.390808	
-0.390991	
-0.391174	
-0.391296	
-0.391052	
-0.391357	
-0.391296	
-0.391541	
-0.389099	
-0.390076	
-0.389587	
-0.388977	
-0.388733	
-0.388489	
-0.388733	
-0.387634	
-0.388489	
-0.387207	
-0.387573	
-0.387512	
-0.386169	
-0.386353	
-0.387024	
-0.387878	
-0.387939	
-0.388794	
-0.388489	
-0.389832	
-0.390076	
-0.389282	
-0.390015	
-0.388306	
-0.388855	
-0.387634	
-0.388123	
-0.389343	
-0.389587	
-0.390015	
-0.389832	
-0.390137	
-0.389771	
-0.390381	
-0.390564	
-0.388367	
-0.389771	
-0.389587	
-0.39032	
-0.390503	
-0.390869	
-0.390259	
-0.391479	
-0.391663	
-0.390442	
-0.39093	
-0.389893	
-0.390503	
-0.390625	
-0.391541	
-0.392639	
-0.392456	
-0.393066	
-0.3927	
-0.393677	
-0.393005	
-0.392334	
-0.393372	
-0.392944	
-0.393066	
-0.392029	
-0.393127	
-0.393311	
-0.393494	
-0.393433	
-0.392517	
-0.393066	
-0.392151	
-0.393555	
-0.392029	
-0.391479	
-0.391785	
-0.391052	
-0.391907	
-0.392212	
-0.393127	
-0.392578	
-0.393127	
-0.392822	
-0.392761	
-0.394287	
-0.392883	
-0.39209	
-0.393066	
-0.394287	
-0.393982	
-0.393311	
-0.394226	
-0.394043	
-0.393494	
-0.393066	
-0.392883	
-0.39325	
-0.392578	
-0.392395	
-0.391602	
-0.392883	
-0.392944	
-0.393433	
-0.393127	
-0.393982	
-0.39325	
-0.391663	
-0.394165	
-0.392639	
-0.39209	
-0.392334	
-0.39209	
-0.393005	
-0.393005	
-0.393677	
-0.392517	
-0.392883	
-0.392944	
-0.393433	
-0.392273	
-0.392395	
-0.391602	
-0.391968	
-0.392761	
-0.392761	
-0.392761	
-0.393005	
-0.393677	
-0.393188	
-0.393677	
-0.393921	
-0.393555	
-0.393433	
-0.393372	
-0.392517	
-0.393372	
-0.393005	
-0.394287	
-0.393677	
-0.394287	
-0.39325	
-0.394043	
-0.394043	
-0.393311	
-0.392761	
-0.392334	
-0.392395	
-0.393372	
-0.393555	
-0.39386	
-0.393311	
-0.39325	
-0.392578	
-0.393799	
-0.392456	
-0.392151	
-0.391846	
-0.392151	
-0.391724	
-0.391968	
-0.392883	
-0.392273	
-0.392578	
-0.391968	
-0.392578	
-0.392456	
-0.392822	
-0.391235	
-0.391418	
-0.391418	
-0.392578	
-0.392334	
-0.393066	
-0.392578	
-0.3927	
-0.392639	
-0.392334	
-0.391663	
-0.391541	
-0.390564	
-0.389771	
-0.389587	
-0.390259	
-0.39032	
-0.390076	
-0.390015	
-0.389893	
-0.389893	
-0.390259	
-0.389648	
-0.389404	
-0.388977	
-0.390198	
-0.390503	
-0.390808	
-0.392395	
-0.391968	
-0.392273	
-0.391968	
-0.392883	
-0.3927	
-0.392212	
-0.392395	
-0.392883	
-0.391968	
-0.392883	
-0.393372	
-0.394165	
-0.393677	
-0.393677	
-0.394104	
-0.393677	
-0.39386	
-0.39386	
-0.393188	
-0.393433	
-0.392944	
-0.393494	
-0.393372	
-0.393372	
-0.39386	
-0.393372	
-0.39386	
-0.393433	
-0.394348	
-0.393066	
-0.3927	
-0.393616	
-0.393677	
-0.393738	
-0.393677	
-0.394043	
-0.39447	
-0.393555	
-0.394714	
-0.393127	
-0.393372	
-0.39325	
-0.39325	
-0.392212	
-0.393433	
-0.394226	
-0.393433	
-0.393494	
-0.392761	
-0.393311	
-0.39325	
-0.391724	
-0.391235	
-0.390991	
-0.390991	
-0.390442	
-0.391663	
-0.391357	
-0.391418	
-0.391846	
-0.390869	
-0.391541	
-0.391174	
-0.392395	
-0.390259	
-0.391785	
-0.391846	
-0.391968	
-0.392944	
-0.391846	
-0.391479	
-0.391724	
-0.392395	
-0.392639	
-0.391235	
-0.391663	
-0.391785	
-0.391602	
-0.390259	
-0.39209	
-0.391724	
-0.391907	
-0.391479	
-0.390503	
-0.392395	
-0.391785	
-0.390869	
-0.391174	
-0.39093	
-0.390869	
-0.390076	
-0.391052	
-0.390808	
-0.390442	
-0.391418	
-0.390076	
-0.391174	
-0.390076	
-0.390991	
-0.388611	
-0.390259	
-0.390015	
-0.390686	
-0.390442	
-0.389954	
-0.390869	
-0.389709	
-0.391052	
-0.389832	
-0.390198	
-0.390381	
-0.38916	
-0.389587	
-0.388977	
-0.390625	
-0.389648	
-0.389648	
-0.389648	
-0.389709	
-0.390259	
-0.388855	
-0.388977	
-0.388733	
-0.387817	
-0.388	
-0.387695	
-0.389099	
-0.388	
-0.388	
-0.387939	
-0.388428	
-0.388367	
-0.386719	
-0.387756	
-0.386597	
-0.387268	
-0.387207	
-0.387695	
-0.387024	
-0.387817	
-0.388672	
-0.387512	
-0.389832	
-0.389099	
-0.389954	
-0.389404	
-0.390625	
-0.390503	
-0.390503	
-0.391357	
-0.391052	
-0.39093	
-0.390747	
-0.391296	
-0.391663	
-0.390503	
-0.390991	
-0.389648	
-0.390076	
-0.389465	
	
