E:\DOCUMENTS AND SETTINGS\JPOTAS\MEUS DOCUMENTOS\UFRJ\RSCI-BM 12 WK SERIES\070727-RSCI-BM-05\RSCI-BM-05-LEMG\070727-RSCI-BM-05-LEMG-0005.ACQ
0.025000 msec/sample
1 channel
Analog input
Volts
CH1	
2000	
-0.388489	
-0.388489	
-0.388062	
-0.387817	
-0.388	
-0.387634	
-0.387146	
-0.387512	
-0.387268	
-0.387268	
-0.385986	
-0.386963	
-0.387756	
-0.387329	
-0.386475	
-0.387085	
-0.387024	
-0.386719	
-0.386841	
-0.385742	
-0.38623	
-0.386047	
-0.386536	
-0.387024	
-0.388	
-0.387268	
-0.387268	
-0.38678	
-0.387268	
-0.38678	
-0.386047	
-0.386475	
-0.387085	
-0.38678	
-0.386292	
-0.387024	
-0.387573	
-0.387207	
-0.387695	
-0.38739	
-0.387634	
-0.387634	
-0.388367	
-0.388245	
-0.388733	
-0.388306	
-0.38855	
-0.388794	
-0.389954	
-0.388672	
-0.389343	
-0.388733	
-0.388733	
-0.38916	
-0.38916	
-0.388672	
-0.389893	
-0.388794	
-0.388916	
-0.38916	
-0.388855	
-0.388428	
-0.387634	
-0.387268	
-0.387695	
-0.387817	
-0.388062	
-0.388184	
-0.388855	
-0.38916	
-0.389832	
-0.39032	
-0.390747	
-0.390442	
-0.39032	
-0.389404	
-0.389343	
-0.390381	
-0.390381	
-0.389587	
-0.391296	
-0.391113	
-0.392029	
-0.392029	
-0.392151	
-0.391785	
-0.39209	
-0.390747	
-0.391968	
-0.392578	
-0.392212	
-0.392151	
-0.392212	
-0.39209	
-0.392578	
-0.392578	
-0.392517	
-0.391968	
-0.391602	
-0.391296	
-0.390137	
-0.391113	
-0.389526	
-0.389282	
-0.390686	
-0.390564	
-0.390198	
-0.390503	
-0.390747	
-0.389832	
-0.390137	
-0.388794	
-0.389465	
-0.389282	
-0.388	
-0.388184	
-0.388123	
-0.387878	
-0.388672	
-0.388794	
-0.388	
-0.387207	
-0.386353	
-0.386169	
-0.386169	
-0.386292	
-0.384277	
-0.384155	
-0.385498	
-0.384766	
-0.385681	
-0.385986	
-0.386169	
-0.385254	
-0.385864	
-0.385925	
-0.385864	
-0.386047	
-0.384827	
-0.384827	
-0.385498	
-0.384827	
-0.386047	
-0.385864	
-0.385742	
-0.385986	
-0.384888	
-0.386169	
-0.385376	
-0.385803	
-0.384766	
-0.385864	
-0.385742	
-0.384827	
-0.385864	
-0.386475	
-0.386841	
-0.386047	
-0.386597	
-0.386841	
-0.386658	
-0.386292	
-0.385986	
-0.38562	
-0.386597	
-0.385681	
-0.387329	
-0.386963	
-0.386475	
-0.386658	
-0.386414	
-0.386963	
-0.387451	
-0.387329	
-0.387207	
-0.387207	
-0.387634	
-0.386963	
-0.387817	
-0.388	
-0.387939	
-0.387756	
-0.388	
-0.388489	
-0.387817	
-0.387817	
-0.387573	
-0.38678	
-0.386658	
-0.385376	
-0.387268	
-0.387085	
-0.386169	
-0.38623	
-0.386963	
-0.386108	
-0.386597	
-0.384827	
-0.381409	
-0.381714	
-0.382141	
-0.382507	
-0.383301	
-0.387024	
-0.388916	
-0.389465	
-0.389221	
-0.388672	
-0.389404	
-0.389404	
-0.389465	
-0.389404	
-0.389709	
-0.385681	
-0.384705	
-0.384155	
-0.384094	
-0.384338	
-0.384583	
-0.388245	
-0.390259	
-0.390869	
-0.390381	
-0.390503	
-0.390076	
-0.389771	
-0.391296	
-0.390564	
-0.389343	
-0.389282	
-0.389954	
-0.38855	
-0.389099	
-0.389099	
-0.388489	
-0.388977	
-0.388672	
-0.388245	
-0.389954	
-0.389893	
-0.388794	
-0.388733	
-0.389038	
-0.38916	
-0.388367	
-0.388977	
-0.388428	
-0.389099	
-0.390137	
-0.391174	
-0.393555	
-0.395752	
-0.397461	
-0.399597	
-0.403687	
-0.407227	
-0.410828	
-0.414551	
-0.418091	
-0.423096	
-0.425293	
-0.431091	
-0.433472	
-0.436646	
-0.441223	
-0.444946	
-0.448364	
-0.453308	
-0.458618	
-0.464722	
-0.471313	
-0.477722	
-0.483826	
-0.491333	
-0.497009	
-0.500427	
-0.503967	
-0.505554	
-0.506042	
-0.505493	
-0.505676	
-0.502686	
-0.501221	
-0.499207	
-0.496399	
-0.492432	
-0.488586	
-0.485474	
-0.481201	
-0.47699	
-0.472595	
-0.467834	
-0.462769	
-0.456909	
-0.452759	
-0.447021	
-0.443726	
-0.438049	
-0.434021	
-0.430725	
-0.426208	
-0.422791	
-0.421021	
-0.417725	
-0.416687	
-0.413513	
-0.41272	
-0.40979	
-0.40918	
-0.407593	
-0.405212	
-0.403198	
-0.402283	
-0.40033	
-0.398315	
-0.397644	
-0.396179	
-0.395447	
-0.395752	
-0.396179	
-0.396851	
-0.398132	
-0.398438	
-0.399902	
-0.401489	
-0.402649	
-0.404053	
-0.405457	
-0.405273	
-0.405273	
-0.405457	
-0.405273	
-0.404785	
-0.40332	
-0.401184	
-0.398865	
-0.396179	
-0.393188	
-0.388672	
-0.384827	
-0.380371	
-0.376404	
-0.370178	
-0.36499	
-0.358643	
-0.352661	
-0.345032	
-0.337646	
-0.329712	
-0.322632	
-0.316223	
-0.30957	
-0.302002	
-0.297974	
-0.292175	
-0.288574	
-0.284424	
-0.281494	
-0.279053	
-0.277222	
-0.2771	
-0.278198	
-0.278564	
-0.28125	
-0.283447	
-0.286987	
-0.290527	
-0.295349	
-0.298645	
-0.302368	
-0.305603	
-0.308838	
-0.312256	
-0.314941	
-0.316284	
-0.317627	
-0.318237	
-0.319458	
-0.321228	
-0.321716	
-0.322083	
-0.322449	
-0.323303	
-0.323975	
-0.325623	
-0.325439	
-0.327881	
-0.329773	
-0.332214	
-0.334412	
-0.336975	
-0.338501	
-0.340088	
-0.34314	
-0.345032	
-0.347168	
-0.347595	
-0.350342	
-0.350891	
-0.352356	
-0.353088	
-0.353455	
-0.354004	
-0.353638	
-0.35437	
-0.353699	
-0.354065	
-0.354065	
-0.354004	
-0.355225	
-0.355103	
-0.356445	
-0.356323	
-0.357361	
-0.356995	
-0.357422	
-0.357361	
-0.357178	
-0.358215	
-0.357178	
-0.358215	
-0.358398	
-0.358643	
-0.359558	
-0.35968	
-0.35968	
-0.359497	
-0.361084	
-0.360535	
-0.361938	
-0.36084	
-0.361206	
-0.362427	
-0.362	
-0.363953	
-0.363525	
-0.364868	
-0.364197	
-0.365784	
-0.365417	
-0.365784	
-0.366089	
-0.365417	
-0.366394	
-0.366028	
-0.368164	
-0.367615	
-0.368164	
-0.368774	
-0.369446	
-0.369507	
-0.368835	
-0.370422	
-0.369751	
-0.371399	
-0.371826	
-0.372681	
-0.373169	
-0.372864	
-0.374451	
-0.373352	
-0.374939	
-0.374451	
-0.374512	
-0.375183	
-0.373291	
-0.375183	
-0.374512	
-0.374817	
-0.374512	
-0.374634	
-0.37561	
-0.374207	
-0.375916	
-0.374756	
-0.37616	
-0.374634	
-0.375305	
-0.375427	
-0.375916	
-0.375977	
-0.376099	
-0.376282	
-0.375427	
-0.376953	
-0.37616	
-0.376038	
-0.376099	
-0.374756	
-0.375549	
-0.37616	
-0.376404	
-0.376465	
-0.376221	
-0.375854	
-0.377319	
-0.377869	
-0.376343	
-0.376343	
-0.376099	
-0.375488	
-0.376587	
-0.377625	
-0.376404	
-0.376404	
-0.377319	
-0.377197	
-0.37793	
-0.376526	
-0.376587	
-0.376526	
-0.375183	
-0.377502	
-0.377441	
-0.37738	
-0.37738	
-0.378113	
-0.37677	
-0.378235	
-0.379395	
-0.378174	
-0.378357	
-0.378479	
-0.379333	
-0.379395	
-0.380005	
-0.379761	
-0.379883	
-0.379883	
-0.380249	
-0.381042	
-0.379883	
-0.378723	
-0.377563	
-0.378479	
-0.378845	
-0.379456	
-0.379089	
-0.378113	
-0.378418	
-0.379272	
-0.379761	
-0.379028	
-0.377441	
-0.377869	
-0.378174	
-0.378235	
-0.378357	
-0.378845	
-0.37854	
-0.378235	
-0.377808	
-0.378357	
-0.379822	
-0.378052	
-0.376892	
-0.377869	
-0.376648	
-0.379089	
-0.379395	
-0.379272	
-0.379761	
-0.379822	
-0.3797	
-0.380676	
-0.381409	
-0.380005	
-0.380615	
-0.380127	
-0.379517	
-0.380737	
-0.380554	
-0.380981	
-0.381165	
-0.380249	
-0.381409	
-0.382446	
-0.382996	
-0.381348	
-0.381104	
-0.381836	
-0.382019	
-0.383423	
-0.382935	
-0.382813	
-0.382568	
-0.383057	
-0.383423	
-0.384033	
-0.383667	
-0.382568	
-0.38208	
-0.38269	
-0.383972	
-0.384094	
-0.383545	
-0.383545	
-0.383362	
-0.384766	
-0.384338	
-0.384155	
-0.383362	
-0.383301	
-0.383911	
-0.384644	
-0.386536	
-0.386658	
-0.386902	
-0.387451	
-0.387451	
-0.388245	
-0.388367	
-0.38739	
-0.385986	
-0.387817	
-0.386292	
-0.388367	
-0.387695	
-0.388062	
-0.388	
-0.388	
-0.388611	
-0.387695	
-0.389099	
-0.387695	
-0.38678	
-0.386475	
-0.388794	
-0.387939	
-0.388062	
-0.387817	
-0.387146	
-0.388	
-0.388611	
-0.389221	
-0.38739	
-0.386536	
-0.387024	
-0.387756	
-0.388184	
-0.38739	
-0.386841	
-0.386841	
-0.386963	
-0.388	
-0.387146	
-0.386292	
-0.38562	
-0.38623	
-0.384338	
-0.386292	
-0.386292	
-0.385742	
-0.385925	
-0.384888	
-0.38623	
-0.386414	
-0.386902	
-0.385376	
-0.384033	
-0.384766	
-0.385437	
-0.385437	
-0.384338	
-0.384338	
-0.383545	
-0.384094	
-0.384583	
-0.384033	
-0.384094	
-0.383301	
-0.382568	
-0.382507	
-0.384521	
-0.38385	
-0.383728	
-0.383484	
-0.383423	
-0.38385	
-0.38446	
-0.384583	
-0.383484	
-0.382446	
-0.382996	
-0.382141	
-0.383789	
-0.383179	
-0.382263	
-0.382996	
-0.383362	
-0.384216	
-0.38385	
-0.385071	
-0.383545	
-0.383301	
-0.383423	
-0.384338	
-0.383789	
-0.383606	
-0.384155	
-0.384094	
-0.384521	
-0.385254	
-0.384521	
-0.384521	
-0.383972	
-0.383972	
-0.384949	
-0.385315	
-0.38501	
-0.385193	
-0.384949	
-0.385925	
-0.386292	
-0.386353	
-0.386047	
-0.386414	
-0.384583	
-0.385742	
-0.38562	
-0.386902	
-0.38678	
-0.386414	
-0.385559	
-0.386841	
-0.38739	
-0.387573	
-0.387573	
-0.385681	
-0.383911	
-0.38501	
-0.386353	
-0.385803	
-0.385742	
-0.385559	
-0.386292	
-0.386658	
-0.389282	
-0.38855	
-0.387817	
-0.387268	
-0.387695	
-0.388428	
-0.388733	
-0.388306	
-0.388306	
-0.388428	
-0.388916	
-0.390015	
-0.389771	
-0.390381	
-0.389648	
-0.38855	
-0.390259	
-0.390503	
-0.39032	
-0.390076	
-0.390198	
-0.390137	
-0.390869	
-0.391418	
-0.390747	
-0.390076	
-0.389343	
-0.389099	
-0.388855	
-0.389648	
-0.389709	
-0.389465	
-0.388062	
-0.388916	
-0.388916	
-0.389282	
-0.389221	
-0.388123	
-0.386414	
-0.386963	
-0.388306	
-0.388062	
-0.387268	
-0.387634	
-0.387268	
-0.387512	
-0.38855	
-0.387695	
-0.387573	
-0.385742	
-0.385437	
-0.385864	
-0.385437	
-0.384583	
-0.385132	
-0.383789	
-0.384277	
-0.384583	
-0.38562	
-0.384399	
-0.384094	
-0.383118	
-0.382874	
-0.383728	
-0.383911	
-0.384583	
-0.384338	
-0.384705	
-0.384583	
-0.385132	
-0.385742	
-0.38501	
-0.383972	
-0.38208	
-0.383606	
-0.38324	
-0.38446	
-0.384338	
-0.383545	
-0.384766	
-0.384705	
-0.385925	
-0.385498	
-0.385193	
-0.38446	
-0.383972	
-0.385925	
-0.385254	
-0.385132	
-0.385559	
-0.385193	
-0.385498	
-0.385315	
-0.386047	
-0.386414	
-0.385803	
-0.384277	
-0.385071	
-0.38623	
-0.385803	
-0.38623	
-0.386292	
-0.386597	
-0.386108	
-0.386963	
-0.387146	
-0.387268	
-0.386536	
-0.385254	
-0.386414	
-0.386108	
-0.386963	
-0.386841	
-0.387085	
-0.387146	
-0.387024	
-0.388184	
-0.387024	
-0.386841	
-0.385986	
-0.386047	
-0.386047	
-0.385925	
-0.385498	
-0.385681	
-0.386169	
-0.386414	
-0.386719	
-0.388672	
-0.38855	
-0.387939	
-0.387512	
-0.388367	
-0.387268	
-0.388	
-0.388306	
-0.387695	
-0.388367	
-0.389038	
-0.389465	
-0.390137	
-0.389465	
-0.388916	
-0.387329	
-0.389465	
-0.388428	
-0.389282	
-0.389526	
-0.389954	
-0.390686	
-0.390198	
-0.391479	
-0.390381	
-0.391296	
-0.389221	
-0.388611	
-0.388855	
-0.38916	
-0.388672	
-0.387634	
-0.38916	
-0.388062	
-0.388794	
-0.390503	
-0.389221	
-0.388977	
-0.388306	
-0.388733	
-0.387939	
-0.388062	
-0.388794	
-0.387939	
-0.388489	
-0.388306	
-0.388611	
-0.389099	
-0.388855	
-0.388	
-0.387268	
-0.387451	
-0.386414	
-0.387573	
-0.387268	
-0.387085	
-0.388062	
-0.387756	
-0.388367	
-0.388794	
-0.388733	
-0.387573	
-0.386597	
-0.386536	
-0.388245	
-0.388123	
-0.387695	
-0.388123	
-0.388245	
-0.388062	
-0.38855	
-0.388367	
-0.387329	
-0.386414	
-0.385376	
-0.385132	
-0.384399	
-0.384949	
-0.383972	
-0.384827	
-0.384644	
-0.38501	
-0.386658	
-0.385498	
-0.384583	
-0.384949	
-0.385193	
-0.383911	
-0.384583	
-0.384766	
-0.384766	
-0.38501	
-0.384949	
-0.385315	
-0.387268	
-0.386292	
-0.384949	
-0.384827	
-0.385498	
-0.385437	
-0.385254	
-0.38562	
-0.386108	
-0.386108	
-0.386169	
-0.387024	
-0.386963	
-0.386536	
-0.386353	
-0.384827	
-0.385803	
-0.387512	
-0.387451	
-0.387024	
-0.387634	
-0.388184	
-0.388062	
-0.388916	
-0.39032	
-0.388733	
-0.388184	
-0.387329	
-0.388855	
-0.388977	
-0.389465	
-0.389587	
-0.389832	
-0.389526	
-0.39032	
-0.392578	
-0.391968	
-0.391479	
-0.391296	
-0.391113	
-0.39209	
-0.392517	
-0.392517	
-0.391235	
-0.392151	
-0.392273	
-0.392212	
-0.391968	
-0.392151	
-0.391907	
-0.390808	
-0.391113	
-0.392456	
-0.392212	
-0.392517	
-0.392029	
-0.392334	
-0.393066	
-0.393799	
-0.394104	
-0.392822	
-0.392822	
-0.390808	
-0.392273	
-0.392273	
-0.392578	
-0.392761	
-0.393127	
-0.392212	
-0.392395	
-0.393982	
-0.394287	
-0.392212	
-0.392273	
-0.391907	
-0.392151	
-0.392639	
-0.392212	
-0.391602	
-0.391968	
-0.392395	
-0.392151	
-0.392883	
-0.393127	
-0.391296	
-0.390503	
-0.39093	
-0.391541	
-0.390747	
-0.390442	
-0.390137	
-0.390686	
-0.390381	
-0.391052	
-0.391663	
-0.391479	
-0.390869	
-0.390747	
-0.389954	
-0.39032	
-0.391113	
-0.391418	
-0.391541	
-0.392151	
-0.392273	
-0.392456	
-0.392822	
-0.392029	
-0.391479	
-0.390076	
-0.391418	
-0.39093	
-0.390564	
-0.390442	
-0.389954	
-0.389771	
-0.389343	
-0.390503	
-0.39032	
-0.389404	
-0.388489	
-0.387817	
-0.389221	
-0.388489	
-0.388306	
-0.387939	
-0.387512	
-0.387939	
-0.388184	
-0.389282	
-0.38916	
-0.386963	
-0.387329	
-0.387146	
-0.387512	
-0.387451	
-0.387939	
-0.386963	
-0.388489	
-0.388184	
-0.389465	
-0.389404	
-0.389587	
-0.388672	
-0.387573	
-0.389099	
-0.389526	
-0.389893	
-0.390015	
-0.389526	
-0.390015	
-0.390503	
-0.391296	
-0.391541	
-0.390869	
-0.390686	
-0.388916	
-0.39032	
-0.391541	
-0.392151	
-0.392212	
-0.3927	
-0.393677	
-0.393555	
-0.395508	
-0.396179	
-0.394409	
-0.394287	
-0.394165	
-0.394592	
-0.395325	
-0.394714	
-0.393616	
-0.395264	
-0.394958	
-0.395142	
-0.395447	
-0.395813	
-0.393921	
-0.393982	
-0.392944	
-0.393921	
-0.393494	
-0.394409	
-0.393494	
-0.394348	
-0.394714	
-0.39447	
-0.395874	
-0.394836	
-0.394043	
-0.393555	
-0.39209	
-0.394226	
-0.393982	
-0.394287	
-0.393616	
-0.394104	
-0.393616	
-0.394043	
-0.39502	
-0.393799	
-0.393311	
-0.392517	
-0.392273	
-0.393799	
-0.393738	
-0.392395	
-0.393677	
-0.393372	
-0.393311	
-0.393616	
-0.395508	
-0.392822	
-0.392578	
-0.391174	
-0.392883	
-0.391907	
-0.392578	
-0.391907	
-0.393005	
-0.392761	
-0.393188	
-0.393738	
-0.393555	
-0.3927	
-0.392517	
-0.392944	
-0.393738	
-0.393799	
-0.392517	
-0.393433	
-0.393555	
-0.393616	
-0.393555	
-0.395508	
-0.394043	
-0.39386	
-0.392822	
-0.391052	
-0.392578	
-0.391663	
-0.391418	
-0.391724	
-0.391907	
-0.391418	
-0.391968	
-0.393555	
-0.390869	
-0.390503	
-0.389709	
-0.389282	
-0.390503	
-0.390381	
-0.389465	
-0.389893	
-0.390076	
-0.390503	
-0.390808	
-0.390869	
-0.389038	
-0.38916	
-0.387695	
-0.389221	
-0.389587	
-0.389587	
-0.389648	
-0.390198	
-0.390259	
-0.390442	
-0.391602	
-0.391663	
-0.390137	
-0.39032	
-0.388733	
-0.39032	
-0.390198	
-0.390808	
-0.390686	
-0.390259	
-0.39032	
-0.391174	
-0.3927	
-0.391418	
-0.390625	
-0.390869	
-0.39093	
-0.391541	
-0.391113	
-0.390686	
-0.391174	
-0.391357	
-0.391235	
-0.391968	
-0.3927	
-0.391479	
-0.391296	
-0.390625	
-0.389954	
-0.391785	
-0.392212	
-0.39093	
-0.392151	
-0.392029	
-0.392395	
-0.392273	
-0.392822	
-0.391663	
-0.392029	
-0.389893	
-0.391174	
-0.393005	
-0.392883	
-0.392883	
-0.393982	
-0.394226	
-0.395264	
-0.396362	
-0.39624	
-0.395264	
-0.394836	
-0.395264	
-0.394714	
-0.394836	
-0.394714	
-0.395142	
-0.394775	
-0.395081	
-0.394958	
-0.396606	
-0.39563	
-0.394287	
-0.394897	
-0.393005	
-0.394592	
-0.394592	
-0.393616	
-0.394287	
-0.39447	
-0.394531	
-0.394775	
-0.395691	
-0.394409	
-0.393921	
-0.393066	
-0.392639	
-0.393311	
-0.392944	
-0.39209	
-0.392578	
-0.392578	
-0.3927	
-0.392639	
-0.392761	
-0.392151	
-0.391907	
-0.391113	
-0.390503	
-0.391418	
-0.391602	
-0.391479	
-0.391602	
-0.391174	
-0.390625	
-0.391113	
-0.392334	
-0.39093	
-0.39032	
-0.389099	
-0.389954	
-0.389771	
-0.389038	
-0.388733	
-0.388794	
-0.388794	
-0.388855	
-0.390503	
-0.390076	
-0.388916	
-0.388184	
-0.388733	
-0.388062	
-0.388611	
-0.387451	
-0.38855	
-0.388428	
-0.388733	
-0.388367	
-0.389771	
-0.38855	
-0.387817	
-0.387756	
-0.38623	
-0.386414	
-0.387146	
-0.386536	
-0.38739	
-0.387878	
-0.387695	
-0.388367	
-0.389465	
-0.38855	
-0.387939	
-0.387512	
-0.386597	
-0.388245	
-0.388062	
-0.387695	
-0.388245	
-0.38855	
-0.388611	
-0.388611	
-0.388916	
-0.38916	
-0.388733	
-0.387451	
-0.389404	
-0.388977	
-0.388611	
-0.389648	
-0.389709	
-0.389893	
-0.389954	
-0.390503	
-0.390259	
-0.390869	
-0.390625	
-0.388062	
-0.389954	
-0.390076	
-0.390137	
-0.39032	
-0.390442	
-0.39032	
-0.390381	
-0.391357	
-0.390015	
-0.389099	
-0.389282	
-0.387573	
-0.388916	
-0.389648	
-0.389648	
-0.390747	
-0.390869	
-0.390869	
-0.391235	
-0.3927	
-0.391602	
-0.391968	
-0.391541	
-0.391296	
-0.391724	
-0.391907	
-0.391846	
-0.392334	
-0.392456	
-0.392822	
-0.393127	
-0.395508	
-0.393555	
-0.393616	
-0.393433	
-0.393127	
-0.392883	
-0.393066	
-0.393616	
-0.393494	
-0.393738	
-0.392944	
-0.393982	
-0.395081	
-0.393616	
-0.393066	
-0.391296	
-0.391968	
-0.391846	
-0.39209	
-0.392151	
-0.391907	
-0.391602	
-0.391663	
-0.391846	
-0.392151	
-0.391907	
-0.391296	
-0.388062	
-0.390137	
-0.389954	
-0.390198	
-0.389893	
-0.389771	
-0.389526	
-0.389404	
-0.390686	
-0.389038	
-0.388672	
-0.38855	
-0.386902	
-0.387024	
-0.386963	
-0.387024	
-0.387207	
-0.38678	
-0.386658	
-0.387146	
-0.387817	
-0.387024	
-0.387268	
-0.386963	
-0.38501	
-0.386597	
-0.38623	
-0.387207	
-0.387451	
-0.386963	
-0.387268	
-0.38739	
-0.389038	
-0.386902	
-0.386658	
-0.386292	
-0.38562	
-0.385925	
-0.386536	
-0.387024	
-0.387024	
-0.387451	
-0.387146	
-0.387512	
-0.389099	
-0.387878	
-0.388306	
-0.387085	
-0.387634	
-0.38739	
-0.387512	
-0.388062	
-0.387756	
-0.387939	
-0.387817	
-0.388306	
-0.389648	
-0.389465	
-0.388428	
-0.386658	
-0.388245	
-0.387329	
-0.389038	
-0.388977	
-0.388916	
-0.388855	
-0.388855	
-0.389893	
-0.390869	
-0.390015	
-0.389282	
-0.388123	
-0.388855	
-0.388367	
-0.389038	
-0.388611	
-0.388367	
-0.388184	
-0.388062	
-0.389709	
-0.388428	
-0.389099	
-0.387024	
-0.385071	
-0.387695	
-0.388672	
-0.388672	
-0.389099	
-0.389709	
-0.389893	
-0.390442	
-0.391541	
-0.391052	
-0.390747	
-0.390076	
-0.388062	
-0.389832	
-0.390747	
-0.391174	
-0.391052	
-0.391296	
-0.391052	
-0.391113	
-0.393799	
-0.392029	
-0.391418	
-0.391296	
-0.391479	
-0.390442	
-0.392334	
-0.391785	
-0.392273	
-0.391785	
-0.391357	
-0.391846	
-0.39325	
-0.392517	
-0.39032	
-0.389709	
-0.390259	
-0.390259	
-0.390625	
-0.390808	
-0.390564	
-0.39093	
-0.390625	
-0.390991	
-0.392273	
-0.390808	
-0.390137	
-0.388916	
-0.389832	
-0.389404	
-0.390076	
-0.389526	
-0.389954	
-0.389954	
-0.39032	
-0.390381	
-0.390259	
-0.390991	
-0.389771	
-0.386719	
-0.389038	
-0.390137	
-0.389832	
-0.389893	
-0.389954	
-0.389771	
-0.389587	
-0.390503	
-0.390198	
-0.391357	
-0.390076	
-0.387939	
-0.389343	
-0.389404	
-0.389526	
-0.388977	
-0.388489	
-0.388062	
-0.387939	
-0.388733	
-0.387817	
-0.387085	
-0.385925	
-0.384399	
-0.384705	
-0.386475	
-0.386353	
-0.386169	
-0.386108	
-0.386597	
-0.386719	
-0.388977	
-0.387451	
-0.386536	
-0.385925	
-0.384338	
-0.385803	
-0.386475	
-0.386902	
-0.386841	
-0.386597	
-0.386963	
-0.386963	
-0.388611	
-0.387817	
-0.387329	
-0.386841	
-0.387085	
-0.386414	
-0.387634	
-0.387695	
-0.388	
-0.388123	
-0.388367	
-0.388855	
-0.391113	
-0.389465	
-0.388611	
-0.388184	
-0.38855	
-0.388367	
-0.389221	
-0.389343	
-0.39032	
-0.389954	
-0.390198	
-0.390442	
-0.3927	
-0.390747	
-0.390625	
-0.389832	
-0.390259	
-0.390625	
-0.391418	
-0.392273	
-0.392761	
-0.393799	
-0.393433	
-0.394348	
-0.394043	
-0.394043	
-0.392944	
-0.390808	
-0.392151	
-0.393005	
-0.393005	
-0.392761	
-0.393311	
-0.3927	
-0.393311	
-0.394165	
-0.394226	
-0.394531	
-0.393127	
-0.389954	
-0.393494	
-0.393921	
-0.394104	
-0.394043	
-0.393616	
-0.39386	
-0.39386	
-0.395203	
-0.39386	
-0.393982	
-0.3927	
-0.391296	
-0.393127	
-0.393127	
-0.393677	
-0.393616	
-0.393494	
-0.393799	
-0.393555	
-0.395691	
-0.393677	
-0.393616	
-0.392456	
-0.389954	
-0.392639	
-0.392334	
-0.391907	
-0.39209	
-0.391968	
-0.391968	
-0.392151	
-0.394714	
-0.391907	
-0.391907	
-0.390686	
-0.390625	
-0.390442	
-0.391663	
-0.391602	
-0.391479	
-0.391174	
-0.391541	
-0.392395	
-0.39447	
-0.392395	
-0.39209	
-0.392151	
-0.392273	
-0.392029	
-0.392395	
-0.392761	
-0.392578	
-0.392395	
-0.391296	
-0.391174	
-0.394104	
-0.390869	
-0.390442	
-0.389893	
-0.390442	
-0.388916	
-0.390076	
-0.389282	
-0.389893	
-0.388855	
-0.389465	
-0.389465	
-0.39032	
-0.389771	
-0.388489	
-0.385986	
-0.387512	
-0.388123	
-0.388306	
-0.388062	
-0.387939	
-0.388306	
-0.387939	
-0.389099	
-0.389465	
-0.388977	
-0.388611	
-0.386353	
-0.388611	
-0.389343	
-0.389832	
-0.389587	
-0.389832	
-0.389771	
-0.390259	
-0.391418	
-0.390869	
-0.390991	
-0.389587	
-0.388916	
-0.390564	
-0.39093	
-0.391479	
-0.391357	
-0.391846	
-0.392395	
-0.3927	
-0.394836	
-0.392517	
-0.393311	
-0.392883	
-0.392822	
-0.393799	
-0.394836	
-0.395508	
-0.39502	
-0.395142	
-0.394897	
-0.395508	
-0.398682	
-0.395691	
-0.395569	
-0.394714	
-0.393616	
-0.393616	
-0.394409	
-0.395081	
-0.394653	
-0.394226	
-0.394348	
-0.395081	
-0.396179	
-0.39502	
-0.394653	
-0.394043	
-0.394531	
-0.394104	
-0.395081	
-0.394714	
-0.394653	
-0.394287	
-0.394287	
-0.394958	
-0.396973	
-0.395081	
-0.393982	
-0.392639	
-0.393677	
-0.394104	
-0.393982	
-0.394043	
-0.393616	
-0.393677	
-0.393616	
-0.395203	
-0.394409	
-0.39447	
-0.393372	
-0.39032	
-0.393005	
-0.393372	
-0.393311	
-0.393066	
-0.392639	
-0.392334	
-0.393127	
-0.393494	
-0.39386	
-0.393616	
-0.392639	
-0.389771	
-0.392639	
-0.392456	
-0.392883	
-0.393372	
-0.393555	
-0.39386	
-0.393494	
-0.394592	
-0.39447	
-0.393799	
-0.393127	
-0.392029	
-0.393188	
-0.393311	
-0.392944	
-0.393188	
-0.39325	
-0.392639	
-0.392334	
-0.393433	
-0.392456	
-0.391724	
-0.390991	
-0.38855	
-0.390991	
-0.391113	
-0.391113	
-0.390869	
-0.390564	
-0.390808	
-0.390991	
-0.392578	
-0.390564	
-0.389893	
-0.389282	
-0.389221	
-0.389221	
-0.389526	
-0.389099	
-0.389465	
-0.389343	
-0.389587	
-0.390259	
-0.392029	
-0.39093	
-0.390076	
-0.389954	
-0.388916	
-0.390259	
-0.389771	
-0.390625	
-0.390381	
-0.390503	
-0.390381	
-0.390808	
-0.393433	
-0.391663	
-0.39032	
-0.389343	
-0.390015	
-0.390747	
-0.391052	
-0.391174	
-0.390808	
-0.391174	
-0.391541	
-0.391846	
-0.39209	
-0.391418	
-0.39093	
-0.388794	
-0.390381	
-0.391235	
-0.391418	
-0.392151	
-0.391785	
-0.391602	
-0.392029	
-0.392761	
-0.393555	
-0.392761	
-0.391479	
-0.389954	
-0.390686	
-0.391174	
-0.391357	
-0.391846	
-0.392212	
-0.392639	
-0.393311	
-0.394531	
-0.395203	
-0.394165	
-0.39386	
-0.391479	
-0.392944	
-0.394836	
-0.394958	
-0.394653	
-0.394592	
-0.394226	
-0.394104	
-0.396179	
-0.395569	
-0.394165	
-0.394104	
-0.391541	
-0.393127	
-0.394409	
-0.394409	
-0.394226	
-0.393799	
-0.394104	
-0.39447	
-0.395142	
-0.394409	
-0.393372	
-0.393433	
-0.392212	
-0.392944	
-0.39325	
-0.393311	
-0.392639	
-0.392944	
-0.392578	
-0.392517	
-0.394104	
-0.393555	
-0.391907	
-0.390991	
-0.389954	
-0.391296	
-0.391724	
-0.391174	
-0.391541	
-0.39032	
-0.390625	
-0.39093	
-0.39325	
-0.391968	
-0.390381	
-0.389099	
-0.389526	
-0.390381	
-0.390259	
-0.389771	
-0.388916	
-0.388794	
-0.388489	
-0.388794	
-0.389893	
	
