E:\DOCUMENTS AND SETTINGS\JPOTAS\MEUS DOCUMENTOS\UFRJ\RSCI-BM 12 WK SERIES\070727-RSCI-BM-05\RSCI-BM-05-LEMG\070727-RSCI-BM-05-LEMG-0016.ACQ
0.025000 msec/sample
1 channel
Analog input
Volts
CH1	
2000	
-0.388123	
-0.387878	
-0.38623	
-0.386047	
-0.38678	
-0.387329	
-0.386841	
-0.387634	
-0.387878	
-0.387878	
-0.388733	
-0.388245	
-0.388672	
-0.387634	
-0.386475	
-0.387329	
-0.387024	
-0.387756	
-0.388306	
-0.387817	
-0.388123	
-0.388428	
-0.389343	
-0.388794	
-0.388855	
-0.386658	
-0.387756	
-0.388428	
-0.388794	
-0.38855	
-0.388916	
-0.388733	
-0.388184	
-0.388794	
-0.387573	
-0.387695	
-0.386658	
-0.386719	
-0.386169	
-0.386658	
-0.387207	
-0.387085	
-0.387024	
-0.386841	
-0.38739	
-0.388367	
-0.388245	
-0.387878	
-0.387329	
-0.388123	
-0.388245	
-0.388855	
-0.388611	
-0.389648	
-0.389648	
-0.390015	
-0.39032	
-0.389709	
-0.390442	
-0.388489	
-0.388611	
-0.388916	
-0.389832	
-0.390137	
-0.39032	
-0.390442	
-0.390381	
-0.391968	
-0.391846	
-0.391724	
-0.390076	
-0.390015	
-0.390564	
-0.389465	
-0.390198	
-0.390442	
-0.390381	
-0.389954	
-0.390747	
-0.390259	
-0.389954	
-0.389893	
-0.388245	
-0.389221	
-0.388733	
-0.389648	
-0.389954	
-0.389526	
-0.389343	
-0.389954	
-0.390625	
-0.389832	
-0.390442	
-0.388306	
-0.389038	
-0.388855	
-0.388184	
-0.388916	
-0.388794	
-0.388367	
-0.388733	
-0.38916	
-0.389099	
-0.388611	
-0.388062	
-0.387817	
-0.388245	
-0.387329	
-0.387878	
-0.387512	
-0.387512	
-0.38855	
-0.388733	
-0.388855	
-0.388428	
-0.388428	
-0.386963	
-0.386292	
-0.386353	
-0.38678	
-0.386841	
-0.386536	
-0.385925	
-0.385681	
-0.387207	
-0.385986	
-0.385742	
-0.383728	
-0.384583	
-0.384766	
-0.383057	
-0.384827	
-0.384827	
-0.384155	
-0.384521	
-0.385681	
-0.384521	
-0.384705	
-0.384338	
-0.383545	
-0.384155	
-0.383789	
-0.384583	
-0.385193	
-0.384888	
-0.384888	
-0.385681	
-0.385315	
-0.384827	
-0.385071	
-0.383118	
-0.384277	
-0.385254	
-0.383972	
-0.38562	
-0.385681	
-0.385925	
-0.386169	
-0.388062	
-0.386902	
-0.387146	
-0.386719	
-0.385742	
-0.38623	
-0.386292	
-0.387268	
-0.387268	
-0.387207	
-0.386902	
-0.387695	
-0.388306	
-0.388123	
-0.387939	
-0.386475	
-0.388428	
-0.38739	
-0.389404	
-0.389832	
-0.39032	
-0.390137	
-0.39093	
-0.392334	
-0.39093	
-0.391968	
-0.389465	
-0.390564	
-0.390198	
-0.388855	
-0.389771	
-0.389954	
-0.390076	
-0.389954	
-0.391235	
-0.390381	
-0.390137	
-0.390137	
-0.388733	
-0.386414	
-0.382263	
-0.383179	
-0.383423	
-0.383545	
-0.382996	
-0.387939	
-0.391113	
-0.390137	
-0.390747	
-0.388062	
-0.389587	
-0.389221	
-0.388489	
-0.389465	
-0.389282	
-0.389465	
-0.389771	
-0.390747	
-0.389343	
-0.389221	
-0.389282	
-0.387756	
-0.388306	
-0.388245	
-0.388428	
-0.388428	
-0.388306	
-0.388428	
-0.388855	
-0.388855	
-0.387329	
-0.387512	
-0.387024	
-0.387756	
-0.386536	
-0.387085	
-0.387451	
-0.387329	
-0.387451	
-0.387573	
-0.388123	
-0.387817	
-0.388672	
-0.388489	
-0.387634	
-0.388367	
-0.388977	
-0.389099	
-0.38916	
-0.389648	
-0.390564	
-0.392029	
-0.393616	
-0.395813	
-0.397705	
-0.39856	
-0.402344	
-0.40564	
-0.409851	
-0.414063	
-0.417175	
-0.421387	
-0.425537	
-0.429565	
-0.433777	
-0.436462	
-0.440613	
-0.446472	
-0.451355	
-0.457581	
-0.464478	
-0.472717	
-0.48175	
-0.491577	
-0.50177	
-0.51062	
-0.518311	
-0.525391	
-0.53186	
-0.536682	
-0.540955	
-0.54303	
-0.5448	
-0.545715	
-0.545776	
-0.544983	
-0.543274	
-0.540344	
-0.537109	
-0.536255	
-0.533142	
-0.530273	
-0.527283	
-0.524048	
-0.520325	
-0.517273	
-0.512573	
-0.507874	
-0.503723	
-0.49823	
-0.495117	
-0.489929	
-0.486816	
-0.485413	
-0.48175	
-0.479248	
-0.477051	
-0.473877	
-0.469727	
-0.466614	
-0.462891	
-0.45813	
-0.455322	
-0.451416	
-0.448181	
-0.444824	
-0.441528	
-0.438171	
-0.43573	
-0.433777	
-0.431885	
-0.429504	
-0.429016	
-0.429749	
-0.430054	
-0.430237	
-0.430786	
-0.430603	
-0.430603	
-0.43042	
-0.429077	
-0.426331	
-0.424377	
-0.422913	
-0.419617	
-0.417053	
-0.414307	
-0.41156	
-0.40741	
-0.403381	
-0.399414	
-0.394775	
-0.38855	
-0.38208	
-0.376282	
-0.369141	
-0.362244	
-0.354614	
-0.347656	
-0.340149	
-0.333252	
-0.326599	
-0.321167	
-0.314941	
-0.309998	
-0.30426	
-0.299866	
-0.295776	
-0.291626	
-0.289185	
-0.288025	
-0.28656	
-0.285583	
-0.285583	
-0.285828	
-0.286987	
-0.288757	
-0.291748	
-0.29541	
-0.297546	
-0.300049	
-0.303955	
-0.306396	
-0.30896	
-0.310791	
-0.312195	
-0.313171	
-0.312378	
-0.314209	
-0.314697	
-0.314636	
-0.315125	
-0.317505	
-0.317749	
-0.319397	
-0.321228	
-0.323364	
-0.324463	
-0.325256	
-0.327515	
-0.330505	
-0.331726	
-0.333374	
-0.336792	
-0.338989	
-0.341797	
-0.343079	
-0.343506	
-0.344666	
-0.343201	
-0.338013	
-0.340027	
-0.340271	
-0.339661	
-0.341187	
-0.345398	
-0.350037	
-0.350037	
-0.350281	
-0.351685	
-0.351135	
-0.351746	
-0.352783	
-0.35376	
-0.35437	
-0.355225	
-0.355774	
-0.357849	
-0.357361	
-0.356934	
-0.357849	
-0.357971	
-0.358521	
-0.358826	
-0.359375	
-0.359192	
-0.359802	
-0.360718	
-0.362122	
-0.361755	
-0.361328	
-0.36261	
-0.362244	
-0.362244	
-0.363342	
-0.363281	
-0.362976	
-0.363708	
-0.363953	
-0.365784	
-0.365112	
-0.364807	
-0.365417	
-0.365417	
-0.365967	
-0.365723	
-0.365479	
-0.366455	
-0.367432	
-0.368347	
-0.370667	
-0.372192	
-0.373352	
-0.376221	
-0.379944	
-0.38324	
-0.386597	
-0.392273	
-0.397461	
-0.402283	
-0.406616	
-0.412659	
-0.416504	
-0.419922	
-0.422974	
-0.42926	
-0.434143	
-0.43927	
-0.44574	
-0.453003	
-0.461426	
-0.470581	
-0.478943	
-0.48645	
-0.495789	
-0.501648	
-0.510132	
-0.515198	
-0.52002	
-0.523621	
-0.5271	
-0.528198	
-0.529541	
-0.530029	
-0.528625	
-0.527893	
-0.52478	
-0.522888	
-0.520569	
-0.51709	
-0.512939	
-0.509094	
-0.504883	
-0.50116	
-0.497314	
-0.492004	
-0.48761	
-0.482727	
-0.478699	
-0.474976	
-0.470886	
-0.466858	
-0.463257	
-0.458496	
-0.454407	
-0.44989	
-0.44519	
-0.43988	
-0.433655	
-0.429626	
-0.426147	
-0.422058	
-0.418945	
-0.415405	
-0.414246	
-0.413086	
-0.411621	
-0.410339	
-0.40863	
-0.406555	
-0.404114	
-0.404236	
-0.400635	
-0.399475	
-0.397156	
-0.394592	
-0.391724	
-0.389771	
-0.387146	
-0.382629	
-0.377747	
-0.373413	
-0.369446	
-0.361633	
-0.355774	
-0.348633	
-0.341125	
-0.333313	
-0.325623	
-0.316895	
-0.307068	
-0.30011	
-0.29187	
-0.284485	
-0.278809	
-0.275085	
-0.270813	
-0.267822	
-0.266968	
-0.266357	
-0.266785	
-0.267517	
-0.269897	
-0.271301	
-0.273926	
-0.277832	
-0.281738	
-0.284729	
-0.288818	
-0.292847	
-0.296021	
-0.299744	
-0.301208	
-0.304504	
-0.304688	
-0.307251	
-0.308289	
-0.310608	
-0.312561	
-0.314209	
-0.315552	
-0.317688	
-0.320129	
-0.319641	
-0.321106	
-0.322937	
-0.325562	
-0.325989	
-0.328552	
-0.329773	
-0.332581	
-0.334778	
-0.337585	
-0.33905	
-0.339417	
-0.340454	
-0.341187	
-0.34375	
-0.343384	
-0.346252	
-0.347656	
-0.348938	
-0.35022	
-0.351868	
-0.352844	
-0.353516	
-0.353149	
-0.353821	
-0.356445	
-0.356995	
-0.357483	
-0.359497	
-0.361084	
-0.361328	
-0.362793	
-0.362854	
-0.363953	
-0.36438	
-0.363953	
-0.365356	
-0.365784	
-0.36676	
-0.367188	
-0.367371	
-0.367615	
-0.367798	
-0.367981	
-0.368103	
-0.368591	
-0.367432	
-0.36853	
-0.368469	
-0.368896	
-0.368652	
-0.368896	
-0.370117	
-0.370117	
-0.369995	
-0.369873	
-0.369934	
-0.369019	
-0.369568	
-0.369629	
-0.369812	
-0.369812	
-0.369324	
-0.369385	
-0.368896	
-0.368774	
-0.369019	
-0.36853	
-0.366394	
-0.368225	
-0.367798	
-0.367188	
-0.368286	
-0.368347	
-0.369202	
-0.368958	
-0.370239	
-0.368774	
-0.36969	
-0.368347	
-0.369629	
-0.368835	
-0.370911	
-0.370178	
-0.370789	
-0.370911	
-0.371033	
-0.372437	
-0.370972	
-0.371765	
-0.370178	
-0.372131	
-0.370972	
-0.372253	
-0.372131	
-0.372803	
-0.373718	
-0.373291	
-0.373535	
-0.373108	
-0.374695	
-0.371765	
-0.374084	
-0.373901	
-0.374268	
-0.374268	
-0.374878	
-0.375061	
-0.375977	
-0.374878	
-0.375488	
-0.375793	
-0.374878	
-0.375671	
-0.376465	
-0.376038	
-0.376221	
-0.377563	
-0.376709	
-0.378357	
-0.377319	
-0.377747	
-0.377197	
-0.377075	
-0.377808	
-0.377319	
-0.377991	
-0.378174	
-0.377563	
-0.377075	
-0.378235	
-0.376404	
-0.377991	
-0.376831	
-0.377319	
-0.376892	
-0.376526	
-0.377319	
-0.377808	
-0.377625	
-0.378052	
-0.378845	
-0.378418	
-0.379395	
-0.378906	
-0.379333	
-0.379333	
-0.379456	
-0.380432	
-0.381287	
-0.38092	
-0.381226	
-0.381836	
-0.381897	
-0.382874	
-0.38208	
-0.382324	
-0.381714	
-0.381653	
-0.382446	
-0.38324	
-0.382996	
-0.383484	
-0.384216	
-0.383484	
-0.383789	
-0.384033	
-0.383606	
-0.383179	
-0.383423	
-0.383423	
-0.383911	
-0.383606	
-0.383728	
-0.383911	
-0.383118	
-0.383545	
-0.383911	
-0.383057	
-0.38324	
-0.383484	
-0.383484	
-0.38385	
-0.383545	
-0.384216	
-0.384766	
-0.383606	
-0.383789	
-0.383362	
-0.383728	
-0.382996	
-0.383118	
-0.383118	
-0.383911	
-0.383179	
-0.383911	
-0.38385	
-0.383484	
-0.383179	
-0.383057	
-0.383484	
-0.383667	
-0.382996	
-0.382141	
-0.383362	
-0.382874	
-0.383728	
-0.38324	
-0.382507	
-0.38324	
-0.38324	
-0.383789	
-0.38385	
-0.382202	
-0.382019	
-0.383545	
-0.382263	
-0.382629	
-0.38147	
-0.380737	
-0.380615	
-0.381042	
-0.380737	
-0.380676	
-0.380554	
-0.380188	
-0.38147	
-0.381287	
-0.381531	
-0.380859	
-0.380493	
-0.380676	
-0.380798	
-0.381042	
-0.381348	
-0.380981	
-0.380371	
-0.382019	
-0.381775	
-0.382019	
-0.382202	
-0.381531	
-0.382263	
-0.381836	
-0.382141	
-0.382202	
-0.38208	
-0.38147	
-0.383362	
-0.382874	
-0.383911	
-0.38385	
-0.383545	
-0.38385	
-0.383362	
-0.383728	
-0.383728	
-0.383911	
-0.383301	
-0.385315	
-0.384705	
-0.385376	
-0.38501	
-0.384949	
-0.385498	
-0.385193	
-0.385803	
-0.385193	
-0.385681	
-0.385193	
-0.387756	
-0.387024	
-0.388306	
-0.387939	
-0.388245	
-0.388916	
-0.388062	
-0.389771	
-0.38916	
-0.388916	
-0.388	
-0.389832	
-0.388794	
-0.38916	
-0.388489	
-0.38855	
-0.388733	
-0.387329	
-0.388428	
-0.387634	
-0.388367	
-0.387756	
-0.389099	
-0.388123	
-0.389282	
-0.38855	
-0.388489	
-0.388184	
-0.386536	
-0.389282	
-0.388794	
-0.387817	
-0.388	
-0.38855	
-0.388245	
-0.387756	
-0.388184	
-0.387695	
-0.387756	
-0.386292	
-0.388184	
-0.387329	
-0.386292	
-0.387817	
-0.387817	
-0.387451	
-0.387695	
-0.388733	
-0.386841	
-0.386902	
-0.386108	
-0.386658	
-0.38623	
-0.384888	
-0.386108	
-0.385315	
-0.38623	
-0.386108	
-0.38739	
-0.385254	
-0.385986	
-0.38739	
-0.386841	
-0.386963	
-0.385864	
-0.386963	
-0.386536	
-0.387817	
-0.387939	
-0.388611	
-0.386902	
-0.388	
-0.387878	
-0.387207	
-0.388428	
-0.387329	
-0.387695	
-0.387329	
-0.388367	
-0.387268	
-0.386841	
-0.385315	
-0.38562	
-0.38623	
-0.384155	
-0.385681	
-0.384888	
-0.384827	
-0.384155	
-0.38501	
-0.384155	
-0.384155	
-0.382507	
-0.383301	
-0.383972	
-0.38208	
-0.383179	
-0.382813	
-0.382751	
-0.382874	
-0.38385	
-0.383057	
-0.383484	
-0.382263	
-0.383728	
-0.383667	
-0.382568	
-0.384521	
-0.384277	
-0.38446	
-0.384583	
-0.384949	
-0.38501	
-0.385559	
-0.385376	
-0.385254	
-0.385376	
-0.383972	
-0.385681	
-0.385193	
-0.385986	
-0.386475	
-0.386841	
-0.386475	
-0.386841	
-0.387878	
-0.387634	
-0.388916	
-0.387878	
-0.388977	
-0.389404	
-0.389404	
-0.389771	
-0.389893	
-0.39032	
-0.390259	
-0.391418	
-0.39032	
-0.390869	
-0.390198	
-0.390991	
-0.39093	
-0.390076	
-0.390747	
-0.389709	
-0.389954	
-0.389099	
-0.391052	
-0.389648	
-0.389709	
-0.388916	
-0.389404	
-0.390198	
-0.389587	
-0.389771	
-0.389221	
-0.389954	
-0.389893	
-0.390442	
-0.38855	
-0.389404	
-0.388489	
-0.387634	
-0.389771	
-0.388123	
-0.389343	
-0.389099	
-0.389343	
-0.389282	
-0.38916	
-0.388855	
-0.38916	
-0.389099	
-0.387146	
-0.388977	
-0.388062	
-0.388977	
-0.388672	
-0.389404	
-0.388489	
-0.38855	
-0.389526	
-0.388428	
-0.388916	
-0.387817	
-0.388306	
-0.387512	
-0.388184	
-0.388	
-0.387939	
-0.388672	
-0.389221	
-0.390381	
-0.389282	
-0.389587	
-0.388977	
-0.389221	
-0.38916	
-0.389648	
-0.389587	
-0.388611	
-0.390015	
-0.389648	
-0.390015	
-0.388794	
-0.390015	
-0.388306	
-0.387573	
-0.388367	
-0.387878	
-0.387756	
-0.386902	
-0.388123	
-0.387329	
-0.387573	
-0.387512	
-0.387085	
-0.386536	
-0.384766	
-0.387268	
-0.386536	
-0.386841	
-0.386169	
-0.386963	
-0.38623	
-0.386536	
-0.387573	
-0.386047	
-0.386597	
-0.385315	
-0.387024	
-0.385864	
-0.386414	
-0.386108	
-0.386902	
-0.38678	
-0.386841	
-0.387939	
-0.386414	
-0.387024	
-0.386658	
-0.386963	
-0.385681	
-0.386963	
-0.386963	
-0.387085	
-0.388062	
-0.387207	
-0.387756	
-0.387268	
-0.387939	
-0.387085	
-0.38678	
-0.386841	
-0.387451	
-0.387695	
-0.387146	
-0.388	
-0.388306	
-0.388367	
-0.388123	
-0.387695	
-0.388062	
-0.387512	
-0.388855	
-0.388611	
-0.389038	
-0.388489	
-0.389465	
-0.390259	
-0.38916	
-0.390015	
-0.38916	
-0.389099	
-0.387512	
-0.389343	
-0.389099	
-0.389343	
-0.389404	
-0.390076	
-0.391235	
-0.391663	
-0.392517	
-0.391602	
-0.391541	
-0.390869	
-0.391968	
-0.391846	
-0.391418	
-0.391724	
-0.391785	
-0.392456	
-0.392029	
-0.393188	
-0.392334	
-0.391052	
-0.39209	
-0.391602	
-0.390686	
-0.392151	
-0.391846	
-0.391724	
-0.391846	
-0.392639	
-0.392212	
-0.392151	
-0.391418	
-0.391479	
-0.39093	
-0.390869	
-0.391113	
-0.390686	
-0.390259	
-0.390442	
-0.391479	
-0.39093	
-0.391296	
-0.391235	
-0.389893	
-0.388733	
-0.389832	
-0.389954	
-0.389465	
-0.388977	
-0.389465	
-0.389648	
-0.38916	
-0.390015	
-0.389099	
-0.388062	
-0.387634	
-0.388855	
-0.388245	
-0.387878	
-0.387512	
-0.387756	
-0.387329	
-0.386841	
-0.387817	
-0.386414	
-0.385254	
-0.385803	
-0.385376	
-0.384827	
-0.385559	
-0.386108	
-0.385803	
-0.386414	
-0.38678	
-0.386902	
-0.387207	
-0.386841	
-0.385742	
-0.38562	
-0.385803	
-0.386414	
-0.386292	
-0.384827	
-0.386292	
-0.386902	
-0.386536	
-0.386414	
-0.38678	
-0.385986	
-0.385498	
-0.386658	
-0.386597	
-0.386658	
-0.386658	
-0.38739	
-0.386841	
-0.387268	
-0.38739	
-0.387207	
-0.38562	
-0.385498	
-0.387329	
-0.387024	
-0.387024	
-0.387085	
-0.387573	
-0.387268	
-0.38855	
-0.388428	
-0.388611	
-0.387878	
-0.387573	
-0.388611	
-0.387756	
-0.38855	
-0.388184	
-0.388977	
-0.388977	
-0.389709	
-0.389648	
-0.388794	
-0.389648	
-0.38855	
-0.387756	
-0.388367	
-0.387634	
-0.387878	
-0.386902	
-0.387329	
-0.388	
-0.388062	
-0.388306	
-0.387451	
-0.386475	
-0.387024	
-0.387939	
-0.387512	
-0.388245	
-0.388489	
-0.389709	
-0.39032	
-0.390869	
-0.391052	
-0.390991	
-0.389832	
-0.389465	
-0.391235	
-0.390198	
-0.391296	
-0.391602	
-0.392151	
-0.391846	
-0.393372	
-0.393433	
-0.392761	
-0.392456	
-0.391968	
-0.392639	
-0.391968	
-0.392029	
-0.392334	
-0.392212	
-0.392151	
-0.392517	
-0.392944	
-0.391602	
-0.391846	
-0.39032	
-0.390076	
-0.391174	
-0.391052	
-0.390808	
-0.389771	
-0.390564	
-0.390869	
-0.391479	
-0.390747	
-0.390259	
-0.389343	
-0.388977	
-0.390442	
-0.389526	
-0.389343	
-0.388672	
-0.388733	
-0.387878	
-0.388489	
-0.388367	
-0.38678	
-0.386536	
-0.384521	
-0.386414	
-0.385437	
-0.386047	
-0.38623	
-0.385437	
-0.385803	
-0.38623	
-0.386963	
-0.38562	
-0.386353	
-0.384766	
-0.386475	
-0.386841	
-0.386719	
-0.386536	
-0.385986	
-0.386536	
-0.386963	
-0.388489	
-0.386475	
-0.387085	
-0.385071	
-0.386108	
-0.387207	
-0.386902	
-0.386658	
-0.38678	
-0.387268	
-0.38739	
-0.388489	
-0.38739	
-0.38739	
-0.386841	
-0.385986	
-0.387939	
-0.386841	
-0.387756	
-0.387634	
-0.387451	
-0.387878	
-0.387878	
-0.388611	
-0.387756	
-0.388184	
-0.385254	
-0.388428	
-0.388	
-0.388062	
-0.388489	
-0.387756	
-0.388916	
-0.388733	
-0.390808	
-0.388733	
-0.389526	
-0.387939	
-0.387939	
-0.389099	
-0.388123	
-0.388184	
-0.387878	
-0.387573	
-0.387512	
-0.389709	
-0.387512	
-0.387329	
-0.386597	
-0.386597	
-0.387207	
-0.387146	
-0.387451	
-0.387573	
-0.386841	
-0.387451	
-0.389038	
-0.389221	
-0.389343	
-0.388611	
-0.386841	
-0.389465	
-0.389038	
-0.390259	
-0.389404	
-0.389343	
-0.389709	
-0.390747	
-0.391846	
-0.390198	
-0.390381	
-0.388672	
-0.390076	
-0.390686	
-0.390137	
-0.39093	
-0.390503	
-0.390808	
-0.390991	
-0.392395	
-0.390747	
-0.391052	
-0.389709	
-0.390564	
-0.390198	
-0.390076	
-0.390015	
-0.389648	
-0.388611	
-0.389832	
-0.391113	
-0.389465	
-0.389954	
-0.389465	
-0.388306	
-0.389587	
-0.389771	
-0.389648	
-0.389343	
-0.38916	
-0.389343	
-0.390015	
-0.390198	
-0.389343	
-0.389282	
-0.387146	
-0.388977	
-0.38855	
-0.388367	
-0.388428	
-0.388611	
-0.388245	
-0.388184	
-0.39032	
-0.38855	
-0.388855	
-0.386414	
-0.388123	
-0.388	
-0.388489	
-0.388428	
-0.387817	
-0.387146	
-0.388794	
-0.389771	
-0.387329	
-0.387634	
-0.387268	
-0.387512	
-0.386292	
-0.385864	
-0.385437	
-0.385864	
-0.385315	
-0.385254	
-0.385803	
-0.385559	
-0.384949	
-0.384766	
-0.381592	
-0.384644	
-0.383972	
-0.384705	
-0.384583	
-0.384521	
-0.384399	
-0.384583	
-0.386902	
-0.384338	
-0.385315	
-0.383484	
-0.384705	
-0.385071	
-0.38501	
-0.384705	
-0.384888	
-0.384766	
-0.384949	
-0.387207	
-0.385315	
-0.386108	
-0.384949	
-0.385681	
-0.38562	
-0.386414	
-0.385803	
-0.386169	
-0.385864	
-0.386536	
-0.388	
-0.386719	
-0.386597	
-0.386597	
-0.385803	
-0.38678	
-0.386536	
-0.387573	
-0.387756	
-0.387573	
-0.386963	
-0.388367	
-0.389038	
-0.388428	
-0.388733	
-0.386353	
-0.389648	
-0.389893	
-0.39093	
-0.390442	
-0.390747	
-0.390198	
-0.391174	
-0.392822	
-0.390869	
-0.391541	
-0.389343	
-0.389954	
-0.389893	
-0.390503	
-0.390686	
-0.390137	
-0.389832	
-0.390198	
-0.391052	
-0.389648	
-0.389832	
-0.389771	
-0.389221	
-0.39032	
-0.390259	
-0.390381	
-0.390503	
-0.390259	
-0.389954	
-0.390503	
-0.390442	
-0.389648	
-0.389954	
-0.38739	
-0.389221	
-0.388367	
-0.390137	
-0.389465	
-0.38916	
-0.388	
-0.389893	
-0.391174	
-0.38916	
-0.389771	
-0.387878	
-0.388916	
-0.388855	
-0.390015	
-0.388855	
-0.388062	
-0.387695	
-0.388245	
-0.389404	
-0.387756	
-0.388245	
-0.387085	
-0.386597	
-0.387695	
-0.388	
-0.387756	
-0.388	
-0.388184	
-0.388489	
-0.389343	
-0.389709	
-0.388733	
-0.388733	
-0.387695	
-0.389038	
-0.388367	
-0.388794	
-0.389343	
-0.389038	
-0.388123	
-0.389282	
-0.390747	
-0.388123	
-0.387756	
-0.385498	
-0.386719	
-0.386047	
-0.387451	
-0.386414	
-0.386108	
-0.386047	
-0.385986	
-0.386841	
-0.385193	
-0.385742	
-0.384033	
-0.383667	
-0.383911	
-0.384888	
-0.384094	
-0.384094	
-0.384216	
-0.383545	
-0.38446	
-0.384949	
-0.384949	
-0.383484	
-0.382629	
-0.384216	
-0.385254	
-0.385437	
-0.385071	
-0.385071	
-0.384705	
-0.386108	
-0.387268	
-0.386047	
-0.386047	
-0.384521	
-0.385803	
-0.385498	
-0.387146	
-0.38678	
-0.386475	
-0.386597	
-0.387146	
-0.388672	
-0.387817	
-0.388611	
-0.388428	
-0.388123	
-0.388977	
-0.389832	
-0.39032	
-0.39093	
-0.390991	
-0.390259	
-0.391968	
-0.391785	
-0.392334	
-0.391174	
-0.390015	
-0.391541	
-0.392212	
-0.392639	
-0.391785	
-0.391357	
-0.391174	
-0.392273	
-0.392273	
-0.391479	
-0.390259	
-0.388916	
-0.389893	
-0.390503	
-0.391357	
-0.391357	
-0.390808	
-0.390076	
-0.390503	
-0.391846	
-0.390381	
-0.389587	
-0.389038	
-0.390381	
-0.388977	
-0.390015	
-0.389709	
-0.389893	
-0.389221	
-0.388733	
-0.39093	
-0.389709	
-0.389832	
-0.389404	
-0.388245	
-0.38916	
-0.390076	
-0.39032	
-0.38916	
-0.38916	
-0.388611	
-0.389465	
-0.389832	
-0.389526	
-0.388916	
-0.386536	
-0.389221	
-0.389648	
-0.390137	
-0.389221	
-0.389282	
-0.389221	
-0.389099	
-0.391541	
-0.390503	
-0.390503	
-0.388672	
-0.390198	
-0.389221	
-0.39032	
-0.390076	
-0.390442	
-0.390198	
-0.390198	
-0.392578	
-0.390686	
-0.390747	
-0.389954	
-0.388733	
-0.389221	
-0.389587	
-0.389465	
-0.388855	
-0.388916	
-0.387634	
-0.388855	
-0.389832	
-0.388977	
-0.387329	
-0.387146	
-0.387268	
-0.387573	
-0.388428	
-0.387512	
-0.387451	
-0.387451	
-0.387695	
-0.388794	
-0.387512	
-0.386475	
-0.385498	
-0.386902	
-0.387329	
-0.387024	
-0.38739	
-0.386963	
-0.386963	
-0.387146	
-0.388611	
-0.388245	
-0.388	
-0.387512	
-0.386658	
-0.387634	
-0.388184	
-0.388428	
-0.387573	
-0.387878	
-0.387146	
-0.388977	
-0.38916	
-0.38855	
-0.387634	
-0.386902	
-0.387512	
-0.388611	
-0.388855	
-0.388428	
-0.388794	
-0.387634	
-0.389404	
-0.390381	
-0.39032	
-0.388916	
-0.387939	
-0.388428	
-0.389404	
-0.390747	
-0.388794	
-0.389771	
-0.389954	
-0.390625	
-0.391479	
-0.390991	
-0.390015	
-0.389893	
-0.389709	
-0.39032	
-0.390259	
-0.389771	
-0.390198	
-0.390503	
-0.391174	
-0.392517	
-0.393005	
-0.39209	
-0.392029	
-0.391113	
-0.39209	
-0.392822	
-0.393127	
-0.392822	
-0.392883	
-0.392395	
-0.392883	
-0.393738	
-0.393433	
-0.392944	
-0.392578	
-0.391663	
-0.39325	
-0.393982	
-0.392944	
-0.393188	
-0.3927	
-0.393005	
-0.393616	
-0.394409	
-0.392273	
-0.391052	
-0.392334	
-0.392822	
-0.392761	
-0.391846	
-0.392517	
-0.392151	
-0.391724	
-0.392883	
-0.392212	
-0.390991	
-0.39032	
-0.390015	
-0.390137	
-0.391541	
-0.390808	
-0.390442	
-0.390198	
-0.390076	
-0.391724	
-0.391418	
-0.391113	
-0.389526	
-0.389282	
-0.388184	
-0.390381	
-0.390381	
-0.389465	
-0.388855	
-0.388245	
-0.388977	
-0.389038	
-0.389343	
-0.387756	
-0.386841	
-0.386597	
-0.387634	
-0.388245	
-0.387329	
-0.387573	
-0.388062	
-0.387817	
-0.387939	
-0.388123	
-0.387756	
-0.386047	
-0.387207	
-0.386902	
-0.388123	
-0.387451	
-0.38739	
-0.387329	
-0.387268	
-0.388489	
-0.388184	
-0.389038	
-0.387024	
-0.387146	
-0.387146	
-0.387939	
-0.388184	
-0.387878	
-0.387939	
-0.387451	
-0.389343	
-0.388611	
-0.389465	
-0.388306	
-0.388367	
-0.388123	
-0.38855	
-0.388855	
-0.388489	
-0.388428	
-0.388367	
-0.389282	
-0.389221	
-0.389771	
-0.390198	
-0.389526	
-0.389954	
-0.389404	
-0.39093	
-0.389954	
-0.390259	
-0.390625	
-0.390686	
-0.390869	
-0.390686	
-0.391052	
-0.389038	
-0.390381	
-0.390015	
-0.390137	
-0.389832	
-0.389526	
-0.389404	
-0.388977	
-0.390076	
-0.388855	
-0.389404	
-0.38855	
-0.388489	
-0.388794	
-0.388428	
-0.390076	
-0.390381	
-0.391418	
-0.390564	
-0.392639	
-0.391968	
-0.391846	
-0.393433	
-0.391052	
-0.392212	
-0.391968	
-0.394104	
-0.39325	
-0.393616	
-0.393616	
-0.393982	
-0.394714	
-0.394043	
-0.394958	
-0.393311	
-0.39447	
-0.394226	
-0.393677	
-0.394531	
-0.39447	
-0.394348	
-0.394226	
-0.394714	
-0.394043	
-0.39386	
-0.393311	
-0.392273	
-0.393188	
-0.391663	
-0.39325	
-0.393066	
-0.392517	
-0.392273	
-0.393311	
-0.392822	
-0.392029	
-0.392944	
-0.391602	
-0.391479	
-0.391052	
-0.391846	
-0.391235	
-0.390686	
-0.390259	
-0.390503	
-0.39032	
-0.389099	
-0.388916	
-0.387878	
-0.388184	
-0.387695	
-0.387329	
-0.387573	
-0.387451	
-0.387695	
-0.387024	
-0.388428	
-0.387878	
-0.388367	
-0.387634	
-0.38739	
-0.388245	
-0.388062	
-0.38916	
-0.388733	
-0.388733	
-0.388489	
-0.389771	
-0.388672	
-0.388855	
-0.389771	
-0.388123	
-0.389343	
-0.389282	
-0.388916	
-0.389282	
	
