E:\DOCUMENTS AND SETTINGS\JPOTAS\MEUS DOCUMENTOS\UFRJ\RSCI-BM 12 WK SERIES\070727-RSCI-BM-05\RSCI-BM-05-LEMG\070727-RSCI-BM-05-LEMG-0018.ACQ
0.025000 msec/sample
1 channel
Analog input
Volts
CH1	
2000	
-0.388	
-0.386414	
-0.388184	
-0.38855	
-0.387878	
-0.387634	
-0.387329	
-0.387695	
-0.388	
-0.389038	
-0.387512	
-0.388	
-0.386597	
-0.387146	
-0.387756	
-0.387634	
-0.388062	
-0.388245	
-0.387085	
-0.388428	
-0.38916	
-0.387695	
-0.387695	
-0.387329	
-0.386292	
-0.387146	
-0.387146	
-0.38739	
-0.38678	
-0.386292	
-0.387695	
-0.387939	
-0.387573	
-0.386841	
-0.386414	
-0.385742	
-0.386902	
-0.387207	
-0.386841	
-0.387085	
-0.387329	
-0.387146	
-0.387817	
-0.388367	
-0.387146	
-0.386963	
-0.38623	
-0.387207	
-0.387207	
-0.388123	
-0.387512	
-0.387817	
-0.386963	
-0.387695	
-0.388306	
-0.387512	
-0.386963	
-0.386658	
-0.38678	
-0.387329	
-0.386658	
-0.387268	
-0.387207	
-0.386963	
-0.387146	
-0.388123	
-0.388306	
-0.386597	
-0.386597	
-0.385864	
-0.387146	
-0.387634	
-0.388611	
-0.387634	
-0.387878	
-0.386658	
-0.388855	
-0.38916	
-0.388	
-0.388245	
-0.38739	
-0.387695	
-0.388245	
-0.388367	
-0.388428	
-0.387512	
-0.387634	
-0.388306	
-0.388611	
-0.388	
-0.387329	
-0.387695	
-0.387146	
-0.388672	
-0.387939	
-0.38739	
-0.387634	
-0.387329	
-0.387085	
-0.387817	
-0.388916	
-0.388184	
-0.387634	
-0.387451	
-0.388611	
-0.388794	
-0.388611	
-0.388306	
-0.387634	
-0.388184	
-0.389282	
-0.388916	
-0.388062	
-0.388306	
-0.387756	
-0.388367	
-0.388	
-0.387634	
-0.388062	
-0.388428	
-0.388428	
-0.388733	
-0.389343	
-0.388855	
-0.388794	
-0.388794	
-0.387817	
-0.388794	
-0.389404	
-0.388794	
-0.388733	
-0.389038	
-0.388245	
-0.389404	
-0.389893	
-0.388733	
-0.388367	
-0.389038	
-0.388916	
-0.389526	
-0.390015	
-0.389893	
-0.389893	
-0.390198	
-0.391357	
-0.391174	
-0.390381	
-0.390198	
-0.390442	
-0.390259	
-0.390198	
-0.390442	
-0.390808	
-0.390625	
-0.390747	
-0.390991	
-0.391785	
-0.390869	
-0.391174	
-0.391724	
-0.390198	
-0.390747	
-0.390808	
-0.391663	
-0.390625	
-0.390747	
-0.390564	
-0.391418	
-0.391846	
-0.390747	
-0.389771	
-0.389954	
-0.390259	
-0.389954	
-0.390625	
-0.390198	
-0.390015	
-0.389771	
-0.390381	
-0.388794	
-0.388062	
-0.387268	
-0.386169	
-0.386169	
-0.38678	
-0.386475	
-0.387329	
-0.387329	
-0.387207	
-0.387451	
-0.388916	
-0.388062	
-0.387207	
-0.388611	
-0.387451	
-0.387939	
-0.388306	
-0.386536	
-0.382446	
-0.382385	
-0.383057	
-0.383911	
-0.384155	
-0.387024	
-0.389587	
-0.389893	
-0.390869	
-0.391113	
-0.390259	
-0.390991	
-0.391052	
-0.391052	
-0.391663	
-0.391724	
-0.391235	
-0.391663	
-0.392273	
-0.390991	
-0.391724	
-0.391357	
-0.392151	
-0.392273	
-0.392517	
-0.391968	
-0.392944	
-0.393311	
-0.393188	
-0.392944	
-0.393066	
-0.393066	
-0.392883	
-0.393799	
-0.392944	
-0.39325	
-0.393188	
-0.394104	
-0.393433	
-0.393372	
-0.393677	
-0.392151	
-0.392883	
-0.392578	
-0.392212	
-0.392883	
-0.391968	
-0.392029	
-0.390869	
-0.392822	
-0.393127	
-0.394348	
-0.395935	
-0.3974	
-0.401245	
-0.403809	
-0.407776	
-0.41095	
-0.415222	
-0.41864	
-0.424194	
-0.428284	
-0.431641	
-0.435669	
-0.438904	
-0.444031	
-0.447998	
-0.45459	
-0.460205	
-0.46698	
-0.473755	
-0.482544	
-0.491272	
-0.500793	
-0.509949	
-0.518799	
-0.52771	
-0.534363	
-0.541626	
-0.546631	
-0.549744	
-0.551697	
-0.553894	
-0.553406	
-0.552612	
-0.551392	
-0.549438	
-0.547607	
-0.545349	
-0.544128	
-0.540894	
-0.537598	
-0.534729	
-0.531982	
-0.527893	
-0.523254	
-0.519592	
-0.514709	
-0.510803	
-0.506653	
-0.503052	
-0.498413	
-0.49469	
-0.491577	
-0.489502	
-0.486633	
-0.482605	
-0.478638	
-0.475708	
-0.472168	
-0.468567	
-0.464722	
-0.460571	
-0.456726	
-0.452942	
-0.450073	
-0.446106	
-0.4422	
-0.439209	
-0.43689	
-0.434509	
-0.434387	
-0.433411	
-0.433533	
-0.433044	
-0.433228	
-0.433167	
-0.432495	
-0.431396	
-0.430054	
-0.427856	
-0.42572	
-0.424377	
-0.421875	
-0.420349	
-0.417114	
-0.414429	
-0.411011	
-0.408447	
-0.404846	
-0.399719	
-0.394531	
-0.388916	
-0.38324	
-0.376953	
-0.371399	
-0.363037	
-0.355591	
-0.347961	
-0.341492	
-0.33374	
-0.327759	
-0.320923	
-0.313843	
-0.309204	
-0.304382	
-0.30011	
-0.296204	
-0.292908	
-0.290039	
-0.28894	
-0.288025	
-0.28656	
-0.286743	
-0.287109	
-0.289124	
-0.292358	
-0.295044	
-0.299011	
-0.302612	
-0.305725	
-0.309265	
-0.310913	
-0.3125	
-0.313538	
-0.313354	
-0.314514	
-0.315002	
-0.315674	
-0.316101	
-0.316772	
-0.317566	
-0.319458	
-0.320618	
-0.32135	
-0.322693	
-0.325684	
-0.328003	
-0.329895	
-0.333557	
-0.3349	
-0.33783	
-0.34021	
-0.342712	
-0.345215	
-0.345215	
-0.347229	
-0.348267	
-0.349365	
-0.349976	
-0.351379	
-0.35083	
-0.3526	
-0.353149	
-0.35437	
-0.353943	
-0.354553	
-0.355408	
-0.355469	
-0.356384	
-0.356873	
-0.358521	
-0.358643	
-0.359009	
-0.359253	
-0.360413	
-0.360535	
-0.360901	
-0.360657	
-0.360291	
-0.361328	
-0.360901	
-0.362122	
-0.363281	
-0.363464	
-0.363647	
-0.364258	
-0.364868	
-0.363892	
-0.362976	
-0.364441	
-0.365051	
-0.365906	
-0.365356	
-0.365601	
-0.365906	
-0.366089	
-0.366028	
-0.36615	
-0.365479	
-0.365234	
-0.366333	
-0.366699	
-0.36731	
-0.367371	
-0.367371	
-0.367249	
-0.367737	
-0.368408	
-0.367676	
-0.366821	
-0.367615	
-0.367493	
-0.367493	
-0.368042	
-0.367981	
-0.368286	
-0.369263	
-0.368713	
-0.369019	
-0.367981	
-0.368774	
-0.36792	
-0.368347	
-0.367737	
-0.368713	
-0.368042	
-0.368103	
-0.368774	
-0.368652	
-0.369446	
-0.368286	
-0.36908	
-0.368103	
-0.36853	
-0.367737	
-0.368347	
-0.368042	
-0.367798	
-0.368774	
-0.367249	
-0.368042	
-0.367981	
-0.369019	
-0.366882	
-0.368469	
-0.367188	
-0.369019	
-0.368652	
-0.36853	
-0.369202	
-0.368042	
-0.368958	
-0.368896	
-0.368774	
-0.368164	
-0.369141	
-0.369507	
-0.369812	
-0.369019	
-0.370422	
-0.370789	
-0.369568	
-0.370178	
-0.370789	
-0.370056	
-0.370483	
-0.370972	
-0.371399	
-0.371399	
-0.371826	
-0.372131	
-0.372864	
-0.37439	
-0.374573	
-0.375122	
-0.374878	
-0.376099	
-0.376343	
-0.376526	
-0.376526	
-0.37616	
-0.376404	
-0.376099	
-0.377075	
-0.375549	
-0.375488	
-0.375549	
-0.375854	
-0.374939	
-0.375671	
-0.375793	
-0.375183	
-0.375549	
-0.375488	
-0.376709	
-0.374939	
-0.374634	
-0.374268	
-0.374146	
-0.373901	
-0.374207	
-0.374573	
-0.374084	
-0.374756	
-0.374878	
-0.375732	
-0.374268	
-0.37439	
-0.374451	
-0.374695	
-0.373901	
-0.374512	
-0.373962	
-0.374817	
-0.374817	
-0.374939	
-0.373535	
-0.373901	
-0.373962	
-0.373779	
-0.37384	
-0.373901	
-0.373413	
-0.373901	
-0.374329	
-0.374756	
-0.375122	
-0.374023	
-0.374268	
-0.374817	
-0.376038	
-0.37323	
-0.375427	
-0.374756	
-0.375977	
-0.376953	
-0.37677	
-0.377502	
-0.377625	
-0.378052	
-0.377563	
-0.379089	
-0.377014	
-0.378479	
-0.379272	
-0.378662	
-0.37915	
-0.377563	
-0.378174	
-0.378052	
-0.379028	
-0.377686	
-0.378479	
-0.376587	
-0.377991	
-0.378113	
-0.378174	
-0.379517	
-0.378479	
-0.372925	
-0.371704	
-0.373535	
-0.371643	
-0.372314	
-0.373596	
-0.378845	
-0.379578	
-0.378601	
-0.380066	
-0.379517	
-0.380188	
-0.379761	
-0.380859	
-0.379517	
-0.380005	
-0.378723	
-0.380249	
-0.380371	
-0.379395	
-0.381531	
-0.380981	
-0.38147	
-0.380798	
-0.382202	
-0.38092	
-0.381165	
-0.379761	
-0.381958	
-0.380798	
-0.3797	
-0.381714	
-0.380676	
-0.381409	
-0.380554	
-0.381226	
-0.380554	
-0.380737	
-0.379089	
-0.380676	
-0.380371	
-0.379639	
-0.381409	
-0.380127	
-0.38092	
-0.380493	
-0.381042	
-0.380005	
-0.381042	
-0.379944	
-0.38324	
-0.384216	
-0.38562	
-0.389648	
-0.391968	
-0.395813	
-0.398621	
-0.403198	
-0.40741	
-0.413086	
-0.41626	
-0.422241	
-0.427063	
-0.432434	
-0.436462	
-0.441895	
-0.447144	
-0.452698	
-0.457336	
-0.462769	
-0.46991	
-0.47699	
-0.48584	
-0.494812	
-0.503662	
-0.511353	
-0.519287	
-0.526001	
-0.531494	
-0.535706	
-0.53894	
-0.540527	
-0.542236	
-0.542419	
-0.542297	
-0.54187	
-0.54071	
-0.538818	
-0.53656	
-0.533752	
-0.530579	
-0.526306	
-0.523254	
-0.519653	
-0.51593	
-0.512085	
-0.508423	
-0.505188	
-0.500183	
-0.496826	
-0.493164	
-0.489685	
-0.485474	
-0.482727	
-0.477783	
-0.474976	
-0.471191	
-0.466064	
-0.463379	
-0.457886	
-0.454773	
-0.44989	
-0.446411	
-0.442749	
-0.440125	
-0.437622	
-0.436768	
-0.436218	
-0.435791	
-0.436096	
-0.435303	
-0.435303	
-0.433167	
-0.434143	
-0.43103	
-0.428833	
-0.427002	
-0.4245	
-0.421875	
-0.418457	
-0.415466	
-0.411377	
-0.407959	
-0.402954	
-0.399475	
-0.39325	
-0.387268	
-0.380737	
-0.374084	
-0.367432	
-0.359741	
-0.351257	
-0.343323	
-0.334167	
-0.325195	
-0.317444	
-0.309998	
-0.302307	
-0.296814	
-0.291443	
-0.287048	
-0.283203	
-0.279541	
-0.278687	
-0.276245	
-0.275879	
-0.276184	
-0.276245	
-0.2771	
-0.281372	
-0.283997	
-0.287292	
-0.290527	
-0.292847	
-0.297058	
-0.299866	
-0.302246	
-0.304321	
-0.305481	
-0.306396	
-0.308228	
-0.308899	
-0.310364	
-0.311707	
-0.312561	
-0.313538	
-0.314941	
-0.316223	
-0.318665	
-0.319702	
-0.321899	
-0.323486	
-0.326843	
-0.329651	
-0.33136	
-0.334839	
-0.335876	
-0.338318	
-0.339111	
-0.341614	
-0.341614	
-0.342896	
-0.343933	
-0.345154	
-0.346252	
-0.346741	
-0.348877	
-0.349976	
-0.351013	
-0.351929	
-0.3526	
-0.353088	
-0.354553	
-0.35498	
-0.356567	
-0.357239	
-0.357483	
-0.359741	
-0.360596	
-0.360779	
-0.362549	
-0.362671	
-0.362183	
-0.363037	
-0.364136	
-0.364685	
-0.36499	
-0.36615	
-0.366211	
-0.367249	
-0.366333	
-0.368286	
-0.36792	
-0.36792	
-0.367065	
-0.368896	
-0.369385	
-0.368896	
-0.3703	
-0.369995	
-0.370483	
-0.369812	
-0.371643	
-0.370911	
-0.370605	
-0.371277	
-0.371216	
-0.371094	
-0.371033	
-0.371399	
-0.371887	
-0.372375	
-0.370544	
-0.372498	
-0.371338	
-0.371521	
-0.371277	
-0.370972	
-0.369995	
-0.36969	
-0.369263	
-0.368774	
-0.36969	
-0.369629	
-0.370544	
-0.369751	
-0.37085	
-0.370544	
-0.371277	
-0.37146	
-0.371948	
-0.371826	
-0.372742	
-0.373169	
-0.372192	
-0.37384	
-0.373352	
-0.373596	
-0.372742	
-0.374451	
-0.374939	
-0.375427	
-0.375061	
-0.375977	
-0.376465	
-0.37677	
-0.376892	
-0.376892	
-0.376709	
-0.375244	
-0.377197	
-0.377625	
-0.377747	
-0.377869	
-0.378235	
-0.37854	
-0.378967	
-0.379333	
-0.378662	
-0.379944	
-0.379211	
-0.379639	
-0.380432	
-0.380127	
-0.380737	
-0.380737	
-0.38031	
-0.38269	
-0.381531	
-0.380432	
-0.382385	
-0.381531	
-0.381348	
-0.381958	
-0.382385	
-0.382629	
-0.382629	
-0.382507	
-0.383667	
-0.382629	
-0.382813	
-0.382263	
-0.382141	
-0.381531	
-0.381958	
-0.381592	
-0.380859	
-0.381775	
-0.381592	
-0.381897	
-0.381531	
-0.382568	
-0.382629	
-0.382385	
-0.382568	
-0.382751	
-0.382324	
-0.382874	
-0.383362	
-0.383545	
-0.383728	
-0.383362	
-0.383545	
-0.383057	
-0.383301	
-0.38385	
-0.383606	
-0.383728	
-0.384155	
-0.384521	
-0.385071	
-0.384644	
-0.384094	
-0.384521	
-0.384827	
-0.384399	
-0.384399	
-0.384033	
-0.384888	
-0.384521	
-0.384888	
-0.385437	
-0.384766	
-0.384399	
-0.384583	
-0.384583	
-0.384705	
-0.384644	
-0.384583	
-0.384583	
-0.385254	
-0.384888	
-0.385681	
-0.38562	
-0.385071	
-0.384949	
-0.386108	
-0.38501	
-0.386658	
-0.385803	
-0.386414	
-0.386536	
-0.386353	
-0.387146	
-0.386658	
-0.38739	
-0.385437	
-0.387085	
-0.385986	
-0.387024	
-0.386902	
-0.387329	
-0.387268	
-0.386169	
-0.387878	
-0.38678	
-0.387756	
-0.38501	
-0.386841	
-0.386292	
-0.386597	
-0.385132	
-0.386108	
-0.385864	
-0.38501	
-0.386536	
-0.385498	
-0.385864	
-0.384155	
-0.38501	
-0.384644	
-0.385437	
-0.385254	
-0.385559	
-0.385315	
-0.386536	
-0.386597	
-0.386475	
-0.387024	
-0.385803	
-0.386719	
-0.38678	
-0.387512	
-0.386658	
-0.386597	
-0.38678	
-0.387695	
-0.38678	
-0.386719	
-0.386963	
-0.387268	
-0.387146	
-0.386719	
-0.388	
-0.387268	
-0.387329	
-0.387573	
-0.389221	
-0.387634	
-0.387756	
-0.387268	
-0.38855	
-0.387817	
-0.386963	
-0.388	
-0.387634	
-0.387939	
-0.387146	
-0.388977	
-0.388184	
-0.388245	
-0.387024	
-0.389099	
-0.38855	
-0.387634	
-0.387817	
-0.388428	
-0.388245	
-0.38739	
-0.38916	
-0.388428	
-0.388306	
-0.38678	
-0.388611	
-0.388855	
-0.387939	
-0.387878	
-0.388672	
-0.388672	
-0.388672	
-0.389771	
-0.388794	
-0.388855	
-0.387573	
-0.389771	
-0.388733	
-0.38855	
-0.388184	
-0.388794	
-0.388489	
-0.389404	
-0.390015	
-0.388733	
-0.389099	
-0.388367	
-0.389038	
-0.388855	
-0.389465	
-0.388977	
-0.389404	
-0.389282	
-0.389404	
-0.390076	
-0.388855	
-0.389771	
-0.388916	
-0.389404	
-0.388794	
-0.38916	
-0.387878	
-0.388672	
-0.389038	
-0.389221	
-0.390076	
-0.389221	
-0.38916	
-0.389465	
-0.389099	
-0.388794	
-0.38916	
-0.388611	
-0.389282	
-0.388794	
-0.389038	
-0.390076	
-0.389587	
-0.388489	
-0.388367	
-0.389038	
-0.388733	
-0.388916	
-0.388611	
-0.388977	
-0.388733	
-0.389099	
-0.390015	
-0.390015	
-0.389038	
-0.388855	
-0.388977	
-0.388428	
-0.388794	
-0.388184	
-0.388489	
-0.388489	
-0.388611	
-0.389526	
-0.389832	
-0.388123	
-0.388611	
-0.388977	
-0.388184	
-0.387878	
-0.387146	
-0.387878	
-0.387573	
-0.387817	
-0.388245	
-0.388367	
-0.387634	
-0.387756	
-0.387573	
-0.386902	
-0.387085	
-0.385254	
-0.386353	
-0.386047	
-0.386658	
-0.38678	
-0.386841	
-0.386353	
-0.386414	
-0.386963	
-0.385986	
-0.38678	
-0.383972	
-0.38562	
-0.385803	
-0.38623	
-0.386475	
-0.386292	
-0.385803	
-0.385986	
-0.386536	
-0.38562	
-0.38678	
-0.38501	
-0.385742	
-0.385925	
-0.38562	
-0.386353	
-0.386475	
-0.38623	
-0.385925	
-0.387695	
-0.386353	
-0.386902	
-0.385315	
-0.387207	
-0.387634	
-0.388306	
-0.389709	
-0.390381	
-0.390503	
-0.390747	
-0.392029	
-0.390686	
-0.390869	
-0.389832	
-0.389526	
-0.389343	
-0.38916	
-0.390015	
-0.388794	
-0.38855	
-0.388794	
-0.389099	
-0.387573	
-0.388855	
-0.387451	
-0.387451	
-0.387207	
-0.387146	
-0.38739	
-0.387024	
-0.387024	
-0.386475	
-0.386108	
-0.385376	
-0.386414	
-0.385498	
-0.384399	
-0.386047	
-0.386108	
-0.386292	
-0.386108	
-0.385864	
-0.386047	
-0.384888	
-0.385498	
-0.385437	
-0.38446	
-0.38324	
-0.384338	
-0.384277	
-0.384644	
-0.384583	
-0.385193	
-0.383972	
-0.383362	
-0.384644	
-0.383972	
-0.383484	
-0.383118	
-0.383484	
-0.382935	
-0.384277	
-0.384949	
-0.385376	
-0.384033	
-0.383606	
-0.385132	
-0.385132	
-0.384705	
-0.384583	
-0.385742	
-0.384949	
-0.387207	
-0.387573	
-0.387024	
-0.386719	
-0.386475	
-0.387207	
-0.386658	
-0.386292	
-0.384766	
-0.385315	
-0.385071	
-0.385742	
-0.386169	
-0.386169	
-0.385986	
-0.385681	
-0.385498	
-0.384827	
-0.386108	
-0.384766	
-0.385376	
-0.385498	
-0.386047	
-0.387024	
-0.386047	
-0.385986	
-0.385559	
-0.386536	
-0.384827	
-0.385986	
-0.384766	
-0.384644	
-0.385559	
-0.385681	
-0.38678	
-0.386536	
-0.386963	
-0.386169	
-0.387756	
-0.386841	
-0.386841	
-0.386597	
-0.385986	
-0.386536	
-0.38623	
-0.387329	
-0.386841	
-0.387268	
-0.386475	
-0.387146	
-0.386353	
-0.386902	
-0.386169	
-0.385742	
-0.385681	
-0.386047	
-0.386719	
-0.385437	
-0.386414	
-0.385559	
-0.385864	
-0.385437	
-0.385925	
-0.385376	
-0.385071	
-0.38501	
-0.385559	
-0.385864	
-0.385376	
-0.385742	
-0.385803	
-0.386292	
-0.385986	
-0.386841	
-0.386414	
-0.386292	
-0.385864	
-0.38678	
-0.387268	
-0.38739	
-0.387939	
-0.387939	
-0.387268	
-0.388245	
-0.388489	
-0.38855	
-0.388428	
-0.387634	
-0.387573	
-0.388306	
-0.388245	
-0.387817	
-0.387695	
-0.386475	
-0.387329	
-0.386902	
-0.387451	
-0.386169	
-0.386597	
-0.386658	
-0.387268	
-0.388367	
-0.387207	
-0.388367	
-0.388	
-0.388916	
-0.388794	
-0.388245	
-0.387451	
-0.387451	
-0.387207	
-0.386902	
-0.388062	
-0.386963	
-0.387817	
-0.386292	
-0.387573	
-0.387268	
-0.387024	
-0.386658	
-0.386536	
-0.386963	
-0.386841	
-0.388184	
-0.387024	
-0.387634	
-0.387024	
-0.38739	
-0.386292	
-0.386963	
-0.386841	
-0.386658	
-0.386292	
-0.386047	
-0.387817	
-0.387268	
-0.387817	
-0.386841	
-0.388062	
-0.387634	
-0.387024	
-0.387024	
-0.38562	
-0.386108	
-0.386353	
-0.387573	
-0.387329	
-0.387817	
-0.386963	
-0.387634	
-0.387878	
-0.387451	
-0.387512	
-0.38623	
-0.386963	
-0.38739	
-0.387451	
-0.387573	
-0.38739	
-0.386963	
-0.386597	
-0.388489	
-0.388	
-0.388367	
-0.387329	
-0.387451	
-0.387512	
-0.388	
-0.387939	
-0.38855	
-0.388367	
-0.387085	
-0.388062	
-0.387268	
-0.387817	
-0.387878	
-0.387268	
-0.387451	
-0.38739	
-0.388123	
-0.387451	
-0.38678	
-0.386658	
-0.388123	
-0.387268	
-0.388123	
-0.38739	
-0.38739	
-0.38678	
-0.386597	
-0.389282	
-0.387451	
-0.38855	
-0.387878	
-0.388367	
-0.38739	
-0.388794	
-0.388306	
-0.386536	
-0.387207	
-0.387634	
-0.388733	
-0.387451	
-0.388245	
-0.387817	
-0.387939	
-0.38855	
-0.389282	
-0.38916	
-0.387451	
-0.388306	
-0.388245	
-0.389038	
-0.388489	
-0.389343	
-0.388367	
-0.388611	
-0.389099	
-0.389526	
-0.389282	
-0.38855	
-0.388672	
-0.388794	
-0.388916	
-0.389587	
-0.390076	
-0.389099	
-0.388611	
-0.389954	
-0.389709	
-0.389893	
-0.389893	
-0.390015	
-0.389038	
-0.389954	
-0.390747	
-0.390747	
-0.390076	
-0.389221	
-0.390381	
-0.390564	
-0.391113	
-0.391174	
-0.390015	
-0.389526	
-0.389648	
-0.391541	
-0.391113	
-0.390686	
-0.390686	
-0.391113	
-0.391418	
-0.391357	
-0.391907	
-0.389709	
-0.390259	
-0.390198	
-0.391663	
-0.390564	
-0.390808	
-0.390198	
-0.390198	
-0.389832	
-0.391663	
-0.391235	
-0.388733	
-0.389099	
-0.388306	
-0.388062	
-0.386902	
-0.387024	
-0.386292	
-0.385559	
-0.386841	
-0.387268	
-0.387573	
-0.387207	
-0.387573	
-0.387512	
-0.387756	
-0.387939	
-0.388733	
-0.388	
-0.387024	
-0.388794	
-0.389465	
-0.388672	
-0.388794	
-0.38916	
-0.389099	
-0.388794	
-0.390564	
-0.390686	
-0.390259	
-0.390137	
-0.390625	
-0.390991	
-0.391479	
-0.391296	
-0.389404	
-0.390442	
-0.389954	
-0.391663	
-0.391296	
-0.391174	
-0.390991	
-0.391724	
-0.392334	
-0.392578	
-0.392883	
-0.391235	
-0.391174	
-0.3927	
-0.392761	
-0.39209	
-0.392578	
-0.392883	
-0.392273	
-0.393127	
-0.393677	
-0.39386	
-0.392639	
-0.392334	
-0.392578	
-0.393372	
-0.393677	
-0.394165	
-0.3927	
-0.392578	
-0.393372	
-0.393433	
-0.393311	
-0.392212	
-0.391418	
-0.390381	
-0.390564	
-0.391418	
-0.391418	
-0.391418	
-0.390808	
-0.391174	
-0.391724	
-0.391602	
-0.391541	
-0.39032	
-0.391479	
-0.39032	
-0.392151	
-0.391724	
-0.391785	
-0.391296	
-0.391052	
-0.392395	
-0.391663	
-0.392151	
-0.390564	
-0.390625	
-0.391418	
-0.392212	
-0.392273	
-0.391296	
-0.391418	
-0.391846	
-0.392639	
-0.391968	
-0.392273	
-0.391174	
-0.389954	
-0.391052	
-0.391541	
-0.391785	
-0.391296	
-0.390564	
-0.391052	
-0.391235	
-0.391296	
-0.390625	
-0.390869	
-0.389648	
-0.391296	
-0.390869	
-0.391235	
-0.391052	
-0.391602	
-0.389648	
-0.390808	
-0.392273	
-0.391785	
-0.391174	
-0.389893	
-0.391174	
-0.391113	
-0.392395	
-0.391479	
-0.39209	
-0.391663	
-0.390808	
-0.393127	
-0.391785	
-0.392822	
-0.391235	
-0.391541	
-0.391235	
-0.392517	
-0.391907	
-0.390869	
-0.390564	
-0.390381	
-0.39093	
-0.390625	
-0.391235	
-0.389587	
-0.389709	
-0.389587	
-0.389771	
-0.390137	
-0.389099	
-0.388306	
-0.388123	
-0.389099	
-0.389404	
-0.389221	
-0.388672	
-0.387207	
-0.389282	
-0.389709	
-0.390869	
-0.390076	
-0.390076	
-0.388855	
-0.390686	
-0.391357	
-0.390015	
-0.390137	
-0.389221	
-0.389282	
-0.389648	
-0.390259	
-0.38916	
-0.389343	
-0.388916	
-0.389099	
-0.391479	
-0.390137	
-0.390442	
-0.389954	
-0.390503	
-0.389465	
-0.391479	
-0.390747	
-0.390137	
-0.389771	
-0.389465	
-0.391724	
-0.390503	
-0.390625	
-0.390198	
-0.389587	
-0.389221	
-0.391052	
-0.391846	
-0.390808	
-0.390137	
-0.390381	
-0.391235	
-0.390991	
-0.391418	
-0.390137	
-0.389343	
-0.390686	
-0.390625	
-0.391357	
-0.390137	
-0.390198	
-0.390259	
-0.391235	
-0.391418	
-0.391296	
-0.390015	
-0.389404	
-0.390198	
-0.391479	
-0.391235	
-0.390503	
-0.390503	
-0.389587	
-0.391113	
-0.391602	
-0.390503	
-0.390381	
-0.389893	
-0.390869	
-0.390747	
-0.391418	
-0.390747	
-0.390503	
-0.390442	
-0.39032	
-0.392029	
-0.392151	
-0.391174	
-0.390259	
-0.389221	
-0.389709	
-0.391296	
-0.391602	
-0.390625	
-0.390625	
-0.390076	
-0.390991	
-0.391052	
-0.390625	
-0.389832	
-0.39032	
-0.390015	
-0.391541	
-0.391235	
-0.389954	
-0.389587	
-0.389771	
-0.391113	
-0.390686	
-0.390991	
-0.389832	
-0.389954	
-0.390015	
-0.390808	
-0.390198	
-0.389587	
-0.389709	
-0.389465	
-0.39032	
-0.390259	
-0.390625	
-0.389587	
-0.389771	
-0.389282	
-0.390442	
-0.390381	
-0.390015	
-0.390015	
-0.388672	
-0.388672	
-0.390259	
-0.391235	
-0.389526	
-0.389282	
-0.389343	
-0.389587	
-0.390198	
-0.390198	
-0.389404	
-0.389038	
-0.389282	
-0.389526	
-0.389832	
-0.388855	
-0.388	
-0.38855	
-0.387268	
-0.389038	
-0.388855	
-0.387756	
-0.387207	
-0.388245	
-0.387939	
-0.387573	
-0.387451	
-0.386658	
-0.386902	
-0.386047	
-0.387634	
-0.387878	
-0.387329	
-0.387329	
-0.386902	
-0.387024	
-0.387329	
-0.388	
-0.386841	
-0.386475	
-0.384949	
-0.387573	
-0.38739	
-0.387573	
-0.387207	
-0.385925	
-0.387146	
-0.387512	
-0.388489	
-0.386597	
-0.386658	
-0.386719	
-0.387268	
-0.388123	
-0.388306	
-0.387207	
-0.386902	
-0.388184	
-0.389282	
-0.390686	
-0.390137	
-0.390259	
-0.391541	
-0.391724	
-0.392578	
-0.392273	
-0.391541	
-0.390625	
-0.390747	
-0.391418	
-0.391174	
-0.389709	
-0.389404	
-0.389648	
-0.389404	
-0.389099	
-0.389099	
-0.389404	
-0.388123	
-0.387085	
-0.387939	
-0.388245	
-0.387695	
-0.387756	
-0.387451	
-0.384827	
-0.387695	
-0.388123	
-0.387878	
-0.386536	
-0.386719	
-0.386475	
-0.386963	
-0.387695	
-0.386719	
-0.38678	
-0.385254	
-0.387085	
-0.387024	
-0.386658	
-0.385864	
-0.385559	
-0.386108	
-0.38562	
-0.38678	
-0.384766	
-0.38385	
-0.385132	
-0.385864	
-0.386536	
-0.384888	
-0.384521	
-0.384338	
-0.385193	
-0.385254	
-0.385803	
-0.385437	
-0.384949	
-0.385376	
-0.386047	
-0.386414	
-0.386414	
-0.385925	
-0.385925	
-0.386597	
-0.387329	
-0.388794	
-0.388672	
-0.387634	
-0.387695	
-0.386963	
-0.387512	
-0.38678	
-0.387573	
-0.387268	
-0.385864	
-0.386475	
-0.387085	
-0.387268	
-0.386841	
-0.386902	
-0.38501	
-0.386841	
-0.387451	
-0.387939	
-0.386963	
-0.386353	
-0.387146	
-0.387695	
-0.38855	
-0.386658	
-0.386292	
-0.386108	
-0.387024	
-0.387939	
-0.387512	
-0.387024	
-0.386353	
-0.387268	
-0.387756	
-0.389038	
-0.387268	
-0.387085	
-0.387329	
-0.387878	
-0.388733	
-0.388123	
-0.387817	
-0.387817	
-0.388062	
-0.387695	
-0.388855	
-0.388123	
-0.387756	
-0.387451	
-0.387817	
-0.387939	
-0.387451	
-0.388306	
-0.387268	
-0.386902	
-0.387146	
-0.387756	
-0.386963	
-0.386963	
-0.386169	
-0.386169	
-0.387024	
-0.387024	
-0.387451	
-0.386841	
-0.385803	
-0.387573	
-0.387634	
-0.387695	
-0.387024	
-0.386658	
-0.385681	
-0.387878	
-0.388794	
-0.388611	
-0.38855	
-0.388	
-0.388367	
-0.389404	
-0.390747	
-0.388977	
-0.38916	
-0.388977	
-0.389954	
-0.390564	
-0.390198	
-0.390198	
-0.389709	
	
