E:\DOCUMENTS AND SETTINGS\JPOTAS\MEUS DOCUMENTOS\UFRJ\RSCI-BM 12 WK SERIES\070727-RSCI-BM-05\RSCI-BM-05-LEMG\070727-RSCI-BM-05-LEMG-0010.ACQ
0.025000 msec/sample
1 channel
Analog input
Volts
CH1	
2000	
-0.386536	
-0.385925	
-0.384644	
-0.38501	
-0.386353	
-0.385437	
-0.386047	
-0.386841	
-0.386169	
-0.386108	
-0.387451	
-0.38739	
-0.38678	
-0.387634	
-0.385681	
-0.387268	
-0.387329	
-0.387634	
-0.387756	
-0.388306	
-0.388123	
-0.388855	
-0.389343	
-0.388611	
-0.388794	
-0.38855	
-0.388306	
-0.390137	
-0.390442	
-0.391113	
-0.392334	
-0.392517	
-0.393066	
-0.393494	
-0.394592	
-0.39325	
-0.393005	
-0.391357	
-0.392456	
-0.393433	
-0.392639	
-0.393005	
-0.393677	
-0.392639	
-0.392395	
-0.393616	
-0.391968	
-0.392151	
-0.392822	
-0.391785	
-0.391785	
-0.391846	
-0.391785	
-0.391602	
-0.392456	
-0.390991	
-0.391113	
-0.392456	
-0.391357	
-0.390747	
-0.390503	
-0.389954	
-0.39032	
-0.388672	
-0.390259	
-0.389954	
-0.388855	
-0.388611	
-0.388916	
-0.388794	
-0.38739	
-0.387207	
-0.384827	
-0.386475	
-0.386292	
-0.38501	
-0.385254	
-0.38623	
-0.385559	
-0.385254	
-0.38623	
-0.385193	
-0.384216	
-0.384949	
-0.384094	
-0.384827	
-0.385437	
-0.385498	
-0.38562	
-0.385986	
-0.385681	
-0.38623	
-0.387207	
-0.386108	
-0.387024	
-0.385986	
-0.387146	
-0.38739	
-0.387207	
-0.387695	
-0.388	
-0.388062	
-0.387939	
-0.388245	
-0.388367	
-0.387634	
-0.388062	
-0.386353	
-0.388489	
-0.387939	
-0.388062	
-0.388184	
-0.388977	
-0.388123	
-0.388489	
-0.389893	
-0.388245	
-0.388428	
-0.387878	
-0.387695	
-0.388123	
-0.387085	
-0.387146	
-0.387634	
-0.388062	
-0.387634	
-0.388062	
-0.388672	
-0.387207	
-0.387817	
-0.386047	
-0.387268	
-0.386841	
-0.38623	
-0.38623	
-0.386292	
-0.385925	
-0.385864	
-0.386963	
-0.38501	
-0.386047	
-0.386536	
-0.384705	
-0.385986	
-0.386292	
-0.386108	
-0.385986	
-0.38678	
-0.386658	
-0.386597	
-0.38739	
-0.386047	
-0.385925	
-0.384644	
-0.385071	
-0.385803	
-0.384766	
-0.385742	
-0.38623	
-0.386841	
-0.38623	
-0.387146	
-0.387146	
-0.386841	
-0.388	
-0.385986	
-0.387817	
-0.388123	
-0.389038	
-0.388855	
-0.389526	
-0.389038	
-0.389404	
-0.391541	
-0.388611	
-0.389771	
-0.39032	
-0.388977	
-0.389587	
-0.389893	
-0.390442	
-0.390625	
-0.391296	
-0.390869	
-0.391296	
-0.391846	
-0.390442	
-0.390503	
-0.389099	
-0.39032	
-0.390503	
-0.389893	
-0.390198	
-0.390503	
-0.390564	
-0.390076	
-0.391052	
-0.38623	
-0.383728	
-0.383789	
-0.380249	
-0.383484	
-0.383484	
-0.387268	
-0.389404	
-0.389648	
-0.389282	
-0.389771	
-0.390991	
-0.387573	
-0.388611	
-0.388123	
-0.387695	
-0.387634	
-0.386658	
-0.387024	
-0.386841	
-0.387573	
-0.385681	
-0.385498	
-0.385925	
-0.384155	
-0.384644	
-0.382324	
-0.384338	
-0.383606	
-0.383606	
-0.383789	
-0.384399	
-0.384216	
-0.383911	
-0.385071	
-0.384033	
-0.384888	
-0.385254	
-0.38208	
-0.384644	
-0.385071	
-0.385559	
-0.385559	
-0.386108	
-0.385864	
-0.386169	
-0.388367	
-0.385681	
-0.386658	
-0.38678	
-0.387085	
-0.388428	
-0.389465	
-0.39209	
-0.394531	
-0.397583	
-0.399353	
-0.403198	
-0.406555	
-0.410828	
-0.411743	
-0.409668	
-0.416382	
-0.420715	
-0.424805	
-0.42865	
-0.436646	
-0.443726	
-0.448792	
-0.454163	
-0.458679	
-0.465454	
-0.470093	
-0.47998	
-0.487732	
-0.497375	
-0.505371	
-0.512817	
-0.518005	
-0.523132	
-0.527649	
-0.530029	
-0.531921	
-0.530762	
-0.532166	
-0.530884	
-0.528931	
-0.527588	
-0.52594	
-0.522339	
-0.519226	
-0.516907	
-0.512512	
-0.508423	
-0.5047	
-0.498962	
-0.495483	
-0.490051	
-0.485962	
-0.480896	
-0.476746	
-0.471375	
-0.46759	
-0.464905	
-0.459595	
-0.457703	
-0.453979	
-0.452026	
-0.449768	
-0.447021	
-0.443604	
-0.441223	
-0.437866	
-0.434387	
-0.431091	
-0.428406	
-0.424866	
-0.422241	
-0.418457	
-0.418213	
-0.417114	
-0.417419	
-0.417358	
-0.417542	
-0.419006	
-0.42041	
-0.421997	
-0.422546	
-0.424011	
-0.423584	
-0.424683	
-0.425354	
-0.425049	
-0.426025	
-0.426392	
-0.425537	
-0.424866	
-0.425354	
-0.422546	
-0.421814	
-0.420044	
-0.415283	
-0.4151	
-0.412048	
-0.408569	
-0.404907	
-0.401184	
-0.395813	
-0.391602	
-0.387573	
-0.380737	
-0.375183	
-0.370056	
-0.365906	
-0.361694	
-0.356506	
-0.353882	
-0.350647	
-0.347107	
-0.344971	
-0.342468	
-0.339722	
-0.339172	
-0.339355	
-0.335876	
-0.338928	
-0.339539	
-0.341675	
-0.343384	
-0.347229	
-0.349304	
-0.353149	
-0.357239	
-0.359253	
-0.361328	
-0.360413	
-0.363831	
-0.364197	
-0.363953	
-0.363647	
-0.364014	
-0.363159	
-0.363403	
-0.36377	
-0.362488	
-0.362549	
-0.362915	
-0.364502	
-0.366882	
-0.368774	
-0.371094	
-0.37384	
-0.375732	
-0.378845	
-0.381653	
-0.383789	
-0.386475	
-0.388855	
-0.39032	
-0.394592	
-0.39679	
-0.399902	
-0.40271	
-0.404175	
-0.406311	
-0.407776	
-0.409729	
-0.410278	
-0.410095	
-0.407593	
-0.409973	
-0.409363	
-0.409363	
-0.408142	
-0.407227	
-0.405762	
-0.405334	
-0.405579	
-0.403137	
-0.402832	
-0.400452	
-0.400024	
-0.399292	
-0.396973	
-0.396362	
-0.394226	
-0.391785	
-0.389404	
-0.386963	
-0.383484	
-0.379211	
-0.375366	
-0.370911	
-0.366272	
-0.361267	
-0.35675	
-0.352112	
-0.346191	
-0.340698	
-0.335327	
-0.328613	
-0.322937	
-0.31781	
-0.309265	
-0.305786	
-0.301208	
-0.296509	
-0.293518	
-0.290955	
-0.289307	
-0.288269	
-0.289063	
-0.28894	
-0.290344	
-0.290222	
-0.292053	
-0.295349	
-0.298157	
-0.302063	
-0.304932	
-0.308899	
-0.312012	
-0.317627	
-0.319519	
-0.322937	
-0.325195	
-0.327942	
-0.331238	
-0.334229	
-0.337585	
-0.337769	
-0.339539	
-0.341431	
-0.343567	
-0.345154	
-0.345215	
-0.345276	
-0.347534	
-0.348328	
-0.349304	
-0.351196	
-0.352417	
-0.353455	
-0.353699	
-0.355103	
-0.355896	
-0.35614	
-0.356384	
-0.357178	
-0.358459	
-0.358887	
-0.359924	
-0.360718	
-0.361267	
-0.360901	
-0.361694	
-0.361572	
-0.361328	
-0.361023	
-0.361694	
-0.360474	
-0.35968	
-0.359985	
-0.359924	
-0.359558	
-0.360168	
-0.360168	
-0.361145	
-0.360168	
-0.360168	
-0.360657	
-0.361267	
-0.360962	
-0.361938	
-0.362061	
-0.362061	
-0.363586	
-0.362305	
-0.363708	
-0.362305	
-0.363037	
-0.36322	
-0.363708	
-0.363525	
-0.364441	
-0.364929	
-0.365601	
-0.366211	
-0.366516	
-0.367554	
-0.366211	
-0.367126	
-0.36792	
-0.367554	
-0.368469	
-0.369507	
-0.369751	
-0.369934	
-0.3703	
-0.371399	
-0.37085	
-0.371155	
-0.37207	
-0.372314	
-0.372192	
-0.372559	
-0.372742	
-0.373657	
-0.374451	
-0.375488	
-0.37439	
-0.375305	
-0.376038	
-0.376831	
-0.378052	
-0.377563	
-0.378601	
-0.379028	
-0.380249	
-0.379822	
-0.381042	
-0.381775	
-0.381348	
-0.381531	
-0.380676	
-0.382446	
-0.380981	
-0.381042	
-0.381165	
-0.381897	
-0.380676	
-0.380798	
-0.381897	
-0.379578	
-0.380615	
-0.380249	
-0.381531	
-0.380371	
-0.380249	
-0.380005	
-0.380066	
-0.380981	
-0.380432	
-0.38147	
-0.379822	
-0.380676	
-0.379883	
-0.379761	
-0.37915	
-0.379517	
-0.379517	
-0.379578	
-0.380371	
-0.3797	
-0.380005	
-0.379211	
-0.379639	
-0.378235	
-0.377747	
-0.378601	
-0.37854	
-0.378845	
-0.377869	
-0.379639	
-0.378662	
-0.378845	
-0.378845	
-0.378967	
-0.378723	
-0.378906	
-0.37915	
-0.377136	
-0.378174	
-0.378479	
-0.378845	
-0.379517	
-0.379028	
-0.378479	
-0.378479	
-0.379211	
-0.379456	
-0.379883	
-0.379272	
-0.379944	
-0.379395	
-0.380188	
-0.381226	
-0.380493	
-0.380066	
-0.38031	
-0.381836	
-0.381042	
-0.38147	
-0.381042	
-0.381226	
-0.380371	
-0.382751	
-0.382813	
-0.381897	
-0.381958	
-0.381592	
-0.382385	
-0.380798	
-0.381409	
-0.380493	
-0.380432	
-0.379639	
-0.380737	
-0.380798	
-0.38031	
-0.380676	
-0.37915	
-0.380432	
-0.379517	
-0.379272	
-0.378662	
-0.379211	
-0.378967	
-0.378845	
-0.379883	
-0.379944	
-0.380127	
-0.378662	
-0.379883	
-0.379333	
-0.380432	
-0.379517	
-0.380493	
-0.380249	
-0.380432	
-0.381592	
-0.381348	
-0.380981	
-0.380493	
-0.380737	
-0.381042	
-0.38031	
-0.381104	
-0.381104	
-0.381409	
-0.380188	
-0.382874	
-0.383118	
-0.382263	
-0.383057	
-0.382568	
-0.383423	
-0.382813	
-0.383606	
-0.383423	
-0.383179	
-0.38324	
-0.38501	
-0.385315	
-0.384583	
-0.386047	
-0.385315	
-0.386719	
-0.386353	
-0.387756	
-0.387817	
-0.387085	
-0.387878	
-0.388977	
-0.390015	
-0.389343	
-0.389038	
-0.387451	
-0.38855	
-0.389343	
-0.389709	
-0.388977	
-0.388245	
-0.387939	
-0.389038	
-0.390076	
-0.388977	
-0.388977	
-0.389099	
-0.388367	
-0.387878	
-0.389832	
-0.388611	
-0.388367	
-0.386719	
-0.387817	
-0.388611	
-0.389038	
-0.388916	
-0.386963	
-0.387268	
-0.387512	
-0.387939	
-0.387024	
-0.386963	
-0.385925	
-0.385193	
-0.386169	
-0.386292	
-0.385254	
-0.383484	
-0.383606	
-0.384155	
-0.383728	
-0.38385	
-0.383057	
-0.382141	
-0.381287	
-0.382568	
-0.383118	
-0.382324	
-0.381042	
-0.380981	
-0.381775	
-0.381836	
-0.382324	
-0.382507	
-0.382202	
-0.381287	
-0.383057	
-0.383423	
-0.382446	
-0.383118	
-0.382751	
-0.38385	
-0.383423	
-0.385132	
-0.384644	
-0.384399	
-0.383118	
-0.384644	
-0.385559	
-0.384827	
-0.385437	
-0.38385	
-0.384705	
-0.38446	
-0.386169	
-0.38501	
-0.384949	
-0.384827	
-0.385254	
-0.386292	
-0.385498	
-0.385742	
-0.384827	
-0.384705	
-0.384949	
-0.385803	
-0.385315	
-0.384888	
-0.384888	
-0.383789	
-0.385742	
-0.38501	
-0.384888	
-0.385437	
-0.385071	
-0.384277	
-0.384399	
-0.385925	
-0.384583	
-0.384033	
-0.383606	
-0.384033	
-0.384583	
-0.384216	
-0.383972	
-0.382996	
-0.383606	
-0.383667	
-0.38501	
-0.384094	
-0.383728	
-0.383484	
-0.382996	
-0.384949	
-0.383911	
-0.384216	
-0.38385	
-0.382874	
-0.384155	
-0.384033	
-0.384216	
-0.383545	
-0.383301	
-0.382996	
-0.38446	
-0.384766	
-0.383911	
-0.384583	
-0.384155	
-0.384705	
-0.384888	
-0.385071	
-0.385559	
-0.385986	
-0.384338	
-0.387268	
-0.387085	
-0.387756	
-0.387146	
-0.386475	
-0.387207	
-0.387756	
-0.387817	
-0.388062	
-0.387817	
-0.387756	
-0.38855	
-0.389099	
-0.388794	
-0.388916	
-0.388977	
-0.388245	
-0.388916	
-0.388489	
-0.388489	
-0.388672	
-0.388245	
-0.387573	
-0.38855	
-0.389099	
-0.388306	
-0.388733	
-0.386292	
-0.387573	
-0.388123	
-0.388733	
-0.387512	
-0.387756	
-0.386902	
-0.387634	
-0.388245	
-0.386841	
-0.387817	
-0.386658	
-0.385803	
-0.38678	
-0.387207	
-0.385437	
-0.385376	
-0.38501	
-0.385132	
-0.385559	
-0.385193	
-0.38385	
-0.383301	
-0.382751	
-0.382629	
-0.382446	
-0.382141	
-0.381714	
-0.381653	
-0.379944	
-0.382263	
-0.381897	
-0.381775	
-0.38147	
-0.381531	
-0.381653	
-0.382324	
-0.382751	
-0.382813	
-0.38324	
-0.381897	
-0.382263	
-0.383606	
-0.383789	
-0.383789	
-0.383362	
-0.383484	
-0.384033	
-0.384521	
-0.38501	
-0.384094	
-0.384155	
-0.38385	
-0.384766	
-0.384766	
-0.385254	
-0.385132	
-0.384766	
-0.384399	
-0.386353	
-0.385315	
-0.385071	
-0.38501	
-0.385193	
-0.385803	
-0.385498	
-0.386353	
-0.385437	
-0.385376	
-0.385498	
-0.385742	
-0.386475	
-0.386414	
-0.385803	
-0.385925	
-0.385986	
-0.386841	
-0.386475	
-0.386108	
-0.387085	
-0.38623	
-0.385986	
-0.387634	
-0.387329	
-0.38678	
-0.387085	
-0.38623	
-0.386414	
-0.386475	
-0.38678	
-0.385803	
-0.384399	
-0.385559	
-0.385803	
-0.384705	
-0.385193	
-0.38562	
-0.38501	
-0.385376	
-0.38623	
-0.385742	
-0.385254	
-0.385986	
-0.385742	
-0.38446	
-0.386536	
-0.387085	
-0.386597	
-0.386414	
-0.387146	
-0.387756	
-0.388306	
-0.388977	
-0.388489	
-0.38855	
-0.388733	
-0.389099	
-0.389404	
-0.389587	
-0.389893	
-0.388733	
-0.389832	
-0.391052	
-0.390076	
-0.390625	
-0.390503	
-0.389709	
-0.389526	
-0.390259	
-0.390198	
-0.39032	
-0.389282	
-0.388916	
-0.389465	
-0.389832	
-0.389893	
-0.389038	
-0.388	
-0.388977	
-0.389771	
-0.388184	
-0.388611	
-0.388855	
-0.388916	
-0.38855	
-0.389404	
-0.388977	
-0.388245	
-0.388672	
-0.388123	
-0.387634	
-0.388306	
-0.388855	
-0.387573	
-0.38739	
-0.38739	
-0.387573	
-0.387512	
-0.387634	
-0.387695	
-0.385498	
-0.386169	
-0.386047	
-0.386292	
-0.385071	
-0.385315	
-0.384705	
-0.38324	
-0.38501	
-0.383728	
-0.383362	
-0.382751	
-0.383179	
-0.381958	
-0.381958	
-0.383179	
-0.382385	
-0.381409	
-0.381897	
-0.382141	
-0.381958	
-0.383545	
-0.382996	
-0.382202	
-0.382874	
-0.383667	
-0.38269	
-0.38269	
-0.38269	
-0.383606	
-0.382629	
-0.384338	
-0.384399	
-0.384521	
-0.383789	
-0.384033	
-0.38385	
-0.383911	
-0.385315	
-0.384949	
-0.384705	
-0.384888	
-0.38562	
-0.386169	
-0.388	
-0.387817	
-0.386353	
-0.387329	
-0.388123	
-0.388733	
-0.388916	
-0.389038	
-0.389038	
-0.389099	
-0.390625	
-0.390076	
-0.390442	
-0.390625	
-0.390381	
-0.389526	
-0.391174	
-0.392151	
-0.390442	
-0.390076	
-0.390198	
-0.390564	
-0.39093	
-0.391235	
-0.390747	
-0.389954	
-0.390381	
-0.389771	
-0.38916	
-0.389038	
-0.388794	
-0.387451	
-0.387695	
-0.389099	
-0.388428	
-0.388123	
-0.38739	
-0.387756	
-0.387329	
-0.387817	
-0.388184	
-0.387573	
-0.387207	
-0.387573	
-0.387207	
-0.38739	
-0.388245	
-0.388428	
-0.386475	
-0.386841	
-0.388428	
-0.387695	
-0.387695	
-0.387146	
-0.387817	
-0.387573	
-0.388916	
-0.388428	
-0.388489	
-0.388489	
-0.388672	
-0.38916	
-0.38855	
-0.389893	
-0.388367	
-0.388184	
-0.389282	
-0.390137	
-0.389465	
-0.391052	
-0.390442	
-0.388794	
-0.389526	
-0.390198	
-0.389465	
-0.390076	
-0.389587	
-0.389404	
-0.388367	
-0.390137	
-0.389648	
-0.389893	
-0.389099	
-0.389404	
-0.388733	
-0.390076	
-0.390381	
-0.389954	
-0.389099	
-0.388794	
-0.390198	
-0.390015	
-0.390259	
-0.389709	
-0.388733	
-0.389038	
-0.390137	
-0.390076	
-0.389099	
-0.388489	
-0.388245	
-0.386597	
-0.388306	
-0.387329	
-0.387817	
-0.386169	
-0.386414	
-0.385254	
-0.386108	
-0.38678	
-0.385925	
-0.385071	
-0.385681	
-0.385742	
-0.385498	
-0.385193	
-0.384766	
-0.383972	
-0.384766	
-0.383911	
-0.38446	
-0.384888	
-0.384583	
-0.384521	
-0.384155	
-0.386047	
-0.385132	
-0.385864	
-0.384888	
-0.385315	
-0.384705	
-0.385193	
-0.386169	
-0.385315	
-0.385742	
-0.385193	
-0.385681	
-0.385437	
-0.386658	
-0.386719	
-0.385437	
-0.38623	
-0.386719	
-0.386719	
-0.387329	
-0.387268	
-0.387207	
-0.387207	
-0.388	
-0.388855	
-0.389832	
-0.389221	
-0.388977	
-0.390808	
-0.391113	
-0.391541	
-0.391296	
-0.390564	
-0.391357	
-0.391846	
-0.39209	
-0.392273	
-0.392029	
-0.391296	
-0.391846	
-0.391235	
-0.391418	
-0.390442	
-0.389404	
-0.390076	
-0.389221	
-0.390686	
-0.389343	
-0.390625	
-0.389465	
-0.389404	
-0.388855	
-0.38739	
-0.389465	
-0.388855	
-0.387329	
-0.388	
-0.387939	
-0.388855	
-0.38855	
-0.388855	
-0.387207	
-0.388184	
-0.387573	
-0.387878	
-0.387756	
-0.387146	
-0.387451	
-0.386536	
-0.387756	
-0.387024	
-0.388245	
-0.38678	
-0.385986	
-0.387268	
-0.38678	
-0.38739	
-0.386719	
-0.385986	
-0.386353	
-0.386902	
-0.387085	
-0.386963	
-0.387207	
-0.386292	
-0.386658	
-0.387024	
-0.386536	
-0.387085	
-0.386292	
-0.386169	
-0.386475	
-0.386963	
-0.387756	
-0.388489	
-0.387695	
-0.386169	
-0.387634	
-0.386719	
-0.387939	
-0.387329	
-0.387329	
-0.387451	
-0.386597	
-0.388	
-0.387756	
-0.388123	
-0.387329	
-0.387146	
-0.386414	
-0.387451	
-0.387756	
-0.386414	
-0.385864	
-0.384949	
-0.385681	
-0.385132	
-0.385559	
-0.384155	
-0.383728	
-0.382874	
-0.38324	
-0.383789	
-0.383484	
-0.382813	
-0.382874	
-0.381226	
-0.383118	
-0.383423	
-0.382751	
-0.38208	
-0.382568	
-0.382874	
-0.38269	
-0.383545	
-0.382751	
-0.382324	
-0.383301	
-0.383545	
-0.383606	
-0.383911	
-0.383728	
-0.382813	
-0.382751	
-0.383606	
-0.384155	
-0.384216	
-0.383484	
-0.383545	
-0.383179	
-0.384766	
-0.384644	
-0.384338	
-0.384216	
-0.384094	
-0.384644	
-0.38501	
-0.38501	
-0.385193	
-0.384888	
-0.385132	
-0.38501	
-0.385925	
-0.385742	
-0.385742	
-0.384827	
-0.38562	
-0.386475	
-0.387451	
-0.388916	
-0.388184	
-0.388916	
-0.389282	
-0.390686	
-0.39093	
-0.391296	
-0.390747	
-0.390076	
-0.390564	
-0.390869	
-0.390808	
-0.390686	
-0.389648	
-0.390503	
-0.389832	
-0.390747	
-0.39093	
-0.390137	
-0.389709	
-0.389587	
-0.390564	
-0.390137	
-0.390808	
-0.389587	
-0.389099	
-0.389099	
-0.389099	
-0.390076	
-0.389343	
-0.388672	
-0.388062	
-0.388611	
-0.38855	
-0.388428	
-0.388672	
-0.386902	
-0.387878	
-0.387207	
-0.387634	
-0.387085	
-0.38678	
-0.385437	
-0.385315	
-0.385376	
-0.384766	
-0.384766	
-0.38385	
-0.383789	
-0.383606	
-0.38324	
-0.38324	
-0.383972	
-0.382385	
-0.382446	
-0.382874	
-0.382874	
-0.382202	
-0.38324	
-0.382935	
-0.383301	
-0.382935	
-0.383484	
-0.383606	
-0.383667	
-0.382874	
-0.382935	
-0.384399	
-0.38446	
-0.384888	
-0.384338	
-0.385315	
-0.38501	
-0.385254	
-0.386475	
-0.386108	
-0.385559	
-0.38501	
-0.386169	
-0.38623	
-0.385925	
-0.386414	
-0.385742	
-0.386353	
-0.38623	
-0.387268	
-0.38678	
-0.387085	
-0.385864	
-0.385254	
-0.386047	
-0.386047	
-0.386353	
-0.385864	
-0.385559	
-0.385681	
-0.385742	
-0.386047	
-0.385437	
-0.38562	
-0.38446	
-0.38623	
-0.384216	
-0.384949	
-0.38501	
-0.384705	
-0.384277	
-0.384521	
-0.384888	
-0.383484	
-0.384583	
-0.384033	
-0.383972	
-0.383667	
-0.38446	
-0.383972	
-0.383484	
-0.384216	
-0.383911	
-0.383301	
-0.385376	
-0.384338	
-0.384094	
-0.383057	
-0.384155	
-0.382751	
-0.383667	
-0.38446	
-0.383789	
-0.383789	
-0.383667	
-0.385071	
-0.385132	
-0.38562	
-0.383972	
-0.383606	
-0.384216	
-0.384155	
-0.385559	
-0.385071	
-0.385986	
-0.385986	
-0.386902	
-0.387695	
-0.387573	
-0.387695	
-0.386353	
-0.388489	
-0.387024	
-0.388062	
-0.388062	
-0.387634	
-0.388123	
-0.388794	
-0.388977	
-0.388306	
-0.389404	
-0.388916	
-0.387451	
-0.389282	
-0.388794	
-0.389038	
-0.38916	
-0.388733	
-0.388489	
-0.388977	
-0.389832	
-0.388611	
-0.388916	
-0.387329	
-0.38916	
-0.388245	
-0.388062	
-0.388306	
-0.388611	
-0.388123	
-0.388	
-0.387451	
-0.387878	
-0.387207	
-0.387451	
-0.386414	
-0.387085	
-0.385498	
-0.38623	
-0.385803	
-0.385803	
-0.385925	
-0.385315	
-0.387024	
-0.384583	
-0.384705	
-0.383423	
-0.383423	
-0.382874	
-0.382813	
-0.383484	
-0.382141	
-0.382507	
-0.382141	
-0.383301	
-0.383118	
-0.382324	
-0.381836	
-0.381714	
-0.383484	
-0.382568	
-0.383484	
-0.383118	
-0.38385	
-0.383484	
-0.383667	
-0.384644	
-0.384338	
-0.384216	
-0.383545	
-0.385071	
-0.384705	
-0.384399	
-0.385132	
-0.385498	
-0.385315	
-0.385559	
-0.385498	
-0.386108	
-0.385864	
-0.386414	
-0.384094	
-0.386292	
-0.385559	
-0.386414	
-0.385681	
-0.386292	
-0.386475	
-0.385559	
-0.38739	
-0.386963	
-0.387329	
-0.386353	
-0.385986	
-0.386292	
-0.385559	
-0.386658	
-0.38623	
-0.387329	
-0.387329	
-0.38678	
-0.388123	
-0.387451	
-0.388062	
-0.387756	
-0.388062	
-0.387329	
-0.387329	
-0.387817	
-0.387451	
-0.387146	
-0.387207	
-0.387878	
-0.386169	
-0.386414	
-0.38623	
-0.386292	
-0.386047	
-0.386597	
-0.386902	
-0.386353	
-0.38623	
-0.386108	
-0.386658	
-0.387207	
-0.387024	
-0.387024	
-0.385742	
-0.386902	
-0.386963	
-0.387695	
-0.388367	
-0.389038	
-0.388672	
-0.389038	
-0.390442	
-0.390747	
-0.390015	
-0.389587	
-0.390991	
-0.390747	
-0.390015	
-0.390442	
-0.391113	
-0.391052	
-0.391174	
-0.390503	
-0.391846	
-0.391907	
-0.391968	
-0.390259	
-0.39032	
-0.390991	
-0.390686	
-0.391418	
-0.390503	
-0.390808	
-0.390381	
-0.390747	
-0.391357	
-0.390076	
-0.390076	
-0.39093	
-0.390015	
-0.38916	
-0.390259	
-0.390625	
-0.390198	
-0.390076	
-0.389404	
-0.390076	
-0.390137	
-0.390259	
-0.389099	
-0.389038	
-0.389099	
-0.388672	
-0.38855	
-0.388672	
-0.38855	
-0.388916	
-0.388611	
-0.38855	
-0.387878	
-0.388245	
-0.386841	
-0.38739	
-0.38623	
-0.386597	
-0.386841	
-0.385864	
-0.385132	
-0.383911	
-0.385315	
-0.385071	
-0.384705	
-0.383606	
-0.384399	
-0.383911	
-0.383484	
-0.384033	
-0.383972	
-0.384033	
-0.384155	
-0.384521	
-0.384338	
-0.384827	
-0.385132	
-0.383484	
-0.383545	
-0.384216	
-0.38446	
-0.384338	
-0.385254	
-0.385193	
-0.38501	
-0.386902	
-0.38623	
-0.385803	
-0.385559	
-0.386475	
-0.386108	
-0.38562	
-0.387268	
-0.386597	
-0.387207	
-0.387268	
-0.388489	
-0.389404	
-0.389099	
-0.389832	
-0.389526	
-0.388977	
-0.389526	
-0.390991	
-0.390442	
-0.391357	
-0.391541	
-0.391174	
-0.3927	
-0.392761	
-0.39209	
-0.391968	
-0.392456	
-0.391907	
-0.391541	
-0.392273	
-0.391724	
-0.391846	
-0.391663	
-0.391296	
-0.392395	
-0.392212	
-0.392395	
-0.390259	
-0.391113	
-0.390076	
-0.389709	
-0.389526	
-0.389526	
-0.390625	
-0.389648	
-0.39032	
-0.390198	
-0.389709	
-0.388855	
-0.388855	
-0.388794	
-0.388184	
-0.389648	
-0.388062	
-0.389038	
-0.388916	
-0.389282	
-0.389587	
-0.388916	
-0.389282	
-0.388	
-0.389587	
-0.389099	
-0.389221	
-0.390381	
-0.389709	
-0.389954	
-0.389771	
-0.390869	
-0.39093	
-0.39032	
-0.390625	
-0.390442	
-0.39093	
-0.390442	
-0.391235	
-0.390442	
-0.391907	
-0.391418	
-0.390991	
-0.391724	
-0.391907	
-0.392456	
-0.390442	
-0.391296	
-0.391235	
-0.391479	
-0.391968	
-0.391296	
-0.391296	
-0.391541	
-0.392212	
-0.391602	
-0.391846	
-0.391724	
-0.391479	
-0.391663	
-0.390869	
-0.392029	
-0.391541	
-0.391846	
-0.391418	
-0.391113	
-0.391724	
-0.391968	
-0.391602	
-0.390259	
-0.391602	
-0.391052	
-0.390015	
-0.390442	
-0.389709	
-0.389465	
-0.389099	
-0.38916	
-0.388611	
-0.388428	
-0.388733	
-0.38739	
-0.387878	
-0.387268	
-0.387878	
-0.387878	
-0.387634	
-0.386902	
-0.386353	
-0.387512	
-0.387512	
-0.386841	
-0.386658	
-0.387146	
-0.387024	
-0.385803	
-0.387146	
-0.386108	
-0.38739	
-0.386841	
-0.386169	
-0.387695	
-0.387939	
-0.388	
-0.386719	
-0.38739	
-0.387451	
-0.387695	
-0.387329	
-0.387451	
-0.388123	
-0.388611	
-0.389221	
-0.389465	
-0.389221	
-0.389099	
-0.389648	
-0.389282	
-0.389893	
-0.390198	
-0.390747	
-0.390564	
-0.390442	
-0.390442	
-0.393005	
-0.39325	
-0.393616	
-0.393372	
-0.393982	
-0.393494	
-0.394104	
-0.394775	
-0.394653	
-0.394348	
-0.393982	
-0.394897	
-0.394531	
-0.394348	
-0.393494	
-0.393555	
-0.392822	
-0.391541	
-0.392517	
-0.393127	
-0.392334	
-0.392334	
-0.391418	
-0.392761	
-0.392517	
-0.392151	
-0.391296	
-0.391052	
-0.391357	
-0.390625	
-0.391052	
-0.390747	
-0.390503	
-0.389771	
-0.390503	
-0.390503	
-0.390381	
-0.390442	
-0.389404	
-0.389282	
-0.389343	
-0.390137	
-0.388672	
-0.390198	
-0.389893	
-0.388611	
-0.390198	
-0.390076	
-0.390381	
-0.389465	
-0.389832	
-0.389526	
-0.389465	
-0.389832	
-0.389282	
-0.388977	
-0.388855	
-0.389099	
-0.390259	
-0.389404	
-0.390198	
-0.388916	
-0.38916	
-0.388794	
-0.389587	
-0.389465	
-0.389282	
-0.389221	
-0.389587	
-0.390686	
-0.391418	
-0.39093	
-0.390381	
-0.390686	
-0.390076	
-0.390137	
-0.390991	
-0.389221	
-0.389954	
-0.390442	
-0.390503	
-0.391235	
-0.390625	
-0.390259	
-0.389099	
-0.389343	
-0.388916	
-0.388611	
-0.38855	
-0.388306	
-0.388062	
-0.387512	
-0.387451	
-0.387634	
-0.386719	
-0.386292	
-0.385559	
-0.386047	
-0.38562	
-0.385254	
-0.385986	
-0.385315	
-0.385437	
-0.384399	
-0.386475	
-0.385925	
-0.385742	
-0.385376	
-0.384949	
-0.385681	
-0.385986	
-0.38678	
-0.38623	
-0.386353	
-0.386292	
-0.386536	
	
