E:\DOCUMENTS AND SETTINGS\JPOTAS\MEUS DOCUMENTOS\UFRJ\RSCI-BM 12 WK SERIES\070727-RSCI-BM-05\RSCI-BM-05-LEMG\070727-RSCI-BM-05-LEMG-0014.ACQ
0.025000 msec/sample
1 channel
Analog input
Volts
CH1	
2000	
-0.382629	
-0.382385	
-0.384033	
-0.384338	
-0.384949	
-0.384521	
-0.384705	
-0.384583	
-0.385742	
-0.38678	
-0.385193	
-0.384827	
-0.385132	
-0.385559	
-0.386047	
-0.387085	
-0.386169	
-0.386169	
-0.386047	
-0.38678	
-0.387085	
-0.387024	
-0.386475	
-0.387268	
-0.385681	
-0.388245	
-0.388977	
-0.389526	
-0.389526	
-0.389648	
-0.388977	
-0.390991	
-0.392029	
-0.390503	
-0.389954	
-0.389954	
-0.390991	
-0.391418	
-0.392273	
-0.391418	
-0.391296	
-0.390564	
-0.391785	
-0.391235	
-0.391235	
-0.390442	
-0.389954	
-0.387512	
-0.389648	
-0.390686	
-0.390625	
-0.389771	
-0.389893	
-0.389465	
-0.390503	
-0.391602	
-0.390076	
-0.388916	
-0.389099	
-0.390015	
-0.390137	
-0.390991	
-0.389832	
-0.389526	
-0.388062	
-0.389709	
-0.389709	
-0.388733	
-0.388123	
-0.388062	
-0.38678	
-0.388916	
-0.389832	
-0.388855	
-0.388794	
-0.388123	
-0.388	
-0.389404	
-0.390686	
-0.388611	
-0.388428	
-0.387512	
-0.388489	
-0.388733	
-0.389587	
-0.388611	
-0.38855	
-0.387268	
-0.388611	
-0.388672	
-0.388916	
-0.388855	
-0.388794	
-0.387634	
-0.389771	
-0.390259	
-0.389526	
-0.389221	
-0.388855	
-0.389954	
-0.389526	
-0.390564	
-0.389526	
-0.389587	
-0.389465	
-0.389709	
-0.389709	
-0.389954	
-0.389771	
-0.389343	
-0.388	
-0.389343	
-0.388733	
-0.387756	
-0.386353	
-0.387634	
-0.38562	
-0.387024	
-0.388245	
-0.386841	
-0.386719	
-0.386475	
-0.386658	
-0.386169	
-0.387634	
-0.386047	
-0.385925	
-0.385132	
-0.386292	
-0.386414	
-0.385437	
-0.385498	
-0.385498	
-0.384399	
-0.385925	
-0.387268	
-0.38623	
-0.385132	
-0.385803	
-0.384705	
-0.386292	
-0.387756	
-0.386047	
-0.386536	
-0.386169	
-0.387268	
-0.386475	
-0.387878	
-0.386414	
-0.386597	
-0.38623	
-0.386658	
-0.387329	
-0.387207	
-0.386658	
-0.386963	
-0.386292	
-0.388123	
-0.388	
-0.388306	
-0.387573	
-0.388245	
-0.387207	
-0.388855	
-0.390076	
-0.388916	
-0.389038	
-0.388672	
-0.389893	
-0.389648	
-0.391174	
-0.389771	
-0.390442	
-0.390442	
-0.391174	
-0.392517	
-0.392395	
-0.392029	
-0.391968	
-0.391357	
-0.392029	
-0.392761	
-0.392151	
-0.391541	
-0.39209	
-0.391418	
-0.392334	
-0.393066	
-0.391663	
-0.392151	
-0.39032	
-0.391724	
-0.391724	
-0.392761	
-0.391235	
-0.391235	
-0.391174	
-0.388245	
-0.386047	
-0.38385	
-0.384277	
-0.383911	
-0.384338	
-0.388245	
-0.391418	
-0.391785	
-0.391296	
-0.390991	
-0.390869	
-0.391296	
-0.391418	
-0.390564	
-0.390686	
-0.389282	
-0.391296	
-0.390198	
-0.390747	
-0.389465	
-0.389771	
-0.388916	
-0.389099	
-0.39032	
-0.389587	
-0.388733	
-0.388794	
-0.389771	
-0.388977	
-0.389587	
-0.388367	
-0.388184	
-0.388123	
-0.388245	
-0.389465	
-0.389343	
-0.388306	
-0.388184	
-0.386353	
-0.388611	
-0.388367	
-0.38855	
-0.387451	
-0.386963	
-0.386047	
-0.387695	
-0.38916	
-0.387268	
-0.387695	
-0.387878	
-0.389099	
-0.390137	
-0.391663	
-0.393616	
-0.395874	
-0.398438	
-0.401611	
-0.406189	
-0.409546	
-0.413757	
-0.417114	
-0.421936	
-0.425964	
-0.430054	
-0.433105	
-0.438843	
-0.441528	
-0.446533	
-0.454163	
-0.458801	
-0.46582	
-0.473206	
-0.483582	
-0.49292	
-0.50293	
-0.51123	
-0.519409	
-0.526611	
-0.533081	
-0.5401	
-0.542725	
-0.545288	
-0.546143	
-0.547241	
-0.547241	
-0.546631	
-0.545776	
-0.541626	
-0.539612	
-0.537598	
-0.535706	
-0.531982	
-0.528625	
-0.525696	
-0.520142	
-0.518677	
-0.513428	
-0.508606	
-0.502991	
-0.498657	
-0.494507	
-0.489929	
-0.486633	
-0.481262	
-0.478149	
-0.474365	
-0.471863	
-0.468933	
-0.465637	
-0.461121	
-0.456665	
-0.453491	
-0.449707	
-0.447998	
-0.444214	
-0.440491	
-0.436768	
-0.434998	
-0.433228	
-0.428406	
-0.423401	
-0.42157	
-0.420837	
-0.421143	
-0.423096	
-0.42804	
-0.430786	
-0.431519	
-0.43042	
-0.430969	
-0.430115	
-0.428345	
-0.426453	
-0.4245	
-0.423035	
-0.419861	
-0.418945	
-0.415039	
-0.411682	
-0.407104	
-0.40332	
-0.399109	
-0.393921	
-0.388062	
-0.380676	
-0.374329	
-0.367981	
-0.361389	
-0.354126	
-0.345398	
-0.337891	
-0.329285	
-0.325989	
-0.319092	
-0.313416	
-0.307739	
-0.303284	
-0.299316	
-0.294495	
-0.293884	
-0.289063	
-0.286377	
-0.284119	
-0.283752	
-0.282837	
-0.283386	
-0.283936	
-0.285583	
-0.288513	
-0.290527	
-0.295959	
-0.298767	
-0.303284	
-0.30658	
-0.311462	
-0.315491	
-0.319031	
-0.323303	
-0.327209	
-0.332642	
-0.336548	
-0.342957	
-0.347229	
-0.352173	
-0.35614	
-0.363403	
-0.368408	
-0.373474	
-0.378479	
-0.384888	
-0.391235	
-0.398804	
-0.40625	
-0.414429	
-0.421204	
-0.428467	
-0.4375	
-0.445068	
-0.45166	
-0.457275	
-0.464478	
-0.470459	
-0.475769	
-0.479004	
-0.481934	
-0.483826	
-0.48468	
-0.48584	
-0.486511	
-0.485962	
-0.484131	
-0.481995	
-0.481384	
-0.47937	
-0.476257	
-0.473206	
-0.469177	
-0.466125	
-0.463928	
-0.461365	
-0.457825	
-0.454346	
-0.451294	
-0.44928	
-0.44519	
-0.443359	
-0.438599	
-0.434326	
-0.429138	
-0.42688	
-0.42334	
-0.418213	
-0.41394	
-0.40979	
-0.406677	
-0.403748	
-0.402344	
-0.398071	
-0.396729	
-0.395935	
-0.394165	
-0.393677	
-0.39325	
-0.39209	
-0.390381	
-0.388428	
-0.388123	
-0.386719	
-0.386047	
-0.384155	
-0.382385	
-0.378723	
-0.377197	
-0.374207	
-0.36969	
-0.365417	
-0.360046	
-0.354553	
-0.348206	
-0.342529	
-0.333435	
-0.324707	
-0.316284	
-0.307556	
-0.298401	
-0.290222	
-0.283875	
-0.276245	
-0.270813	
-0.267334	
-0.265015	
-0.263428	
-0.262024	
-0.261353	
-0.262024	
-0.263733	
-0.265442	
-0.268127	
-0.27063	
-0.273682	
-0.277893	
-0.282166	
-0.286316	
-0.289734	
-0.294006	
-0.298401	
-0.303223	
-0.307434	
-0.311035	
-0.313965	
-0.317993	
-0.320679	
-0.323608	
-0.325623	
-0.328064	
-0.329407	
-0.331726	
-0.334473	
-0.335022	
-0.33667	
-0.337219	
-0.338257	
-0.338318	
-0.340637	
-0.340271	
-0.340454	
-0.340088	
-0.34137	
-0.342468	
-0.341248	
-0.341797	
-0.342285	
-0.343201	
-0.341797	
-0.344604	
-0.344238	
-0.344543	
-0.34552	
-0.346069	
-0.3479	
-0.3479	
-0.348267	
-0.348877	
-0.349731	
-0.349915	
-0.352478	
-0.352051	
-0.353271	
-0.35437	
-0.354553	
-0.355896	
-0.355713	
-0.35614	
-0.356018	
-0.357117	
-0.356506	
-0.359619	
-0.358704	
-0.359253	
-0.359802	
-0.359192	
-0.360962	
-0.360657	
-0.361206	
-0.360535	
-0.361572	
-0.361328	
-0.363647	
-0.362488	
-0.363403	
-0.364014	
-0.363525	
-0.365662	
-0.36499	
-0.365601	
-0.365601	
-0.36615	
-0.365784	
-0.36853	
-0.36792	
-0.367981	
-0.368469	
-0.367676	
-0.370178	
-0.369202	
-0.369263	
-0.369751	
-0.3703	
-0.369568	
-0.371948	
-0.371887	
-0.371887	
-0.372498	
-0.371765	
-0.373108	
-0.372559	
-0.372986	
-0.372986	
-0.37323	
-0.373169	
-0.373962	
-0.374268	
-0.37384	
-0.374756	
-0.374329	
-0.374084	
-0.374451	
-0.374939	
-0.374878	
-0.374573	
-0.373962	
-0.37616	
-0.376282	
-0.375671	
-0.377075	
-0.375854	
-0.376892	
-0.377319	
-0.376831	
-0.377014	
-0.377136	
-0.377258	
-0.378052	
-0.377747	
-0.377869	
-0.37793	
-0.376038	
-0.378052	
-0.378113	
-0.377991	
-0.377686	
-0.377075	
-0.378784	
-0.378662	
-0.378174	
-0.378357	
-0.377075	
-0.37793	
-0.379211	
-0.377869	
-0.377686	
-0.377563	
-0.377991	
-0.378479	
-0.378967	
-0.378296	
-0.378296	
-0.377686	
-0.378723	
-0.379883	
-0.378479	
-0.378662	
-0.377991	
-0.379639	
-0.379639	
-0.379883	
-0.380066	
-0.380066	
-0.379822	
-0.381287	
-0.38092	
-0.380798	
-0.380981	
-0.379211	
-0.380676	
-0.381165	
-0.380127	
-0.380066	
-0.379822	
-0.37915	
-0.379395	
-0.378357	
-0.378235	
-0.378296	
-0.376465	
-0.377441	
-0.378601	
-0.37738	
-0.377197	
-0.377319	
-0.376709	
-0.377502	
-0.376648	
-0.376526	
-0.376038	
-0.374756	
-0.377197	
-0.377502	
-0.377197	
-0.377563	
-0.378418	
-0.377747	
-0.378113	
-0.378784	
-0.378601	
-0.378845	
-0.377136	
-0.379517	
-0.379822	
-0.380005	
-0.380005	
-0.380005	
-0.378601	
-0.380676	
-0.382141	
-0.379883	
-0.381165	
-0.380554	
-0.381714	
-0.381958	
-0.38208	
-0.381958	
-0.38269	
-0.381287	
-0.383728	
-0.384949	
-0.383057	
-0.384583	
-0.385315	
-0.385254	
-0.385803	
-0.387329	
-0.385864	
-0.386658	
-0.385559	
-0.38678	
-0.388	
-0.387512	
-0.387512	
-0.387024	
-0.386475	
-0.387756	
-0.388855	
-0.386597	
-0.387024	
-0.386047	
-0.386414	
-0.386841	
-0.386292	
-0.386169	
-0.385864	
-0.386047	
-0.386841	
-0.387756	
-0.386414	
-0.386597	
-0.385925	
-0.386902	
-0.387451	
-0.387146	
-0.38623	
-0.386108	
-0.386292	
-0.38623	
-0.386414	
-0.385925	
-0.386597	
-0.386169	
-0.38562	
-0.386658	
-0.385986	
-0.386169	
-0.385559	
-0.385681	
-0.386963	
-0.386841	
-0.386597	
-0.386292	
-0.385193	
-0.385803	
-0.386658	
-0.386169	
-0.386292	
-0.385803	
-0.385925	
-0.387573	
-0.386353	
-0.38623	
-0.385742	
-0.386047	
-0.38739	
-0.388123	
-0.387207	
-0.387512	
-0.386902	
-0.38678	
-0.38855	
-0.38739	
-0.387878	
-0.387695	
-0.387268	
-0.388123	
-0.388611	
-0.387695	
-0.388	
-0.387756	
-0.387634	
-0.389526	
-0.38739	
-0.387268	
-0.386902	
-0.38623	
-0.386658	
-0.387024	
-0.38562	
-0.385864	
-0.384949	
-0.384949	
-0.38623	
-0.385559	
-0.385132	
-0.385071	
-0.384338	
-0.384583	
-0.38562	
-0.38385	
-0.384033	
-0.383728	
-0.384338	
-0.384644	
-0.385071	
-0.384644	
-0.38446	
-0.384949	
-0.384583	
-0.38501	
-0.384705	
-0.385681	
-0.385132	
-0.384888	
-0.384583	
-0.385986	
-0.38501	
-0.384949	
-0.385132	
-0.385315	
-0.385498	
-0.385132	
-0.386414	
-0.385071	
-0.384338	
-0.38501	
-0.387085	
-0.386047	
-0.385986	
-0.385498	
-0.386475	
-0.386475	
-0.387329	
-0.387512	
-0.386902	
-0.386475	
-0.387146	
-0.388733	
-0.388184	
-0.38855	
-0.388306	
-0.387878	
-0.388672	
-0.389832	
-0.388794	
-0.389465	
-0.389771	
-0.390808	
-0.39032	
-0.391052	
-0.391052	
-0.391418	
-0.390808	
-0.391663	
-0.392273	
-0.389771	
-0.391602	
-0.391113	
-0.391418	
-0.391296	
-0.391724	
-0.392212	
-0.391296	
-0.389832	
-0.391357	
-0.391785	
-0.390076	
-0.391785	
-0.391418	
-0.391418	
-0.391602	
-0.392578	
-0.391602	
-0.390747	
-0.390686	
-0.390625	
-0.391235	
-0.390381	
-0.390869	
-0.391113	
-0.390869	
-0.390808	
-0.39209	
-0.390686	
-0.391113	
-0.390747	
-0.39032	
-0.390991	
-0.389954	
-0.390381	
-0.389404	
-0.388489	
-0.389282	
-0.38916	
-0.388916	
-0.388977	
-0.389282	
-0.388916	
-0.389465	
-0.388428	
-0.388977	
-0.388733	
-0.38739	
-0.388611	
-0.388611	
-0.388855	
-0.388428	
-0.388672	
-0.388123	
-0.388916	
-0.388367	
-0.386841	
-0.388123	
-0.386719	
-0.38739	
-0.387268	
-0.387939	
-0.387451	
-0.38739	
-0.38623	
-0.387085	
-0.387573	
-0.386292	
-0.38739	
-0.38678	
-0.386841	
-0.387146	
-0.388306	
-0.387146	
-0.386475	
-0.386902	
-0.386963	
-0.387085	
-0.386536	
-0.386719	
-0.386841	
-0.386475	
-0.387512	
-0.387024	
-0.38739	
-0.387268	
-0.387329	
-0.387329	
-0.387695	
-0.387268	
-0.386169	
-0.388245	
-0.387329	
-0.387512	
-0.388184	
-0.388	
-0.388245	
-0.388489	
-0.388123	
-0.388916	
-0.388794	
-0.388367	
-0.389282	
-0.388672	
-0.389587	
-0.389343	
-0.390137	
-0.389282	
-0.38916	
-0.388977	
-0.389648	
-0.389282	
-0.389587	
-0.389709	
-0.388062	
-0.389648	
-0.389954	
-0.390198	
-0.38916	
-0.389404	
-0.388367	
-0.389099	
-0.388367	
-0.388184	
-0.387634	
-0.387756	
-0.388	
-0.389282	
-0.388977	
-0.389771	
-0.389893	
-0.389709	
-0.391846	
-0.391846	
-0.391724	
-0.391357	
-0.392578	
-0.392578	
-0.3927	
-0.393494	
-0.393433	
-0.393738	
-0.393433	
-0.393127	
-0.394592	
-0.393921	
-0.393127	
-0.394409	
-0.394104	
-0.394409	
-0.394836	
-0.39502	
-0.394226	
-0.393555	
-0.393616	
-0.393616	
-0.39325	
-0.393066	
-0.391968	
-0.392395	
-0.392761	
-0.393127	
-0.393066	
-0.392151	
-0.392151	
-0.392578	
-0.393127	
-0.391846	
-0.391785	
-0.391418	
-0.389893	
-0.391418	
-0.390991	
-0.39093	
-0.390747	
-0.39032	
-0.388367	
-0.390137	
-0.389832	
-0.388611	
-0.388123	
-0.387756	
-0.388245	
-0.38739	
-0.387329	
-0.387085	
-0.387573	
-0.386902	
-0.386658	
-0.388245	
-0.387207	
-0.386902	
-0.387207	
-0.387146	
-0.387451	
-0.388733	
-0.388733	
-0.388184	
-0.387512	
-0.387756	
-0.388611	
-0.388184	
-0.388062	
-0.387878	
-0.388489	
-0.387878	
-0.388123	
-0.389038	
-0.388184	
-0.388123	
-0.388245	
-0.389221	
-0.389038	
-0.388794	
-0.388611	
-0.388489	
-0.388855	
-0.389465	
-0.388916	
-0.389221	
-0.38916	
-0.38855	
-0.390381	
-0.389771	
-0.389282	
-0.389404	
-0.38855	
-0.388977	
-0.38916	
-0.390198	
-0.389221	
-0.389587	
-0.389771	
-0.389771	
-0.390808	
-0.390076	
-0.390503	
-0.389648	
-0.390259	
-0.390198	
-0.390625	
-0.389893	
-0.389954	
-0.389282	
-0.388123	
-0.39032	
-0.388428	
-0.388367	
-0.387756	
-0.388367	
-0.388611	
-0.388855	
-0.389038	
-0.388855	
-0.388306	
-0.387207	
-0.389709	
-0.388	
-0.387878	
-0.388245	
-0.389893	
-0.389282	
-0.390076	
-0.39093	
-0.390625	
-0.390198	
-0.390198	
-0.391235	
-0.390564	
-0.391541	
-0.391174	
-0.391907	
-0.391663	
-0.392151	
-0.392761	
-0.391907	
-0.391907	
-0.39209	
-0.392578	
-0.392639	
-0.392517	
-0.39209	
-0.390869	
-0.392273	
-0.3927	
-0.392395	
-0.392334	
-0.392151	
-0.391785	
-0.391541	
-0.393921	
-0.391724	
-0.391907	
-0.391724	
-0.391785	
-0.391663	
-0.391663	
-0.391968	
-0.391602	
-0.391663	
-0.390015	
-0.3927	
-0.391479	
-0.391541	
-0.390747	
-0.391846	
-0.391113	
-0.390869	
-0.391968	
-0.390686	
-0.391113	
-0.389771	
-0.390381	
-0.390015	
-0.389771	
-0.389648	
-0.387634	
-0.388916	
-0.388733	
-0.390015	
-0.389038	
-0.389099	
-0.388489	
-0.388916	
-0.389648	
-0.387695	
-0.386841	
-0.387024	
-0.386902	
-0.386414	
-0.386841	
-0.385742	
-0.386414	
-0.385803	
-0.385498	
-0.387512	
-0.386536	
-0.386353	
-0.386902	
-0.387329	
-0.386597	
-0.386658	
-0.386902	
-0.386597	
-0.386475	
-0.385437	
-0.387573	
-0.387939	
-0.386902	
-0.38623	
-0.385132	
-0.387207	
-0.38678	
-0.387695	
-0.386597	
-0.387512	
-0.38678	
-0.387268	
-0.389099	
-0.387634	
-0.387817	
-0.386841	
-0.387573	
-0.387329	
-0.388489	
-0.387512	
-0.387878	
-0.387634	
-0.388062	
-0.389526	
-0.38855	
-0.388977	
-0.388977	
-0.389709	
-0.388916	
-0.390015	
-0.389648	
-0.389709	
-0.388916	
-0.389282	
-0.390015	
-0.389709	
-0.389648	
-0.389893	
-0.388428	
-0.390198	
-0.390686	
-0.390564	
-0.390503	
-0.390503	
-0.391357	
-0.390381	
-0.391846	
-0.390625	
-0.39093	
-0.390076	
-0.390808	
-0.391296	
-0.391174	
-0.391724	
-0.390808	
-0.390015	
-0.39032	
-0.392822	
-0.391541	
-0.391235	
-0.391052	
-0.391479	
-0.391724	
-0.391968	
-0.391174	
-0.391541	
-0.391296	
-0.391785	
-0.392273	
-0.391602	
-0.391663	
-0.391296	
-0.391541	
-0.391724	
-0.392395	
-0.391296	
-0.391235	
-0.390564	
-0.391113	
-0.39093	
-0.391296	
-0.391174	
-0.391113	
-0.389526	
-0.390198	
-0.390503	
-0.390015	
-0.39032	
-0.390015	
-0.389587	
-0.389038	
-0.391174	
-0.39032	
-0.389587	
-0.388733	
-0.389648	
-0.389282	
-0.389526	
-0.388977	
-0.389709	
-0.388306	
-0.389404	
-0.390381	
-0.389587	
-0.389404	
-0.389282	
-0.390442	
-0.390686	
-0.391113	
-0.390625	
-0.390442	
-0.389771	
-0.390259	
-0.390137	
-0.390747	
-0.389954	
-0.389954	
-0.387573	
-0.388306	
-0.388489	
-0.387878	
-0.387329	
-0.387512	
-0.38678	
-0.386963	
-0.387939	
-0.386108	
-0.386353	
-0.385254	
-0.386047	
-0.385193	
-0.384766	
-0.384583	
-0.384521	
-0.384521	
-0.385437	
-0.385132	
-0.385498	
-0.385315	
-0.38446	
-0.385437	
-0.385559	
-0.385986	
-0.385376	
-0.386658	
-0.38501	
-0.386414	
-0.385681	
-0.387024	
-0.386597	
-0.386902	
-0.385437	
-0.387329	
-0.387573	
-0.387329	
-0.38739	
-0.386108	
-0.387512	
-0.387939	
-0.389343	
-0.387878	
-0.388489	
-0.388062	
-0.389587	
-0.389709	
-0.390137	
-0.390259	
-0.390137	
-0.390808	
-0.391113	
-0.392273	
-0.391418	
-0.392212	
-0.391602	
-0.391113	
-0.392395	
-0.392395	
-0.392273	
-0.392456	
-0.392822	
-0.392517	
-0.391907	
-0.393066	
-0.391785	
-0.391052	
-0.389771	
-0.39209	
-0.392029	
-0.391602	
-0.391235	
-0.390137	
-0.390991	
-0.391235	
-0.392212	
-0.390991	
-0.391296	
-0.391235	
-0.391724	
-0.391663	
-0.390991	
-0.390808	
-0.390137	
-0.390381	
-0.39032	
-0.39032	
-0.390564	
-0.389832	
-0.390076	
-0.388733	
-0.390991	
-0.389832	
-0.390259	
-0.388977	
-0.389893	
-0.389648	
-0.389343	
-0.391357	
-0.390076	
-0.389587	
-0.388184	
-0.391052	
-0.389648	
-0.389709	
-0.390198	
-0.388367	
-0.389648	
-0.389587	
-0.391113	
-0.389587	
-0.389832	
-0.389954	
-0.39032	
-0.390808	
-0.390686	
-0.390564	
-0.390442	
-0.39032	
-0.391052	
-0.391052	
-0.391479	
-0.390869	
-0.391174	
-0.390259	
-0.390503	
-0.390686	
-0.390991	
-0.389587	
-0.390076	
-0.390869	
-0.390198	
-0.391357	
-0.389648	
-0.389038	
-0.388062	
-0.389221	
-0.388733	
-0.388306	
-0.388672	
-0.387268	
-0.387695	
-0.387573	
-0.388977	
-0.388	
-0.387573	
-0.386597	
-0.386353	
-0.387756	
-0.387085	
-0.387512	
-0.386414	
-0.38739	
-0.386414	
-0.387268	
-0.387817	
-0.387512	
-0.386841	
-0.386536	
-0.388733	
-0.388	
-0.387817	
-0.387024	
-0.387024	
-0.387512	
-0.387634	
-0.38855	
-0.387634	
-0.387573	
-0.386963	
-0.388062	
-0.388306	
-0.388062	
-0.388184	
-0.38739	
-0.388611	
-0.387817	
-0.389343	
-0.389282	
-0.38916	
-0.388916	
-0.388611	
-0.390625	
-0.389587	
-0.391052	
-0.388916	
-0.390198	
-0.390198	
-0.39093	
-0.391846	
-0.390808	
-0.391052	
-0.390259	
-0.393188	
-0.391785	
-0.393005	
-0.392639	
-0.392456	
-0.393066	
-0.392944	
-0.394287	
-0.39325	
-0.393799	
-0.392883	
-0.393433	
-0.394043	
-0.393799	
-0.39325	
-0.392639	
-0.393616	
-0.392822	
-0.393921	
-0.39325	
-0.393188	
-0.393066	
-0.391785	
-0.393616	
-0.393066	
-0.393555	
-0.392517	
-0.392578	
-0.392761	
-0.392883	
-0.393799	
-0.39209	
-0.392151	
-0.391724	
-0.39325	
-0.392944	
-0.392334	
-0.392883	
-0.391357	
-0.392151	
-0.391663	
-0.393372	
-0.391968	
-0.391541	
-0.391479	
-0.391357	
-0.392273	
-0.39093	
-0.391357	
-0.389648	
-0.391052	
-0.390564	
-0.391174	
-0.390137	
-0.390625	
-0.389832	
-0.388733	
-0.391541	
-0.391113	
-0.39093	
-0.390015	
-0.389465	
-0.390564	
-0.390259	
-0.391235	
-0.390259	
-0.389832	
-0.38916	
-0.389221	
-0.390076	
-0.389404	
-0.389404	
-0.388062	
-0.389221	
-0.388306	
-0.389893	
-0.388733	
-0.38855	
-0.388184	
-0.388672	
-0.390442	
-0.388611	
-0.389771	
-0.388306	
-0.387939	
-0.387695	
-0.38916	
-0.388916	
-0.388123	
-0.388428	
-0.385864	
-0.388855	
-0.388733	
-0.389526	
-0.388733	
-0.388184	
-0.388428	
-0.388794	
-0.390503	
-0.388855	
-0.38855	
-0.388184	
-0.389404	
-0.390442	
-0.389648	
-0.38916	
-0.388184	
-0.389832	
-0.389404	
-0.390747	
-0.390137	
-0.390015	
-0.390137	
-0.389465	
-0.391663	
-0.391113	
-0.391907	
-0.390808	
-0.390076	
-0.390381	
-0.391541	
-0.391785	
-0.390686	
-0.390686	
-0.390381	
-0.391296	
-0.391479	
-0.391174	
-0.390564	
-0.388977	
-0.390137	
-0.389893	
-0.390564	
-0.389648	
-0.39032	
-0.389893	
-0.389465	
-0.391479	
-0.390808	
-0.390381	
-0.390747	
-0.391541	
-0.392212	
-0.393372	
-0.394104	
-0.393494	
-0.393127	
-0.393127	
-0.394226	
-0.394287	
-0.394104	
-0.39447	
-0.393738	
-0.39447	
-0.395935	
-0.396179	
-0.395996	
-0.394958	
-0.39386	
-0.395081	
-0.396057	
-0.39563	
-0.394592	
-0.393311	
-0.394348	
-0.395264	
-0.395142	
-0.394104	
-0.394043	
-0.393616	
-0.39325	
-0.395203	
-0.39386	
-0.393555	
-0.392944	
-0.392456	
-0.39209	
-0.393433	
-0.393616	
-0.392517	
-0.392273	
-0.391846	
-0.393127	
-0.392212	
-0.392334	
-0.391113	
-0.390686	
-0.390625	
-0.390442	
-0.390747	
-0.389099	
-0.389221	
-0.388184	
-0.389099	
-0.389221	
-0.38916	
-0.388245	
-0.387085	
-0.388367	
-0.387451	
-0.388916	
-0.388245	
-0.388367	
-0.388428	
-0.388123	
-0.389709	
-0.389221	
-0.389893	
-0.389465	
-0.387695	
-0.38916	
-0.389038	
-0.389832	
-0.389709	
-0.389832	
-0.388306	
-0.389221	
-0.390381	
-0.389465	
-0.388794	
-0.388733	
-0.389648	
-0.389526	
-0.390747	
-0.389771	
-0.389465	
-0.389282	
-0.389221	
-0.390442	
-0.389954	
-0.390747	
-0.38916	
-0.389893	
-0.390015	
-0.391357	
-0.391052	
-0.389832	
-0.389404	
-0.390442	
-0.391602	
-0.39093	
-0.390869	
-0.390564	
-0.390503	
-0.391418	
-0.391602	
-0.391724	
-0.391907	
-0.391174	
-0.390503	
-0.391479	
-0.391602	
-0.391479	
-0.390564	
-0.389648	
-0.389526	
-0.389465	
-0.390259	
-0.389771	
-0.389648	
-0.389038	
-0.389343	
-0.390625	
-0.389771	
-0.390137	
-0.38855	
-0.389221	
-0.389709	
-0.390869	
-0.390869	
-0.390442	
-0.390503	
-0.390564	
-0.392273	
-0.391968	
-0.391724	
-0.391296	
-0.391174	
-0.392151	
-0.391907	
-0.393127	
-0.392212	
-0.393005	
-0.392944	
-0.393616	
-0.39386	
-0.393555	
-0.394287	
-0.393066	
-0.393677	
-0.393677	
-0.394043	
-0.394043	
-0.394043	
-0.392395	
-0.393311	
-0.394714	
-0.393677	
-0.394104	
-0.392883	
-0.393372	
-0.393311	
-0.394043	
-0.393494	
-0.393188	
-0.393066	
-0.392944	
-0.393738	
-0.392944	
-0.393311	
-0.393005	
-0.392273	
-0.3927	
-0.392273	
-0.393311	
-0.393433	
-0.392273	
-0.391785	
-0.391846	
-0.393188	
-0.391846	
-0.392456	
-0.390381	
-0.392029	
-0.39093	
-0.391846	
-0.391357	
-0.390686	
-0.390381	
-0.39093	
-0.391785	
-0.390381	
-0.390259	
-0.389771	
-0.388977	
-0.389282	
-0.388489	
-0.38855	
-0.387817	
-0.387573	
-0.387878	
-0.387207	
-0.388977	
-0.388489	
-0.388	
-0.387329	
-0.387512	
-0.388489	
-0.388428	
-0.388489	
-0.388	
-0.38739	
-0.388306	
-0.389038	
-0.388184	
-0.388428	
-0.387451	
-0.387939	
-0.388306	
-0.388611	
-0.388428	
-0.388245	
-0.388306	
-0.38855	
-0.388489	
-0.388245	
-0.389099	
-0.388367	
-0.388428	
-0.388672	
-0.389221	
-0.389038	
-0.389893	
-0.389099	
-0.388611	
-0.389954	
-0.390259	
-0.389893	
-0.389709	
-0.389038	
-0.390625	
-0.390442	
-0.391602	
-0.391418	
-0.390991	
-0.390442	
-0.391235	
-0.392029	
-0.391052	
-0.391479	
-0.390808	
-0.39093	
-0.391479	
-0.391357	
-0.392029	
-0.391602	
-0.391907	
-0.392456	
-0.3927	
-0.392944	
-0.3927	
-0.392944	
-0.391968	
-0.392517	
-0.393066	
-0.393738	
-0.392883	
-0.392944	
-0.392395	
-0.393677	
-0.393188	
-0.392517	
-0.393311	
-0.392273	
-0.393188	
-0.392578	
-0.393616	
-0.393555	
-0.393494	
-0.392944	
-0.393311	
-0.393555	
-0.393738	
-0.393677	
-0.392883	
-0.393433	
-0.393372	
-0.392517	
-0.393372	
-0.394226	
-0.393127	
-0.39209	
-0.393738	
-0.392944	
-0.392883	
-0.392883	
-0.391785	
-0.392883	
-0.392517	
-0.392761	
-0.392029	
-0.392273	
-0.392334	
-0.392456	
-0.391113	
-0.391663	
-0.391479	
-0.391113	
-0.391296	
-0.391357	
-0.391052	
-0.391418	
-0.391174	
-0.390991	
-0.390991	
-0.391541	
-0.391357	
-0.391357	
-0.39093	
-0.391663	
-0.391479	
-0.391418	
-0.392639	
-0.393433	
-0.392456	
-0.391174	
-0.392822	
-0.392578	
-0.392883	
-0.392578	
-0.391785	
-0.391907	
-0.391357	
-0.391541	
-0.391113	
-0.390076	
-0.389709	
-0.389832	
-0.389954	
-0.389282	
-0.388611	
-0.386536	
-0.387817	
-0.388	
-0.386963	
-0.388062	
-0.387268	
-0.387085	
-0.385925	
-0.388	
-0.386902	
-0.387085	
-0.387268	
-0.386963	
	
