E:\DOCUMENTS AND SETTINGS\JPOTAS\MEUS DOCUMENTOS\UFRJ\RSCI-BM 12 WK SERIES\070727-RSCI-BM-05\RSCI-BM-05-LEMG\070727-RSCI-BM-05-LEMG-0011.ACQ
0.025000 msec/sample
1 channel
Analog input
Volts
CH1	
2000	
-0.387329	
-0.388672	
-0.387024	
-0.387512	
-0.386963	
-0.386475	
-0.38739	
-0.387451	
-0.386719	
-0.38562	
-0.386597	
-0.386841	
-0.386841	
-0.388	
-0.387207	
-0.386841	
-0.38623	
-0.387451	
-0.386902	
-0.386475	
-0.385925	
-0.38562	
-0.385864	
-0.387634	
-0.388611	
-0.387329	
-0.387573	
-0.387451	
-0.387756	
-0.388184	
-0.387695	
-0.387512	
-0.387268	
-0.386597	
-0.387085	
-0.387268	
-0.387878	
-0.387024	
-0.386963	
-0.386536	
-0.387878	
-0.387573	
-0.387329	
-0.386902	
-0.386047	
-0.385376	
-0.386963	
-0.387329	
-0.387329	
-0.386597	
-0.386597	
-0.385925	
-0.387329	
-0.387146	
-0.386475	
-0.386108	
-0.386536	
-0.386169	
-0.387207	
-0.387695	
-0.387085	
-0.386902	
-0.386536	
-0.38855	
-0.388672	
-0.388184	
-0.387878	
-0.387817	
-0.387695	
-0.388855	
-0.389771	
-0.390137	
-0.38916	
-0.389404	
-0.388794	
-0.390503	
-0.390442	
-0.389587	
-0.388977	
-0.388428	
-0.389648	
-0.388916	
-0.390564	
-0.389343	
-0.389709	
-0.389282	
-0.389221	
-0.391357	
-0.391174	
-0.391235	
-0.391052	
-0.390991	
-0.392151	
-0.393066	
-0.393127	
-0.39209	
-0.391907	
-0.392029	
-0.391968	
-0.391541	
-0.391052	
-0.390198	
-0.388794	
-0.388855	
-0.389832	
-0.389893	
-0.388611	
-0.387634	
-0.38739	
-0.387146	
-0.387634	
-0.388	
-0.38678	
-0.385498	
-0.386475	
-0.386963	
-0.386902	
-0.387146	
-0.386353	
-0.386108	
-0.385559	
-0.387756	
-0.387207	
-0.386719	
-0.387207	
-0.386536	
-0.38739	
-0.387634	
-0.388977	
-0.388123	
-0.387817	
-0.387268	
-0.387878	
-0.388428	
-0.388794	
-0.388428	
-0.388367	
-0.387329	
-0.38855	
-0.38916	
-0.389099	
-0.389221	
-0.388916	
-0.388489	
-0.390381	
-0.390869	
-0.391052	
-0.390442	
-0.389526	
-0.390137	
-0.391602	
-0.392395	
-0.392151	
-0.39209	
-0.392883	
-0.392151	
-0.394043	
-0.394287	
-0.393799	
-0.393616	
-0.392517	
-0.393372	
-0.39386	
-0.394409	
-0.393311	
-0.392517	
-0.391907	
-0.39325	
-0.394104	
-0.392273	
-0.392029	
-0.391418	
-0.390015	
-0.391724	
-0.392456	
-0.391724	
-0.391724	
-0.390808	
-0.390259	
-0.391602	
-0.392639	
-0.391235	
-0.39093	
-0.389771	
-0.391602	
-0.391663	
-0.391541	
-0.391418	
-0.390686	
-0.389893	
-0.391052	
-0.392822	
-0.391296	
-0.390991	
-0.390991	
-0.390808	
-0.39209	
-0.389343	
-0.385437	
-0.384827	
-0.384644	
-0.384033	
-0.385132	
-0.391602	
-0.391357	
-0.391418	
-0.390747	
-0.391541	
-0.391602	
-0.391907	
-0.390808	
-0.390564	
-0.389893	
-0.39032	
-0.390747	
-0.391113	
-0.390625	
-0.390259	
-0.388855	
-0.390564	
-0.391602	
-0.391113	
-0.390503	
-0.39032	
-0.390503	
-0.391174	
-0.392273	
-0.390442	
-0.390808	
-0.390015	
-0.390564	
-0.391174	
-0.391785	
-0.391418	
-0.391418	
-0.390137	
-0.390686	
-0.3927	
-0.392883	
-0.391357	
-0.391785	
-0.390625	
-0.391724	
-0.392395	
-0.392151	
-0.391357	
-0.391113	
-0.391235	
-0.39209	
-0.393677	
-0.394592	
-0.396301	
-0.398071	
-0.399536	
-0.403992	
-0.406738	
-0.409973	
-0.413818	
-0.417419	
-0.420776	
-0.42749	
-0.430481	
-0.43396	
-0.437866	
-0.442566	
-0.448608	
-0.453552	
-0.458618	
-0.464722	
-0.46875	
-0.474365	
-0.485046	
-0.49231	
-0.50116	
-0.508362	
-0.519897	
-0.528015	
-0.534119	
-0.536926	
-0.537415	
-0.538391	
-0.538269	
-0.539368	
-0.536621	
-0.534851	
-0.532043	
-0.529846	
-0.527954	
-0.525269	
-0.522583	
-0.518799	
-0.515137	
-0.511047	
-0.507568	
-0.502991	
-0.497253	
-0.492126	
-0.486694	
-0.482971	
-0.478821	
-0.474426	
-0.471191	
-0.466858	
-0.463379	
-0.460693	
-0.459839	
-0.454834	
-0.452148	
-0.448792	
-0.444519	
-0.442017	
-0.439514	
-0.435669	
-0.431702	
-0.427917	
-0.425232	
-0.424072	
-0.423462	
-0.420959	
-0.419678	
-0.41803	
-0.419312	
-0.419739	
-0.421814	
-0.421936	
-0.423218	
-0.422791	
-0.423462	
-0.425598	
-0.423828	
-0.42334	
-0.422058	
-0.421875	
-0.421631	
-0.421753	
-0.419556	
-0.417786	
-0.415283	
-0.414551	
-0.413757	
-0.411133	
-0.407959	
-0.404541	
-0.401733	
-0.398682	
-0.394958	
-0.389648	
-0.386047	
-0.38092	
-0.376709	
-0.373108	
-0.371277	
-0.367065	
-0.364319	
-0.360352	
-0.360107	
-0.358398	
-0.35675	
-0.355347	
-0.354492	
-0.354431	
-0.354553	
-0.356262	
-0.356567	
-0.35907	
-0.361267	
-0.364868	
-0.369751	
-0.374939	
-0.378479	
-0.382568	
-0.38623	
-0.39032	
-0.393555	
-0.396851	
-0.397278	
-0.397217	
-0.398804	
-0.39856	
-0.398804	
-0.397827	
-0.397705	
-0.395874	
-0.395874	
-0.396301	
-0.395813	
-0.395691	
-0.396851	
-0.397522	
-0.398682	
-0.401184	
-0.402161	
-0.402588	
-0.402771	
-0.403625	
-0.404358	
-0.403625	
-0.404053	
-0.404297	
-0.403015	
-0.402466	
-0.403503	
-0.402344	
-0.401489	
-0.400757	
-0.399048	
-0.397888	
-0.396423	
-0.395813	
-0.393372	
-0.390991	
-0.388489	
-0.388855	
-0.387878	
-0.385437	
-0.385071	
-0.383179	
-0.381531	
-0.380554	
-0.379089	
-0.376221	
-0.372925	
-0.369934	
-0.367126	
-0.36438	
-0.360901	
-0.357849	
-0.353088	
-0.348511	
-0.345642	
-0.340332	
-0.336914	
-0.330383	
-0.324219	
-0.318787	
-0.313232	
-0.306458	
-0.300171	
-0.294434	
-0.288086	
-0.282776	
-0.278503	
-0.274719	
-0.270691	
-0.267395	
-0.267151	
-0.268005	
-0.268066	
-0.269348	
-0.271484	
-0.273926	
-0.276978	
-0.281067	
-0.284607	
-0.287537	
-0.291199	
-0.295044	
-0.300659	
-0.303467	
-0.307739	
-0.311401	
-0.315552	
-0.31958	
-0.323425	
-0.32605	
-0.32843	
-0.331238	
-0.333313	
-0.336182	
-0.337585	
-0.339111	
-0.339966	
-0.341797	
-0.343201	
-0.345642	
-0.345276	
-0.346313	
-0.345947	
-0.34845	
-0.348145	
-0.348022	
-0.348816	
-0.348022	
-0.348206	
-0.348511	
-0.34967	
-0.348267	
-0.3479	
-0.346863	
-0.34845	
-0.3479	
-0.347717	
-0.34845	
-0.348572	
-0.34906	
-0.348633	
-0.351074	
-0.350464	
-0.350647	
-0.350952	
-0.353027	
-0.353516	
-0.354675	
-0.354553	
-0.355652	
-0.356506	
-0.356567	
-0.358948	
-0.358276	
-0.358459	
-0.358276	
-0.359314	
-0.359009	
-0.360046	
-0.359253	
-0.360413	
-0.360596	
-0.361572	
-0.361816	
-0.362122	
-0.361511	
-0.361145	
-0.361877	
-0.362183	
-0.362427	
-0.362	
-0.362671	
-0.363037	
-0.36438	
-0.363831	
-0.364746	
-0.363953	
-0.364685	
-0.364929	
-0.365051	
-0.36615	
-0.365601	
-0.364868	
-0.366211	
-0.368164	
-0.367249	
-0.368652	
-0.367737	
-0.36853	
-0.368958	
-0.369873	
-0.370178	
-0.369568	
-0.369507	
-0.369995	
-0.370483	
-0.370544	
-0.37085	
-0.36969	
-0.369568	
-0.371399	
-0.371887	
-0.37146	
-0.371826	
-0.371277	
-0.371277	
-0.372314	
-0.373291	
-0.372375	
-0.372559	
-0.372131	
-0.372742	
-0.372742	
-0.373169	
-0.373169	
-0.372986	
-0.373535	
-0.373169	
-0.373596	
-0.372681	
-0.37439	
-0.373596	
-0.374939	
-0.374695	
-0.375	
-0.375427	
-0.375793	
-0.376099	
-0.376831	
-0.376831	
-0.376648	
-0.378235	
-0.376404	
-0.379028	
-0.379028	
-0.378601	
-0.378052	
-0.379395	
-0.378662	
-0.379639	
-0.378479	
-0.378601	
-0.379089	
-0.37854	
-0.378296	
-0.377563	
-0.37854	
-0.377991	
-0.378662	
-0.37738	
-0.378662	
-0.377686	
-0.377869	
-0.377441	
-0.378296	
-0.377563	
-0.377197	
-0.377747	
-0.377808	
-0.378357	
-0.377075	
-0.378601	
-0.377686	
-0.378235	
-0.377441	
-0.379211	
-0.378723	
-0.378357	
-0.378906	
-0.378723	
-0.378967	
-0.377808	
-0.378113	
-0.377563	
-0.379578	
-0.378052	
-0.380066	
-0.378845	
-0.378784	
-0.379211	
-0.379944	
-0.379272	
-0.378967	
-0.379211	
-0.378967	
-0.380676	
-0.380432	
-0.381714	
-0.380798	
-0.380554	
-0.38092	
-0.381775	
-0.381958	
-0.380798	
-0.381775	
-0.381714	
-0.381958	
-0.381653	
-0.383118	
-0.382874	
-0.383545	
-0.383911	
-0.382813	
-0.38208	
-0.381836	
-0.381531	
-0.381592	
-0.382568	
-0.381409	
-0.381653	
-0.381592	
-0.381287	
-0.381226	
-0.380859	
-0.381653	
-0.381897	
-0.38092	
-0.381836	
-0.382263	
-0.380737	
-0.382202	
-0.382568	
-0.381714	
-0.382019	
-0.382263	
-0.382751	
-0.381958	
-0.38208	
-0.38147	
-0.382019	
-0.381714	
-0.382263	
-0.382629	
-0.380859	
-0.382263	
-0.382446	
-0.382996	
-0.382874	
-0.38324	
-0.382751	
-0.383606	
-0.383362	
-0.383301	
-0.383728	
-0.382019	
-0.383179	
-0.382751	
-0.383728	
-0.383179	
-0.383545	
-0.383118	
-0.383545	
-0.383057	
-0.383728	
-0.383484	
-0.381714	
-0.382996	
-0.382935	
-0.383911	
-0.38269	
-0.383179	
-0.383057	
-0.38324	
-0.382751	
-0.383057	
-0.383423	
-0.382751	
-0.38324	
-0.38324	
-0.38446	
-0.384033	
-0.384399	
-0.383606	
-0.384399	
-0.383545	
-0.384888	
-0.385376	
-0.384705	
-0.385498	
-0.385864	
-0.385681	
-0.385803	
-0.386292	
-0.384033	
-0.386536	
-0.385315	
-0.386414	
-0.387085	
-0.38678	
-0.386597	
-0.38678	
-0.387512	
-0.387024	
-0.387024	
-0.38501	
-0.386719	
-0.386414	
-0.386963	
-0.388062	
-0.387329	
-0.388245	
-0.389038	
-0.390808	
-0.389404	
-0.389832	
-0.388916	
-0.389282	
-0.389648	
-0.389038	
-0.388672	
-0.388123	
-0.387878	
-0.387451	
-0.388123	
-0.38678	
-0.386963	
-0.385803	
-0.384766	
-0.385376	
-0.384277	
-0.384338	
-0.383667	
-0.383301	
-0.383362	
-0.384338	
-0.384155	
-0.383667	
-0.384277	
-0.38269	
-0.383667	
-0.382874	
-0.383972	
-0.38385	
-0.382446	
-0.383301	
-0.384277	
-0.38562	
-0.384583	
-0.385071	
-0.383301	
-0.384644	
-0.385193	
-0.384766	
-0.385559	
-0.384827	
-0.385437	
-0.384705	
-0.386902	
-0.385925	
-0.386963	
-0.385071	
-0.386292	
-0.386292	
-0.387024	
-0.387268	
-0.386902	
-0.386841	
-0.387939	
-0.388916	
-0.388245	
-0.389221	
-0.388428	
-0.388428	
-0.389771	
-0.390015	
-0.390381	
-0.390747	
-0.390564	
-0.391052	
-0.392578	
-0.393127	
-0.391968	
-0.392151	
-0.391113	
-0.391357	
-0.392212	
-0.391785	
-0.391479	
-0.391113	
-0.390381	
-0.390869	
-0.391846	
-0.390503	
-0.390625	
-0.389099	
-0.389771	
-0.389709	
-0.389954	
-0.389709	
-0.389587	
-0.388794	
-0.389587	
-0.390747	
-0.389526	
-0.390137	
-0.389221	
-0.389282	
-0.389343	
-0.391174	
-0.389709	
-0.389832	
-0.389404	
-0.389832	
-0.390625	
-0.389282	
-0.390076	
-0.390442	
-0.389343	
-0.389832	
-0.39032	
-0.390808	
-0.389893	
-0.38916	
-0.389343	
-0.390259	
-0.389404	
-0.38916	
-0.389099	
-0.387878	
-0.389282	
-0.389343	
-0.389099	
-0.388611	
-0.388184	
-0.387146	
-0.388489	
-0.390198	
-0.388489	
-0.388855	
-0.388367	
-0.388367	
-0.388611	
-0.389099	
-0.388672	
-0.388062	
-0.387939	
-0.388672	
-0.388916	
-0.389404	
-0.388733	
-0.389282	
-0.38855	
-0.389221	
-0.389832	
-0.39032	
-0.389404	
-0.388855	
-0.389221	
-0.39032	
-0.39093	
-0.390076	
-0.390503	
-0.389099	
-0.389832	
-0.390259	
-0.389465	
-0.389526	
-0.38916	
-0.388184	
-0.388977	
-0.389038	
-0.387939	
-0.387939	
-0.388306	
-0.387329	
-0.387085	
-0.387817	
-0.385742	
-0.38562	
-0.384399	
-0.385071	
-0.385742	
-0.386536	
-0.385864	
-0.386292	
-0.38562	
-0.386841	
-0.387329	
-0.386536	
-0.387085	
-0.386475	
-0.38562	
-0.386597	
-0.387756	
-0.387146	
-0.387695	
-0.38678	
-0.386902	
-0.387634	
-0.387939	
-0.38739	
-0.387268	
-0.386536	
-0.387939	
-0.38855	
-0.388245	
-0.38855	
-0.388855	
-0.387268	
-0.388428	
-0.388611	
-0.388428	
-0.388489	
-0.38739	
-0.388367	
-0.388672	
-0.390381	
-0.388306	
-0.388794	
-0.388367	
-0.389282	
-0.389221	
-0.388672	
-0.388733	
-0.38855	
-0.388367	
-0.388672	
-0.388916	
-0.388306	
-0.388855	
-0.387939	
-0.386536	
-0.389221	
-0.388123	
-0.388672	
-0.388123	
-0.387451	
-0.388794	
-0.38855	
-0.389587	
-0.388367	
-0.388489	
-0.386414	
-0.388184	
-0.387146	
-0.387207	
-0.387085	
-0.386963	
-0.386841	
-0.388184	
-0.389893	
-0.388	
-0.388977	
-0.388245	
-0.387695	
-0.388733	
-0.389465	
-0.388733	
-0.387024	
-0.387756	
-0.388367	
-0.389465	
-0.389709	
-0.38855	
-0.388855	
-0.38855	
-0.389099	
-0.388733	
-0.38855	
-0.388062	
-0.388489	
-0.388733	
-0.388733	
-0.389832	
-0.388611	
-0.389099	
-0.387939	
-0.389771	
-0.388306	
-0.388245	
-0.387573	
-0.387939	
-0.386963	
-0.387939	
-0.38855	
-0.388123	
-0.38855	
-0.38855	
-0.387634	
-0.387878	
-0.388123	
-0.388428	
-0.38739	
-0.387878	
-0.388367	
-0.388977	
-0.389404	
-0.388611	
-0.389221	
-0.388306	
-0.389832	
-0.388794	
-0.389038	
-0.388794	
-0.388672	
-0.387756	
-0.389465	
-0.388611	
-0.389099	
-0.389099	
-0.388367	
-0.388245	
-0.388611	
-0.388489	
-0.388	
-0.387817	
-0.387695	
-0.388123	
-0.38855	
-0.387695	
-0.387024	
-0.387268	
-0.38623	
-0.386536	
-0.385803	
-0.386108	
-0.385132	
-0.385559	
-0.38446	
-0.385437	
-0.386902	
-0.385498	
-0.386108	
-0.384644	
-0.386169	
-0.385742	
-0.38623	
-0.385376	
-0.385071	
-0.385437	
-0.38501	
-0.385681	
-0.38501	
-0.384277	
-0.383728	
-0.38324	
-0.383301	
-0.382935	
-0.38269	
-0.381958	
-0.382202	
-0.382874	
-0.383911	
-0.384399	
-0.384094	
-0.385254	
-0.384583	
-0.38562	
-0.385315	
-0.386414	
-0.38623	
-0.386719	
-0.386414	
-0.387939	
-0.388855	
-0.388794	
-0.388916	
-0.388062	
-0.388306	
-0.388916	
-0.389099	
-0.388428	
-0.388	
-0.388672	
-0.388062	
-0.389465	
-0.389709	
-0.388489	
-0.38855	
-0.388062	
-0.388611	
-0.387085	
-0.388367	
-0.388	
-0.387939	
-0.386719	
-0.387939	
-0.387634	
-0.387634	
-0.387634	
-0.386597	
-0.386353	
-0.386963	
-0.387756	
-0.386658	
-0.386414	
-0.385986	
-0.386597	
-0.386414	
-0.386536	
-0.385681	
-0.385071	
-0.385132	
-0.385315	
-0.38446	
-0.384399	
-0.382996	
-0.383606	
-0.382996	
-0.383911	
-0.383423	
-0.382507	
-0.382629	
-0.381409	
-0.382568	
-0.381287	
-0.383484	
-0.383057	
-0.382568	
-0.383179	
-0.383484	
-0.383728	
-0.384155	
-0.384399	
-0.38324	
-0.383301	
-0.384583	
-0.38446	
-0.384521	
-0.38385	
-0.384216	
-0.384583	
-0.384888	
-0.383667	
-0.384155	
-0.384216	
-0.384338	
-0.384705	
-0.383606	
-0.384216	
-0.384155	
-0.38446	
-0.384033	
-0.384521	
-0.384277	
-0.384949	
-0.384583	
-0.38385	
-0.384094	
-0.383667	
-0.384644	
-0.384216	
-0.38385	
-0.383789	
-0.383667	
-0.385132	
-0.384521	
-0.384338	
-0.383606	
-0.384094	
-0.384399	
-0.384583	
-0.384583	
-0.384338	
-0.384888	
-0.384094	
-0.385498	
-0.385254	
-0.386841	
-0.385315	
-0.38446	
-0.385498	
-0.385559	
-0.385742	
-0.385071	
-0.385193	
-0.384766	
-0.385437	
-0.385071	
-0.38623	
-0.385071	
-0.384094	
-0.384338	
-0.384338	
-0.385864	
-0.384705	
-0.383667	
-0.384155	
-0.384644	
-0.384949	
-0.384827	
-0.384644	
-0.383667	
-0.383911	
-0.384338	
-0.384033	
-0.383972	
-0.383484	
-0.384094	
-0.382996	
-0.384766	
-0.386047	
-0.385437	
-0.385132	
-0.385376	
-0.385071	
-0.386536	
-0.387329	
-0.386536	
-0.386536	
-0.387878	
-0.388489	
-0.388977	
-0.389587	
-0.389221	
-0.388367	
-0.388367	
-0.387817	
-0.388428	
-0.387512	
-0.387024	
-0.38739	
-0.387512	
-0.38739	
-0.387207	
-0.388367	
-0.387268	
-0.386169	
-0.38623	
-0.386292	
-0.386169	
-0.386169	
-0.386414	
-0.385803	
-0.386475	
-0.386536	
-0.387451	
-0.386536	
-0.386047	
-0.386047	
-0.386108	
-0.386536	
-0.38623	
-0.38562	
-0.385864	
-0.385071	
-0.386475	
-0.386536	
-0.386475	
-0.385498	
-0.385193	
-0.384827	
-0.38678	
-0.386963	
-0.386353	
-0.38562	
-0.385559	
-0.386475	
-0.387451	
-0.387573	
-0.385864	
-0.385864	
-0.386597	
-0.386658	
-0.387695	
-0.386292	
-0.385681	
-0.386353	
-0.386536	
-0.386963	
-0.387939	
-0.387512	
-0.387512	
-0.38678	
-0.387329	
-0.388489	
-0.388855	
-0.387939	
-0.387451	
-0.387756	
-0.387817	
-0.388489	
-0.387512	
-0.387268	
-0.387024	
-0.38678	
-0.386719	
-0.387268	
-0.386414	
-0.385681	
-0.386658	
-0.386841	
-0.387451	
-0.387756	
-0.386841	
-0.386047	
-0.385315	
-0.387512	
-0.386841	
-0.386658	
-0.386353	
-0.386475	
-0.385742	
-0.387207	
-0.387512	
-0.38678	
-0.38623	
-0.386169	
-0.384949	
-0.386841	
-0.387634	
-0.386414	
-0.386841	
-0.387451	
-0.387207	
-0.387817	
-0.38855	
-0.387085	
-0.386963	
-0.385071	
-0.387146	
-0.387268	
-0.387085	
-0.386475	
-0.386841	
-0.385681	
-0.387512	
-0.387756	
-0.386841	
-0.386475	
-0.385803	
-0.386047	
-0.386719	
-0.38739	
-0.386658	
-0.385864	
-0.386597	
-0.386902	
-0.387573	
-0.386902	
-0.386047	
-0.386108	
-0.385254	
-0.386414	
-0.38678	
-0.386597	
-0.385803	
-0.386353	
-0.386841	
-0.387268	
-0.388672	
-0.386902	
-0.387207	
-0.386536	
-0.388428	
-0.388245	
-0.388672	
-0.387939	
-0.388428	
-0.387939	
-0.389099	
-0.390137	
-0.38916	
-0.389709	
-0.388916	
-0.388184	
-0.389282	
-0.389465	
-0.38855	
-0.388733	
-0.388855	
-0.387695	
-0.389465	
-0.390686	
-0.389954	
-0.389954	
-0.390442	
-0.391663	
-0.391113	
-0.391541	
-0.391235	
-0.391663	
-0.39093	
-0.391968	
-0.392944	
-0.391418	
-0.39032	
-0.390076	
-0.38916	
-0.389832	
-0.390198	
-0.389221	
-0.388489	
-0.388184	
-0.38739	
-0.387939	
-0.387939	
-0.38623	
-0.386047	
-0.385437	
-0.386047	
-0.386047	
-0.386353	
-0.385925	
-0.385986	
-0.385742	
-0.386047	
-0.386108	
-0.385864	
-0.385864	
-0.384705	
-0.385437	
-0.385864	
-0.387085	
-0.385315	
-0.387085	
-0.386536	
-0.386841	
-0.388184	
-0.388367	
-0.386963	
-0.387024	
-0.387512	
-0.387329	
-0.38739	
-0.387756	
-0.387695	
-0.387939	
-0.387634	
-0.388184	
-0.389404	
-0.388	
-0.388855	
-0.388916	
-0.388977	
-0.390015	
-0.390503	
-0.388916	
-0.390137	
-0.390686	
-0.391235	
-0.392456	
-0.393127	
-0.391602	
-0.392029	
-0.392334	
-0.392761	
-0.391968	
-0.392456	
-0.3927	
-0.392822	
-0.392029	
-0.392822	
-0.392395	
-0.391479	
-0.391296	
-0.392334	
-0.390015	
-0.391113	
-0.390259	
-0.390381	
-0.390015	
-0.390259	
-0.389954	
-0.390808	
-0.390991	
-0.389709	
-0.389526	
-0.390259	
-0.389954	
-0.390259	
-0.389648	
-0.390015	
-0.390076	
-0.388916	
-0.390015	
-0.389893	
-0.389648	
-0.389221	
-0.38916	
-0.388916	
-0.389648	
-0.390381	
-0.390381	
-0.390381	
-0.39032	
-0.389526	
-0.391357	
-0.391052	
-0.389893	
-0.388611	
-0.389771	
-0.389587	
-0.389709	
-0.389832	
-0.389648	
-0.389648	
-0.389221	
-0.389648	
-0.390259	
-0.388855	
-0.387878	
-0.388855	
-0.388733	
-0.389221	
-0.388855	
-0.388428	
-0.388489	
-0.38855	
-0.389709	
-0.389465	
-0.389648	
-0.38855	
-0.389099	
-0.388306	
-0.389221	
-0.389099	
-0.388733	
-0.389282	
-0.389648	
-0.389282	
-0.390503	
-0.389893	
-0.390076	
-0.389526	
-0.390381	
-0.389954	
-0.390259	
-0.389893	
-0.390381	
-0.390259	
-0.390015	
-0.389954	
-0.390503	
-0.389587	
-0.388672	
-0.38916	
-0.387268	
-0.387695	
-0.387756	
-0.388245	
-0.387207	
-0.38678	
-0.386353	
-0.386292	
-0.386108	
-0.384888	
-0.384277	
-0.385193	
-0.385437	
-0.385925	
-0.386108	
-0.386292	
-0.386292	
-0.386658	
-0.387085	
-0.386841	
-0.387451	
-0.386719	
-0.386292	
-0.386841	
-0.387085	
-0.38739	
-0.387939	
-0.387451	
-0.387024	
-0.387512	
-0.388123	
-0.388245	
-0.387451	
-0.386353	
-0.388123	
-0.388	
-0.388123	
-0.389038	
-0.388245	
-0.388123	
-0.387817	
-0.389526	
-0.388367	
-0.388184	
-0.387634	
-0.388306	
-0.388062	
-0.388123	
-0.388245	
-0.388611	
-0.388184	
-0.388123	
-0.387878	
-0.389465	
-0.388977	
-0.387939	
-0.388	
-0.387512	
-0.387695	
-0.388184	
-0.387573	
-0.387695	
-0.388245	
-0.387939	
-0.389404	
-0.387756	
-0.388062	
-0.388123	
-0.388672	
-0.387695	
-0.388	
-0.387451	
-0.387878	
-0.387329	
-0.387207	
-0.386475	
-0.388123	
-0.387756	
-0.387085	
-0.38678	
-0.386963	
-0.387939	
-0.388062	
-0.388428	
-0.388062	
-0.388062	
-0.388489	
-0.388977	
-0.389038	
-0.387756	
-0.387451	
-0.387024	
-0.388	
-0.388306	
-0.387695	
-0.388184	
-0.388306	
-0.388123	
-0.388	
-0.389038	
-0.388672	
-0.387695	
-0.386597	
-0.388	
-0.388733	
-0.388184	
-0.38916	
-0.388428	
-0.388245	
-0.387939	
-0.389709	
-0.38855	
-0.387695	
-0.387207	
-0.388123	
-0.387878	
-0.388306	
-0.387939	
-0.38855	
-0.387878	
-0.388428	
-0.389648	
-0.388794	
-0.388367	
-0.388	
-0.388855	
-0.388245	
-0.388	
-0.387329	
-0.389343	
-0.388672	
-0.388489	
-0.387939	
-0.389526	
-0.389465	
-0.388672	
-0.387817	
-0.38855	
-0.389038	
-0.388855	
-0.388611	
-0.388855	
-0.388672	
-0.388306	
-0.387817	
-0.388611	
-0.388123	
-0.387451	
-0.387939	
-0.385986	
-0.387085	
-0.387207	
-0.387817	
-0.38678	
-0.386841	
-0.386475	
-0.386719	
-0.387207	
-0.385986	
-0.384094	
-0.385559	
-0.385925	
-0.385498	
-0.386536	
-0.386047	
-0.385681	
-0.385986	
-0.387268	
-0.386169	
-0.385254	
-0.385193	
-0.384888	
-0.384338	
-0.384033	
-0.38324	
-0.384155	
-0.383606	
-0.383423	
-0.383606	
-0.38385	
-0.38385	
-0.383911	
-0.382813	
-0.384216	
-0.384583	
-0.384827	
-0.38501	
-0.385498	
-0.386475	
-0.386658	
-0.388489	
-0.387939	
-0.388611	
-0.387512	
-0.38855	
-0.388306	
-0.389709	
-0.38855	
-0.389893	
-0.389404	
-0.389648	
-0.389526	
-0.389709	
-0.389648	
-0.389282	
-0.389954	
-0.388977	
-0.389221	
-0.389038	
-0.389038	
-0.389038	
-0.389099	
-0.387939	
-0.389099	
-0.38916	
-0.388428	
-0.386902	
-0.389221	
-0.387329	
-0.388611	
-0.388733	
-0.388184	
-0.388245	
-0.388	
-0.388123	
-0.387512	
-0.388184	
-0.386963	
-0.387268	
-0.386841	
-0.386902	
-0.386902	
-0.386902	
-0.386047	
-0.385681	
-0.385559	
-0.385986	
-0.385742	
-0.38446	
-0.382813	
-0.384033	
-0.384216	
-0.384399	
-0.384033	
-0.384033	
-0.383972	
-0.383972	
-0.386169	
-0.384705	
-0.385254	
-0.384521	
-0.38562	
-0.384766	
-0.385071	
-0.385681	
-0.384705	
-0.385498	
-0.385681	
-0.387085	
-0.386658	
-0.386353	
-0.385742	
-0.384888	
-0.386841	
-0.385193	
-0.386353	
-0.386169	
-0.386658	
-0.38623	
-0.385925	
-0.388367	
-0.386536	
-0.386902	
-0.385925	
-0.387268	
-0.385376	
-0.38623	
-0.386597	
-0.386169	
-0.385925	
-0.385864	
-0.386902	
-0.386169	
-0.38678	
-0.38562	
-0.38562	
-0.385864	
-0.385925	
-0.386536	
-0.385803	
-0.386536	
-0.386597	
-0.386169	
-0.38678	
-0.387024	
-0.386963	
-0.385254	
-0.387573	
-0.386292	
-0.387329	
-0.388062	
-0.386841	
-0.387085	
-0.387268	
-0.389282	
-0.387024	
-0.387634	
-0.38678	
-0.387024	
-0.386902	
-0.387268	
-0.387024	
-0.386108	
-0.386841	
-0.38678	
-0.386719	
-0.386414	
-0.386841	
-0.386108	
-0.385437	
-0.387207	
-0.385925	
-0.385925	
-0.386292	
-0.385742	
-0.385925	
-0.386169	
-0.387085	
-0.386597	
-0.387329	
-0.385559	
-0.387573	
-0.38739	
-0.387695	
-0.388	
-0.387878	
-0.388367	
-0.388489	
-0.388977	
-0.389343	
-0.390015	
-0.390503	
-0.390747	
-0.391052	
-0.389954	
-0.390991	
-0.390747	
-0.389893	
-0.389832	
-0.390076	
-0.390503	
-0.389526	
-0.389893	
-0.38855	
-0.389404	
-0.388733	
-0.389099	
-0.388916	
-0.389343	
-0.388428	
-0.388733	
-0.389526	
-0.388855	
-0.389282	
-0.388611	
-0.388306	
-0.388672	
-0.386841	
-0.388184	
-0.388611	
-0.388428	
-0.388245	
-0.388611	
-0.388672	
-0.388428	
-0.388855	
-0.386658	
-0.388489	
-0.387939	
-0.388062	
-0.38855	
-0.386902	
-0.388184	
-0.388123	
-0.389282	
-0.38855	
-0.388794	
-0.387878	
-0.388306	
-0.389038	
-0.387878	
-0.388916	
-0.388855	
-0.389465	
-0.388855	
-0.389954	
-0.388794	
-0.389099	
-0.389893	
-0.388306	
-0.390137	
-0.389587	
-0.390076	
-0.389771	
-0.391174	
-0.390564	
-0.391052	
-0.390564	
-0.390747	
-0.390564	
-0.388428	
-0.389648	
-0.389648	
-0.388184	
-0.389587	
-0.390015	
-0.38916	
-0.389038	
	
