E:\DOCUMENTS AND SETTINGS\JPOTAS\MEUS DOCUMENTOS\UFRJ\RSCI-BM 12 WK SERIES\070727-RSCI-BM-05\RSCI-BM-05-LEMG\070727-RSCI-BM-05-LEMG-0015.ACQ
0.025000 msec/sample
1 channel
Analog input
Volts
CH1	
2000	
-0.386169	
-0.38623	
-0.386353	
-0.386536	
-0.387329	
-0.38739	
-0.387512	
-0.386841	
-0.386292	
-0.38623	
-0.386536	
-0.386292	
-0.386597	
-0.386047	
-0.386475	
-0.387024	
-0.386902	
-0.386719	
-0.385925	
-0.385742	
-0.384583	
-0.386414	
-0.384949	
-0.38562	
-0.385071	
-0.385681	
-0.385864	
-0.385193	
-0.386108	
-0.385193	
-0.384338	
-0.384644	
-0.384949	
-0.385071	
-0.385315	
-0.384888	
-0.384521	
-0.385498	
-0.386292	
-0.38562	
-0.386047	
-0.386169	
-0.386414	
-0.386169	
-0.38678	
-0.38501	
-0.386108	
-0.386414	
-0.386353	
-0.386108	
-0.386536	
-0.387085	
-0.38678	
-0.386719	
-0.385437	
-0.386108	
-0.386169	
-0.385681	
-0.385986	
-0.386108	
-0.386169	
-0.386169	
-0.385681	
-0.384399	
-0.384155	
-0.384705	
-0.385132	
-0.384888	
-0.38446	
-0.385193	
-0.38385	
-0.385742	
-0.386902	
-0.385681	
-0.386047	
-0.385803	
-0.386047	
-0.384338	
-0.385925	
-0.385681	
-0.385498	
-0.385803	
-0.385864	
-0.38623	
-0.385803	
-0.387085	
-0.386719	
-0.38678	
-0.386169	
-0.386169	
-0.385193	
-0.384644	
-0.386353	
-0.386047	
-0.386169	
-0.386719	
-0.386353	
-0.385864	
-0.38678	
-0.386292	
-0.385437	
-0.385315	
-0.385376	
-0.385498	
-0.384338	
-0.385193	
-0.386353	
-0.385681	
-0.38562	
-0.385254	
-0.385986	
-0.384705	
-0.38623	
-0.385071	
-0.384888	
-0.385254	
-0.385559	
-0.385498	
-0.385559	
-0.386414	
-0.385559	
-0.386292	
-0.386475	
-0.386169	
-0.385315	
-0.385803	
-0.386169	
-0.385681	
-0.387085	
-0.387878	
-0.387207	
-0.387085	
-0.387634	
-0.387207	
-0.38562	
-0.387573	
-0.386597	
-0.386475	
-0.38623	
-0.386597	
-0.387024	
-0.38623	
-0.387207	
-0.385986	
-0.386902	
-0.386292	
-0.386353	
-0.385376	
-0.385254	
-0.386169	
-0.385925	
-0.386902	
-0.387573	
-0.388184	
-0.388367	
-0.388733	
-0.389587	
-0.388306	
-0.389648	
-0.389282	
-0.389282	
-0.389099	
-0.389709	
-0.389709	
-0.388794	
-0.389282	
-0.387878	
-0.388062	
-0.387085	
-0.387634	
-0.385376	
-0.386169	
-0.387024	
-0.386536	
-0.386353	
-0.386292	
-0.386719	
-0.385864	
-0.385437	
-0.385925	
-0.385437	
-0.385559	
-0.384338	
-0.385925	
-0.385559	
-0.385986	
-0.386597	
-0.385132	
-0.385681	
-0.385559	
-0.386841	
-0.385254	
-0.386719	
-0.384644	
-0.38623	
-0.385498	
-0.385681	
-0.382874	
-0.379272	
-0.378967	
-0.378296	
-0.378967	
-0.378723	
-0.382813	
-0.385254	
-0.385132	
-0.386108	
-0.384705	
-0.386108	
-0.386414	
-0.386169	
-0.386169	
-0.385986	
-0.387329	
-0.38562	
-0.387451	
-0.386108	
-0.387146	
-0.386963	
-0.38739	
-0.388916	
-0.388245	
-0.389038	
-0.388184	
-0.389282	
-0.387573	
-0.388611	
-0.388306	
-0.38855	
-0.388611	
-0.387085	
-0.387695	
-0.387451	
-0.387146	
-0.387512	
-0.387939	
-0.387756	
-0.385986	
-0.387756	
-0.385742	
-0.386719	
-0.386841	
-0.387329	
-0.387817	
-0.387085	
-0.388306	
-0.387207	
-0.388855	
-0.388794	
-0.391052	
-0.391174	
-0.393982	
-0.396301	
-0.398926	
-0.403503	
-0.406616	
-0.410278	
-0.414001	
-0.419861	
-0.423218	
-0.427917	
-0.430847	
-0.43573	
-0.440063	
-0.445251	
-0.450989	
-0.455688	
-0.461914	
-0.467712	
-0.477417	
-0.485596	
-0.495361	
-0.504211	
-0.51416	
-0.522583	
-0.52948	
-0.537048	
-0.541138	
-0.545227	
-0.547058	
-0.549316	
-0.549011	
-0.549133	
-0.547791	
-0.545532	
-0.544495	
-0.541382	
-0.539917	
-0.53656	
-0.533936	
-0.530762	
-0.527466	
-0.523132	
-0.518555	
-0.514771	
-0.50946	
-0.505066	
-0.500305	
-0.49646	
-0.492249	
-0.488342	
-0.484802	
-0.480957	
-0.479797	
-0.474731	
-0.472656	
-0.46814	
-0.465393	
-0.461426	
-0.457214	
-0.454041	
-0.448914	
-0.445557	
-0.440247	
-0.437073	
-0.432739	
-0.430481	
-0.428284	
-0.425232	
-0.425232	
-0.424683	
-0.425476	
-0.425049	
-0.426208	
-0.426514	
-0.426331	
-0.426941	
-0.426147	
-0.426208	
-0.423584	
-0.423828	
-0.421936	
-0.420227	
-0.419189	
-0.415344	
-0.412048	
-0.407593	
-0.405396	
-0.399048	
-0.394592	
-0.388855	
-0.382874	
-0.377747	
-0.370605	
-0.364502	
-0.357422	
-0.35083	
-0.341919	
-0.334961	
-0.328796	
-0.322144	
-0.317017	
-0.310425	
-0.306458	
-0.302246	
-0.298157	
-0.295532	
-0.289795	
-0.283447	
-0.280945	
-0.281921	
-0.279968	
-0.281494	
-0.286316	
-0.291504	
-0.294617	
-0.297607	
-0.300659	
-0.30365	
-0.306458	
-0.30835	
-0.311829	
-0.312561	
-0.313965	
-0.313416	
-0.313904	
-0.314636	
-0.315918	
-0.316589	
-0.318176	
-0.317688	
-0.31781	
-0.321655	
-0.322388	
-0.324097	
-0.324585	
-0.328247	
-0.330322	
-0.333008	
-0.335083	
-0.338318	
-0.339111	
-0.341919	
-0.345886	
-0.346985	
-0.349365	
-0.349121	
-0.350891	
-0.352051	
-0.352661	
-0.352661	
-0.353149	
-0.352966	
-0.354187	
-0.355286	
-0.35498	
-0.356323	
-0.356445	
-0.359558	
-0.361511	
-0.365173	
-0.366943	
-0.3703	
-0.373474	
-0.37793	
-0.381104	
-0.38623	
-0.391357	
-0.393982	
-0.39978	
-0.403687	
-0.409485	
-0.413452	
-0.417969	
-0.422302	
-0.427368	
-0.431335	
-0.438171	
-0.445374	
-0.451111	
-0.459961	
-0.46698	
-0.475952	
-0.483276	
-0.490051	
-0.495605	
-0.503296	
-0.50708	
-0.510376	
-0.512878	
-0.514771	
-0.515625	
-0.515198	
-0.515259	
-0.514282	
-0.512451	
-0.509277	
-0.507813	
-0.503906	
-0.499939	
-0.496277	
-0.492859	
-0.489441	
-0.484192	
-0.481689	
-0.477295	
-0.472473	
-0.468506	
-0.465393	
-0.460083	
-0.456055	
-0.452087	
-0.444702	
-0.441406	
-0.436523	
-0.433167	
-0.427979	
-0.423523	
-0.419434	
-0.416504	
-0.414063	
-0.411377	
-0.409607	
-0.405884	
-0.405945	
-0.405273	
-0.405029	
-0.403442	
-0.402039	
-0.400085	
-0.398804	
-0.397583	
-0.394958	
-0.392578	
-0.387939	
-0.385742	
-0.382507	
-0.37915	
-0.375	
-0.369141	
-0.363647	
-0.358215	
-0.352112	
-0.343872	
-0.336243	
-0.326111	
-0.31842	
-0.309387	
-0.301575	
-0.294312	
-0.286987	
-0.280151	
-0.273682	
-0.269653	
-0.266846	
-0.264587	
-0.262451	
-0.26178	
-0.26355	
-0.264771	
-0.26886	
-0.272217	
-0.274597	
-0.277893	
-0.283569	
-0.288208	
-0.292175	
-0.295227	
-0.298279	
-0.302917	
-0.306763	
-0.310059	
-0.312439	
-0.314148	
-0.315918	
-0.318909	
-0.320862	
-0.322571	
-0.323425	
-0.325378	
-0.326721	
-0.328369	
-0.328674	
-0.330139	
-0.331055	
-0.333313	
-0.334045	
-0.335388	
-0.336548	
-0.336853	
-0.338806	
-0.339783	
-0.341553	
-0.342041	
-0.343323	
-0.344482	
-0.346252	
-0.347595	
-0.348389	
-0.349609	
-0.348694	
-0.351074	
-0.351746	
-0.353577	
-0.353516	
-0.353943	
-0.354492	
-0.355652	
-0.356384	
-0.356201	
-0.357239	
-0.356262	
-0.358337	
-0.35907	
-0.359985	
-0.361145	
-0.360779	
-0.359985	
-0.361389	
-0.361938	
-0.362732	
-0.363586	
-0.362732	
-0.364258	
-0.364563	
-0.364746	
-0.365784	
-0.365173	
-0.366455	
-0.36676	
-0.366943	
-0.367676	
-0.367798	
-0.366516	
-0.368408	
-0.368164	
-0.368713	
-0.369507	
-0.368713	
-0.369812	
-0.370117	
-0.369934	
-0.369751	
-0.369141	
-0.368958	
-0.369995	
-0.368896	
-0.370178	
-0.370117	
-0.370239	
-0.370422	
-0.371582	
-0.370911	
-0.370667	
-0.370667	
-0.371033	
-0.371277	
-0.369995	
-0.371338	
-0.37085	
-0.371704	
-0.371399	
-0.372009	
-0.371338	
-0.372009	
-0.371216	
-0.371277	
-0.371399	
-0.371704	
-0.372131	
-0.37262	
-0.372131	
-0.372803	
-0.372742	
-0.372925	
-0.373047	
-0.37207	
-0.373535	
-0.371826	
-0.372803	
-0.372498	
-0.373596	
-0.372498	
-0.373779	
-0.373047	
-0.373047	
-0.372375	
-0.372681	
-0.372681	
-0.372742	
-0.373169	
-0.372314	
-0.37439	
-0.374695	
-0.375671	
-0.374817	
-0.37616	
-0.375427	
-0.376709	
-0.37616	
-0.377075	
-0.377686	
-0.378723	
-0.377808	
-0.378845	
-0.379028	
-0.37915	
-0.378479	
-0.378296	
-0.378418	
-0.37793	
-0.377563	
-0.377319	
-0.377563	
-0.376465	
-0.377747	
-0.377197	
-0.377502	
-0.376587	
-0.37738	
-0.378479	
-0.377686	
-0.377747	
-0.377991	
-0.379211	
-0.378235	
-0.379028	
-0.37915	
-0.37915	
-0.377869	
-0.377869	
-0.379089	
-0.378418	
-0.378662	
-0.378479	
-0.379333	
-0.378662	
-0.379395	
-0.378845	
-0.379395	
-0.377808	
-0.377563	
-0.378662	
-0.378113	
-0.378296	
-0.378479	
-0.378906	
-0.378174	
-0.37915	
-0.378418	
-0.379089	
-0.378357	
-0.379028	
-0.379089	
-0.378845	
-0.378784	
-0.379639	
-0.380615	
-0.380432	
-0.380737	
-0.380798	
-0.380188	
-0.380127	
-0.380188	
-0.38092	
-0.380737	
-0.380554	
-0.38092	
-0.380859	
-0.381104	
-0.381042	
-0.381165	
-0.379883	
-0.380859	
-0.380066	
-0.381531	
-0.38092	
-0.380493	
-0.379517	
-0.378479	
-0.380493	
-0.380493	
-0.381226	
-0.380676	
-0.380615	
-0.379944	
-0.379944	
-0.380066	
-0.381714	
-0.381042	
-0.380737	
-0.382263	
-0.381348	
-0.382324	
-0.381531	
-0.381775	
-0.38092	
-0.380676	
-0.38092	
-0.382019	
-0.382019	
-0.381226	
-0.382935	
-0.382629	
-0.383179	
-0.382019	
-0.382263	
-0.382141	
-0.381714	
-0.381714	
-0.382446	
-0.382751	
-0.382263	
-0.383484	
-0.383179	
-0.383179	
-0.381775	
-0.382629	
-0.382141	
-0.381775	
-0.382202	
-0.382446	
-0.38269	
-0.382385	
-0.382446	
-0.382813	
-0.383728	
-0.382324	
-0.382568	
-0.382385	
-0.383301	
-0.382996	
-0.382996	
-0.382935	
-0.383423	
-0.383301	
-0.38324	
-0.384277	
-0.383606	
-0.383484	
-0.383423	
-0.38385	
-0.383789	
-0.384766	
-0.38446	
-0.384766	
-0.384949	
-0.385376	
-0.38623	
-0.385498	
-0.384521	
-0.384583	
-0.384583	
-0.38446	
-0.384705	
-0.384338	
-0.384705	
-0.384949	
-0.384949	
-0.384949	
-0.385376	
-0.384705	
-0.383972	
-0.384399	
-0.384827	
-0.384827	
-0.384766	
-0.384521	
-0.385559	
-0.385742	
-0.386841	
-0.387634	
-0.387268	
-0.387939	
-0.387878	
-0.388855	
-0.387939	
-0.388062	
-0.387695	
-0.388184	
-0.387695	
-0.387695	
-0.387451	
-0.38678	
-0.385864	
-0.384338	
-0.38623	
-0.386108	
-0.385681	
-0.385681	
-0.385742	
-0.385803	
-0.385681	
-0.385193	
-0.384766	
-0.385254	
-0.383362	
-0.384827	
-0.384338	
-0.384521	
-0.384705	
-0.385315	
-0.384949	
-0.384827	
-0.38562	
-0.385864	
-0.384583	
-0.383972	
-0.385132	
-0.384888	
-0.384888	
-0.384521	
-0.385498	
-0.385254	
-0.385071	
-0.385254	
-0.385681	
-0.38446	
-0.383911	
-0.384521	
-0.384338	
-0.384521	
-0.38446	
-0.384277	
-0.384644	
-0.384949	
-0.385681	
-0.385986	
-0.385315	
-0.38446	
-0.38446	
-0.386475	
-0.385803	
-0.385986	
-0.386108	
-0.387146	
-0.387024	
-0.387207	
-0.38739	
-0.387573	
-0.38739	
-0.386536	
-0.388245	
-0.388062	
-0.388123	
-0.387329	
-0.387329	
-0.387207	
-0.387451	
-0.386841	
-0.387207	
-0.387146	
-0.386169	
-0.386658	
-0.386536	
-0.386536	
-0.386658	
-0.388	
-0.387329	
-0.38739	
-0.38739	
-0.38739	
-0.387024	
-0.386292	
-0.386963	
-0.387268	
-0.387024	
-0.38678	
-0.387695	
-0.387634	
-0.387878	
-0.388062	
-0.387573	
-0.387085	
-0.386963	
-0.388062	
-0.388245	
-0.388062	
-0.387939	
-0.389221	
-0.388794	
-0.388672	
-0.389343	
-0.389832	
-0.388489	
-0.387756	
-0.38916	
-0.388794	
-0.388611	
-0.388367	
-0.38916	
-0.38916	
-0.388977	
-0.390137	
-0.389648	
-0.388794	
-0.388	
-0.389404	
-0.388794	
-0.389099	
-0.389343	
-0.390076	
-0.389404	
-0.389038	
-0.390015	
-0.388855	
-0.389038	
-0.387939	
-0.389038	
-0.389099	
-0.38916	
-0.389465	
-0.389648	
-0.390198	
-0.390259	
-0.391296	
-0.389709	
-0.39032	
-0.390259	
-0.389648	
-0.389587	
-0.390686	
-0.391235	
-0.390381	
-0.391541	
-0.390503	
-0.390625	
-0.390198	
-0.389954	
-0.38855	
-0.387939	
-0.388428	
-0.387939	
-0.387634	
-0.386536	
-0.387939	
-0.387451	
-0.387512	
-0.388123	
-0.388062	
-0.387146	
-0.387085	
-0.388794	
-0.388794	
-0.389343	
-0.389343	
-0.390259	
-0.390503	
-0.390869	
-0.390869	
-0.389709	
-0.389526	
-0.389587	
-0.389954	
-0.388672	
-0.389526	
-0.389587	
-0.389648	
-0.390625	
-0.390076	
-0.390198	
-0.389771	
-0.390503	
-0.388733	
-0.389099	
-0.390015	
-0.390442	
-0.390564	
-0.389648	
-0.391296	
-0.390747	
-0.391846	
-0.391541	
-0.391846	
-0.390991	
-0.390686	
-0.392151	
-0.391479	
-0.392273	
-0.392151	
-0.392334	
-0.391846	
-0.392822	
-0.393188	
-0.392578	
-0.391724	
-0.39209	
-0.392578	
-0.390808	
-0.391296	
-0.391724	
-0.391541	
-0.390991	
-0.391174	
-0.391846	
-0.390686	
-0.391113	
-0.391174	
-0.390869	
-0.390808	
-0.391724	
-0.391968	
-0.39093	
-0.392151	
-0.392151	
-0.391785	
-0.390381	
-0.392212	
-0.391541	
-0.392273	
-0.393799	
-0.393738	
-0.393311	
-0.393066	
-0.39386	
-0.393372	
-0.392944	
-0.391907	
-0.3927	
-0.391541	
-0.39093	
-0.392761	
-0.390869	
-0.391602	
-0.391663	
-0.392639	
-0.392395	
-0.393005	
-0.392639	
-0.392578	
-0.3927	
-0.391418	
-0.391724	
-0.391235	
-0.391602	
-0.391602	
-0.39093	
-0.391724	
-0.392395	
-0.39209	
-0.390869	
-0.391357	
-0.391479	
-0.391785	
-0.392273	
-0.391479	
-0.391418	
-0.391418	
-0.392334	
-0.392334	
-0.392395	
-0.391174	
-0.392578	
-0.39209	
-0.392029	
-0.392273	
-0.391602	
-0.392822	
-0.392334	
-0.392822	
-0.392151	
-0.392639	
-0.391663	
-0.391663	
-0.391724	
-0.391602	
-0.391846	
-0.392456	
-0.391663	
-0.392029	
-0.392029	
-0.391663	
-0.392883	
-0.391602	
-0.391357	
-0.390869	
-0.390259	
-0.39032	
-0.39093	
-0.389771	
-0.390015	
-0.390381	
-0.390381	
-0.391052	
-0.391113	
-0.389709	
-0.390991	
-0.391296	
-0.391052	
-0.391235	
-0.39032	
-0.391052	
-0.391296	
-0.391296	
-0.391357	
-0.391785	
-0.390381	
-0.390808	
-0.390625	
-0.390869	
-0.391052	
-0.390625	
-0.39032	
-0.389893	
-0.388977	
-0.388855	
-0.389587	
-0.387634	
-0.387695	
-0.387268	
-0.387329	
-0.388	
-0.388428	
-0.387451	
-0.388489	
-0.388855	
-0.389282	
-0.390259	
-0.389832	
-0.389893	
-0.389465	
-0.389709	
-0.390198	
-0.390442	
-0.389709	
-0.390747	
-0.391174	
-0.391296	
-0.391785	
-0.391907	
-0.39032	
-0.390991	
-0.391663	
-0.391052	
-0.390991	
-0.391663	
-0.391296	
-0.391235	
-0.390625	
-0.391479	
-0.392212	
-0.390991	
-0.391174	
-0.39032	
-0.391052	
-0.391113	
-0.391968	
-0.391357	
-0.391418	
-0.392273	
-0.391907	
-0.3927	
-0.391541	
-0.391541	
-0.391907	
-0.391541	
-0.391235	
-0.391907	
-0.390259	
-0.390869	
-0.391296	
-0.390991	
-0.391907	
-0.391174	
-0.391174	
-0.390686	
-0.389954	
-0.390198	
-0.390625	
-0.389587	
-0.390015	
-0.390076	
-0.388184	
-0.389587	
-0.390198	
-0.388855	
-0.389099	
-0.388672	
-0.389038	
-0.389893	
-0.389832	
-0.389343	
-0.389038	
-0.388794	
-0.389648	
-0.390808	
-0.388672	
-0.390442	
-0.389709	
-0.389404	
-0.38916	
-0.390198	
-0.389282	
-0.389587	
-0.390747	
-0.389648	
-0.390381	
-0.389343	
-0.389832	
-0.389282	
-0.388672	
-0.389954	
-0.390198	
-0.388672	
-0.389526	
-0.390076	
-0.389526	
-0.389465	
-0.389343	
-0.388855	
-0.388733	
-0.387268	
-0.388672	
-0.388123	
-0.388306	
-0.38855	
-0.388428	
-0.386841	
-0.388489	
-0.389893	
-0.387207	
-0.387451	
-0.388062	
-0.388245	
-0.387878	
-0.38855	
-0.388	
-0.388306	
-0.388245	
-0.387878	
-0.38855	
-0.387451	
-0.387939	
-0.387512	
-0.387146	
-0.387695	
-0.388428	
-0.386475	
-0.387634	
-0.388123	
-0.387451	
-0.387451	
-0.387634	
-0.387512	
-0.387268	
-0.384827	
-0.386963	
-0.387207	
-0.386169	
-0.386292	
-0.38623	
-0.385803	
-0.385986	
-0.387695	
-0.385315	
-0.385681	
-0.386047	
-0.386108	
-0.386719	
-0.386719	
-0.387451	
-0.387451	
-0.388184	
-0.388428	
-0.389526	
-0.387817	
-0.389038	
-0.389404	
-0.389465	
-0.389648	
-0.389526	
-0.389221	
-0.389282	
-0.38916	
-0.389465	
-0.389099	
-0.388245	
-0.388306	
-0.387146	
-0.384705	
-0.386658	
-0.387329	
-0.385315	
-0.386475	
-0.387024	
-0.38739	
-0.387268	
-0.388367	
-0.386902	
-0.387024	
-0.38739	
-0.387146	
-0.387512	
-0.386841	
-0.38678	
-0.387268	
-0.386414	
-0.387207	
-0.388367	
-0.38623	
-0.386597	
-0.386414	
-0.386414	
-0.38623	
-0.386963	
-0.385437	
-0.385864	
-0.38678	
-0.386169	
-0.386292	
-0.385864	
-0.385559	
-0.38501	
-0.383667	
-0.385132	
-0.386047	
-0.384521	
-0.385559	
-0.385681	
-0.384338	
-0.386108	
-0.387451	
-0.386475	
-0.386658	
-0.387024	
-0.386536	
-0.387024	
-0.387329	
-0.387085	
-0.387573	
-0.387268	
-0.386658	
-0.387634	
-0.385437	
-0.386658	
-0.386597	
-0.386353	
-0.386719	
-0.386414	
-0.386841	
-0.386292	
-0.387268	
-0.386292	
-0.386169	
-0.385132	
-0.385193	
-0.385437	
-0.384094	
-0.385437	
-0.385254	
-0.385315	
-0.386353	
-0.386353	
-0.385803	
-0.386414	
-0.386841	
-0.386108	
-0.38623	
-0.385559	
-0.385864	
-0.38562	
-0.386169	
-0.386353	
-0.386475	
-0.386353	
-0.386169	
-0.387634	
-0.385742	
-0.386597	
-0.386536	
-0.38623	
-0.385742	
-0.38678	
-0.387329	
-0.386902	
-0.387207	
-0.386475	
-0.387024	
-0.386658	
-0.386414	
-0.386353	
-0.38562	
-0.386047	
-0.386353	
-0.385254	
-0.385376	
-0.386353	
-0.38562	
-0.385132	
-0.386841	
-0.385559	
-0.385925	
-0.385315	
-0.386047	
-0.385803	
-0.385803	
-0.386475	
-0.38623	
-0.385925	
-0.385925	
-0.386841	
-0.385132	
-0.386292	
-0.386169	
-0.386047	
-0.386475	
-0.386169	
-0.386597	
-0.386658	
-0.387695	
-0.386963	
-0.386841	
-0.387451	
-0.388184	
-0.387268	
-0.386658	
-0.387268	
-0.387024	
-0.386292	
-0.388123	
-0.387756	
-0.38678	
-0.387024	
-0.387085	
-0.386658	
-0.386841	
-0.38678	
-0.386841	
-0.386414	
-0.38678	
-0.386902	
-0.387634	
-0.386963	
-0.387329	
-0.387695	
-0.387512	
-0.388428	
-0.388916	
-0.388245	
-0.389526	
-0.389587	
-0.390137	
-0.390442	
-0.391113	
-0.390198	
-0.390198	
-0.389038	
-0.389832	
-0.389526	
-0.388855	
-0.388916	
-0.388428	
-0.387329	
-0.387878	
-0.389343	
-0.387451	
-0.387451	
-0.387024	
-0.386841	
-0.386414	
-0.386047	
-0.386169	
-0.386292	
-0.385742	
-0.386292	
-0.387207	
-0.387268	
-0.386292	
-0.387024	
-0.386169	
-0.386108	
-0.38562	
-0.385742	
-0.386292	
-0.386414	
-0.385559	
-0.386597	
-0.386475	
-0.386047	
-0.387817	
-0.38623	
-0.386047	
-0.385925	
-0.386658	
-0.385925	
-0.386108	
-0.385254	
-0.386108	
-0.386902	
-0.387085	
-0.387085	
-0.386597	
-0.386597	
-0.386719	
-0.387634	
-0.386414	
-0.386902	
-0.38623	
-0.387207	
-0.387817	
-0.388611	
-0.388	
-0.387817	
-0.388489	
-0.387207	
-0.388367	
-0.388733	
-0.389221	
-0.389221	
-0.388977	
-0.389282	
-0.389832	
-0.390564	
-0.389709	
-0.38855	
-0.388245	
-0.387573	
-0.388489	
-0.388245	
-0.388123	
-0.387207	
-0.387634	
-0.389038	
-0.388489	
-0.389465	
-0.388306	
-0.388428	
-0.387024	
-0.388916	
-0.386963	
-0.388062	
-0.388123	
-0.388184	
-0.38916	
-0.387939	
-0.389404	
-0.387939	
-0.389099	
-0.387939	
-0.388855	
-0.388428	
-0.38916	
-0.388672	
-0.389038	
-0.389587	
-0.389404	
-0.389587	
-0.389404	
-0.388611	
-0.389709	
-0.387756	
-0.389648	
-0.389404	
-0.389893	
-0.388916	
-0.390015	
-0.390442	
-0.390137	
-0.391113	
-0.389709	
-0.390564	
-0.389465	
-0.390198	
-0.389893	
-0.389648	
-0.389648	
-0.390625	
-0.390747	
-0.390137	
-0.39093	
-0.391296	
-0.391296	
-0.389893	
-0.390381	
-0.39032	
-0.390503	
-0.390198	
-0.390259	
-0.391052	
-0.390991	
-0.391052	
-0.391479	
-0.390625	
-0.391541	
-0.390686	
-0.390747	
-0.390869	
-0.391846	
-0.39093	
-0.391968	
-0.392517	
-0.391479	
-0.391846	
-0.390808	
-0.390259	
-0.389343	
-0.389893	
-0.388	
-0.388916	
-0.38855	
-0.38855	
-0.388489	
-0.38855	
-0.389038	
-0.38855	
-0.389771	
-0.388489	
-0.388916	
-0.388611	
-0.389404	
-0.389526	
-0.389404	
-0.391235	
-0.391357	
-0.391418	
-0.391174	
-0.391174	
-0.390686	
-0.390259	
-0.391418	
-0.389709	
-0.390381	
-0.390137	
-0.391052	
-0.391479	
-0.390564	
-0.391235	
-0.391052	
-0.392761	
-0.389954	
-0.391357	
-0.39032	
-0.390991	
-0.390808	
-0.390991	
-0.391602	
-0.391724	
-0.392944	
-0.391968	
-0.392212	
-0.392578	
-0.392273	
-0.392578	
-0.391663	
-0.392944	
-0.392944	
-0.393066	
-0.394226	
-0.393616	
-0.393066	
-0.393127	
-0.393677	
-0.393066	
-0.393372	
-0.392578	
-0.392212	
-0.392334	
-0.39209	
-0.392822	
-0.391602	
-0.391907	
-0.392273	
-0.392151	
-0.391357	
-0.391968	
-0.391479	
-0.392029	
-0.392456	
-0.391602	
-0.393005	
-0.392761	
-0.393616	
-0.392395	
-0.392578	
-0.39325	
-0.393799	
-0.394531	
-0.393555	
-0.392944	
-0.393616	
-0.394104	
-0.394775	
-0.394348	
-0.39386	
-0.393677	
-0.393066	
-0.393921	
-0.393005	
-0.392761	
-0.392578	
-0.392761	
-0.392822	
-0.393433	
-0.393372	
-0.393372	
-0.393188	
-0.393005	
-0.391541	
-0.392761	
-0.39209	
-0.392517	
-0.391785	
-0.391968	
-0.392944	
-0.393066	
-0.393188	
-0.392456	
-0.392212	
-0.391418	
-0.392822	
-0.392944	
-0.392334	
-0.39209	
-0.392517	
-0.392883	
-0.393616	
-0.393738	
-0.393188	
-0.393799	
-0.393127	
-0.393372	
-0.394043	
-0.393066	
-0.393005	
-0.392944	
-0.392395	
-0.393433	
-0.393433	
-0.393127	
-0.393005	
-0.392029	
-0.392944	
-0.393494	
-0.393005	
-0.392883	
-0.393311	
-0.392029	
-0.393066	
-0.39386	
-0.393738	
-0.392517	
-0.392761	
-0.391968	
-0.392029	
-0.392761	
-0.391357	
-0.391296	
-0.391052	
-0.391479	
-0.391785	
-0.392761	
-0.391907	
-0.391479	
-0.391541	
-0.392029	
-0.391846	
-0.391418	
-0.392151	
-0.391968	
-0.390503	
-0.392456	
-0.3927	
-0.392029	
-0.391846	
-0.391296	
-0.391602	
-0.391724	
-0.393311	
-0.391724	
-0.390625	
-0.390198	
-0.390686	
-0.390747	
-0.390076	
-0.389404	
-0.389587	
-0.388489	
-0.388855	
-0.389038	
-0.388977	
-0.388855	
-0.389282	
-0.387817	
-0.391235	
-0.391052	
-0.390686	
-0.391479	
-0.39093	
-0.391418	
-0.39209	
-0.3927	
-0.392212	
-0.392212	
-0.391785	
-0.392578	
-0.393433	
-0.392517	
-0.393188	
-0.392212	
-0.391418	
-0.392761	
-0.393188	
-0.392883	
-0.393005	
-0.392883	
-0.392212	
-0.393799	
-0.393616	
-0.392944	
-0.393066	
-0.392761	
-0.392944	
-0.392578	
-0.393982	
-0.39325	
-0.392944	
-0.391907	
-0.393738	
-0.393433	
-0.393921	
-0.392822	
-0.393005	
-0.392944	
-0.392944	
-0.3927	
-0.392944	
-0.392578	
-0.393188	
-0.392456	
-0.392944	
-0.393127	
-0.392517	
-0.391907	
-0.391235	
-0.391724	
-0.391541	
-0.392029	
-0.391663	
-0.391235	
-0.39032	
-0.391602	
-0.391846	
-0.390503	
-0.390686	
-0.39032	
-0.390564	
-0.390564	
-0.391418	
-0.392212	
-0.391296	
-0.390625	
-0.391602	
-0.391724	
-0.391418	
-0.391235	
-0.391113	
-0.390625	
-0.391235	
-0.390869	
-0.392334	
-0.391602	
-0.390991	
-0.391357	
-0.391663	
-0.392273	
-0.391663	
-0.390869	
-0.391846	
-0.391724	
-0.391479	
-0.391907	
-0.392334	
-0.391418	
-0.390137	
-0.391357	
-0.391296	
-0.391235	
-0.390747	
-0.390259	
-0.389771	
-0.390442	
-0.390564	
-0.390137	
-0.389526	
-0.390076	
-0.390564	
-0.389282	
-0.390503	
-0.390076	
-0.390442	
-0.389709	
-0.389771	
-0.38916	
-0.390625	
-0.390747	
-0.390015	
-0.389954	
-0.389771	
-0.390259	
-0.389587	
-0.389771	
-0.389648	
-0.389465	
-0.388916	
-0.389832	
-0.390076	
-0.389648	
-0.38855	
-0.389832	
-0.389587	
-0.389343	
-0.389526	
-0.388855	
-0.387817	
-0.388184	
-0.389404	
-0.388184	
-0.388855	
-0.387939	
-0.388794	
-0.387939	
-0.388977	
-0.387756	
-0.388123	
-0.388367	
-0.389099	
-0.389221	
-0.389832	
-0.390808	
-0.390259	
-0.391174	
-0.390808	
-0.391785	
-0.391541	
-0.390991	
-0.391052	
-0.391602	
-0.391174	
-0.391785	
-0.391541	
-0.391724	
-0.390747	
-0.391357	
-0.389893	
-0.390198	
-0.389893	
-0.388916	
-0.387878	
-0.388428	
-0.389465	
	
