E:\DOCUMENTS AND SETTINGS\JPOTAS\MEUS DOCUMENTOS\UFRJ\RSCI-BM 12 WK SERIES\070727-RSCI-BM-05\RSCI-BM-05-LEMG\070727-RSCI-BM-05-LEMG-0013.ACQ
0.025000 msec/sample
1 channel
Analog input
Volts
CH1	
2000	
-0.385193	
-0.383667	
-0.386658	
-0.386414	
-0.38562	
-0.385315	
-0.385803	
-0.38562	
-0.385437	
-0.38678	
-0.385437	
-0.385315	
-0.384338	
-0.385559	
-0.38562	
-0.384949	
-0.385254	
-0.384827	
-0.385681	
-0.38501	
-0.385925	
-0.386108	
-0.385193	
-0.384583	
-0.382507	
-0.385132	
-0.384644	
-0.384155	
-0.384888	
-0.383972	
-0.385193	
-0.385437	
-0.386841	
-0.38623	
-0.385315	
-0.384521	
-0.38446	
-0.385681	
-0.385376	
-0.385193	
-0.384155	
-0.384399	
-0.384644	
-0.386658	
-0.386414	
-0.384888	
-0.384338	
-0.384827	
-0.386292	
-0.385559	
-0.384888	
-0.384766	
-0.384155	
-0.385071	
-0.386108	
-0.386292	
-0.386414	
-0.385742	
-0.384888	
-0.385864	
-0.387634	
-0.386658	
-0.386108	
-0.385803	
-0.387268	
-0.387573	
-0.387329	
-0.387573	
-0.387817	
-0.387695	
-0.38678	
-0.387878	
-0.388184	
-0.387512	
-0.387451	
-0.386597	
-0.388184	
-0.387634	
-0.388611	
-0.388733	
-0.388184	
-0.386169	
-0.387634	
-0.388123	
-0.387878	
-0.387878	
-0.385986	
-0.387512	
-0.387268	
-0.38916	
-0.387939	
-0.387024	
-0.38678	
-0.387085	
-0.386719	
-0.387024	
-0.386169	
-0.385864	
-0.384399	
-0.385986	
-0.386169	
-0.386658	
-0.385437	
-0.383911	
-0.383545	
-0.383606	
-0.383911	
-0.382507	
-0.382324	
-0.380981	
-0.382568	
-0.382629	
-0.382996	
-0.382263	
-0.382141	
-0.381897	
-0.382141	
-0.383911	
-0.382813	
-0.382935	
-0.383484	
-0.382263	
-0.38324	
-0.38324	
-0.384094	
-0.383301	
-0.383301	
-0.382629	
-0.383057	
-0.384644	
-0.384705	
-0.38446	
-0.384094	
-0.385803	
-0.386902	
-0.387939	
-0.388062	
-0.387146	
-0.38678	
-0.385925	
-0.388489	
-0.387451	
-0.387451	
-0.387207	
-0.387634	
-0.388	
-0.388489	
-0.389709	
-0.389099	
-0.388123	
-0.387268	
-0.388	
-0.388794	
-0.387878	
-0.387878	
-0.387268	
-0.388428	
-0.388428	
-0.389954	
-0.38916	
-0.388428	
-0.38739	
-0.388	
-0.389526	
-0.388062	
-0.387939	
-0.387695	
-0.387634	
-0.387329	
-0.388	
-0.387573	
-0.386902	
-0.38623	
-0.386108	
-0.385132	
-0.38623	
-0.386047	
-0.385986	
-0.38385	
-0.385681	
-0.38562	
-0.385559	
-0.386047	
-0.384827	
-0.383423	
-0.384521	
-0.386719	
-0.385315	
-0.385071	
-0.384705	
-0.385376	
-0.385437	
-0.386414	
-0.385925	
-0.385132	
-0.384827	
-0.384216	
-0.38208	
-0.380188	
-0.379944	
-0.379822	
-0.379089	
-0.379883	
-0.384644	
-0.387207	
-0.388	
-0.387085	
-0.387268	
-0.387268	
-0.389099	
-0.387146	
-0.38739	
-0.38739	
-0.387573	
-0.388123	
-0.388489	
-0.388733	
-0.388428	
-0.387817	
-0.387695	
-0.387329	
-0.388123	
-0.388062	
-0.38855	
-0.386414	
-0.388672	
-0.388611	
-0.389343	
-0.390076	
-0.388733	
-0.387695	
-0.388733	
-0.389465	
-0.389282	
-0.389099	
-0.388062	
-0.388245	
-0.389282	
-0.39032	
-0.389465	
-0.389038	
-0.38855	
-0.388611	
-0.389526	
-0.389648	
-0.388428	
-0.388062	
-0.387939	
-0.388794	
-0.389709	
-0.391296	
-0.3927	
-0.394897	
-0.396973	
-0.398926	
-0.404785	
-0.40741	
-0.411682	
-0.414307	
-0.420166	
-0.424927	
-0.42865	
-0.433289	
-0.436951	
-0.441895	
-0.446777	
-0.45282	
-0.458374	
-0.464905	
-0.472717	
-0.482483	
-0.492676	
-0.502441	
-0.512024	
-0.519348	
-0.52594	
-0.533936	
-0.539307	
-0.542297	
-0.544373	
-0.544983	
-0.54657	
-0.546692	
-0.546936	
-0.545349	
-0.542603	
-0.540649	
-0.538635	
-0.536987	
-0.533508	
-0.531372	
-0.526611	
-0.523254	
-0.519348	
-0.515564	
-0.510376	
-0.505066	
-0.496155	
-0.487305	
-0.484009	
-0.479492	
-0.475403	
-0.471497	
-0.472351	
-0.472412	
-0.470032	
-0.467224	
-0.462769	
-0.458374	
-0.453369	
-0.450134	
-0.448181	
-0.442932	
-0.437866	
-0.43335	
-0.432007	
-0.429932	
-0.42804	
-0.42627	
-0.424622	
-0.424622	
-0.424377	
-0.425232	
-0.42572	
-0.426575	
-0.426636	
-0.426208	
-0.426147	
-0.425842	
-0.426147	
-0.424133	
-0.421448	
-0.417542	
-0.41687	
-0.414673	
-0.41156	
-0.408325	
-0.402893	
-0.401062	
-0.396484	
-0.392273	
-0.38678	
-0.379883	
-0.371826	
-0.366272	
-0.361206	
-0.352905	
-0.34491	
-0.338074	
-0.331116	
-0.32605	
-0.32312	
-0.317993	
-0.31427	
-0.310608	
-0.308594	
-0.30835	
-0.307739	
-0.307861	
-0.308472	
-0.309692	
-0.313049	
-0.316223	
-0.320801	
-0.326172	
-0.331543	
-0.338013	
-0.345947	
-0.352539	
-0.359497	
-0.366272	
-0.372009	
-0.379578	
-0.385925	
-0.391907	
-0.396423	
-0.400574	
-0.404114	
-0.410278	
-0.414124	
-0.418518	
-0.421936	
-0.427429	
-0.431946	
-0.435669	
-0.44043	
-0.443787	
-0.445618	
-0.447083	
-0.450806	
-0.452637	
-0.454346	
-0.454895	
-0.456482	
-0.45697	
-0.455872	
-0.455688	
-0.454346	
-0.4505	
-0.447021	
-0.445496	
-0.443298	
-0.44043	
-0.438049	
-0.435425	
-0.432739	
-0.429932	
-0.427551	
-0.424805	
-0.420349	
-0.415588	
-0.415588	
-0.412598	
-0.409851	
-0.40625	
-0.405212	
-0.403137	
-0.400391	
-0.400635	
-0.3974	
-0.395142	
-0.393311	
-0.393738	
-0.391296	
-0.391052	
-0.389709	
-0.387817	
-0.388184	
-0.387085	
-0.386963	
-0.384399	
-0.38385	
-0.38147	
-0.378784	
-0.377991	
-0.375366	
-0.371887	
-0.367432	
-0.364563	
-0.360229	
-0.355591	
-0.350586	
-0.343628	
-0.335999	
-0.328613	
-0.320984	
-0.311584	
-0.304016	
-0.295715	
-0.288208	
-0.281433	
-0.276367	
-0.273315	
-0.268555	
-0.266174	
-0.264282	
-0.264038	
-0.263855	
-0.263977	
-0.264648	
-0.267273	
-0.269348	
-0.272461	
-0.27771	
-0.281006	
-0.283691	
-0.28656	
-0.29187	
-0.295227	
-0.299438	
-0.303162	
-0.307495	
-0.311829	
-0.316101	
-0.319397	
-0.321289	
-0.323547	
-0.325562	
-0.32782	
-0.330322	
-0.331665	
-0.333679	
-0.335083	
-0.337463	
-0.339783	
-0.341064	
-0.341248	
-0.341858	
-0.342957	
-0.343262	
-0.34314	
-0.342957	
-0.344971	
-0.345154	
-0.346863	
-0.346924	
-0.348389	
-0.347595	
-0.347229	
-0.348083	
-0.349548	
-0.349976	
-0.349304	
-0.351318	
-0.353027	
-0.354065	
-0.354614	
-0.355896	
-0.35614	
-0.357056	
-0.357239	
-0.358704	
-0.359131	
-0.358459	
-0.361084	
-0.362	
-0.362854	
-0.362976	
-0.363281	
-0.363525	
-0.36438	
-0.364441	
-0.364868	
-0.364685	
-0.364319	
-0.366211	
-0.366516	
-0.36676	
-0.366821	
-0.366333	
-0.36554	
-0.36731	
-0.367859	
-0.366516	
-0.366577	
-0.367188	
-0.36731	
-0.367432	
-0.367126	
-0.368103	
-0.368958	
-0.368164	
-0.367676	
-0.368958	
-0.368103	
-0.367798	
-0.369202	
-0.36969	
-0.370422	
-0.370117	
-0.3703	
-0.370544	
-0.370483	
-0.369019	
-0.370544	
-0.370056	
-0.36969	
-0.370056	
-0.370422	
-0.371033	
-0.370667	
-0.371155	
-0.371033	
-0.371033	
-0.370117	
-0.371277	
-0.370239	
-0.371155	
-0.370911	
-0.370422	
-0.371643	
-0.371765	
-0.372559	
-0.371155	
-0.371643	
-0.372192	
-0.372437	
-0.37207	
-0.373413	
-0.373413	
-0.375244	
-0.375366	
-0.376099	
-0.376953	
-0.378052	
-0.377502	
-0.378052	
-0.377563	
-0.377502	
-0.378113	
-0.378784	
-0.379639	
-0.379333	
-0.379395	
-0.379395	
-0.379456	
-0.379028	
-0.379578	
-0.37854	
-0.37793	
-0.378479	
-0.379333	
-0.379395	
-0.378723	
-0.378967	
-0.378418	
-0.37915	
-0.37915	
-0.377869	
-0.377686	
-0.377563	
-0.377563	
-0.377747	
-0.377136	
-0.376831	
-0.376587	
-0.377869	
-0.376709	
-0.376709	
-0.375061	
-0.375183	
-0.374939	
-0.375	
-0.375671	
-0.373779	
-0.373596	
-0.373169	
-0.374634	
-0.374939	
-0.37384	
-0.37262	
-0.37384	
-0.373962	
-0.375	
-0.375671	
-0.375244	
-0.375854	
-0.376221	
-0.377014	
-0.377136	
-0.376892	
-0.375977	
-0.37616	
-0.376648	
-0.37854	
-0.378967	
-0.378967	
-0.379272	
-0.378845	
-0.380615	
-0.380249	
-0.378906	
-0.378418	
-0.379089	
-0.379333	
-0.380249	
-0.379761	
-0.379944	
-0.380371	
-0.381104	
-0.380615	
-0.380066	
-0.379883	
-0.379639	
-0.380615	
-0.379883	
-0.381165	
-0.380432	
-0.380737	
-0.380432	
-0.381348	
-0.381165	
-0.380005	
-0.379822	
-0.380066	
-0.380798	
-0.37915	
-0.380676	
-0.380615	
-0.380554	
-0.380676	
-0.381592	
-0.381836	
-0.381042	
-0.380371	
-0.380798	
-0.38092	
-0.380615	
-0.381287	
-0.380981	
-0.380493	
-0.380493	
-0.379456	
-0.381653	
-0.380676	
-0.382019	
-0.381348	
-0.380676	
-0.381592	
-0.381592	
-0.38269	
-0.381897	
-0.38208	
-0.381653	
-0.382446	
-0.382019	
-0.382202	
-0.381287	
-0.379761	
-0.38147	
-0.381958	
-0.381897	
-0.382019	
-0.381714	
-0.381409	
-0.38269	
-0.38208	
-0.382568	
-0.38147	
-0.380981	
-0.382507	
-0.383179	
-0.382874	
-0.38269	
-0.383179	
-0.382874	
-0.384216	
-0.383728	
-0.384583	
-0.383789	
-0.383789	
-0.384399	
-0.384888	
-0.386047	
-0.385498	
-0.385803	
-0.386047	
-0.386841	
-0.386169	
-0.385803	
-0.385681	
-0.385376	
-0.385071	
-0.386475	
-0.38678	
-0.386597	
-0.386902	
-0.386841	
-0.387329	
-0.386902	
-0.386719	
-0.386108	
-0.386536	
-0.386108	
-0.386475	
-0.387329	
-0.387207	
-0.38623	
-0.386902	
-0.38678	
-0.386169	
-0.385376	
-0.384033	
-0.385193	
-0.385681	
-0.385071	
-0.386169	
-0.384888	
-0.384705	
-0.384888	
-0.384521	
-0.383911	
-0.381592	
-0.380981	
-0.381836	
-0.382141	
-0.382019	
-0.382507	
-0.382141	
-0.382385	
-0.382385	
-0.382385	
-0.382751	
-0.380798	
-0.380981	
-0.382446	
-0.382446	
-0.382568	
-0.383057	
-0.383362	
-0.382996	
-0.383179	
-0.383484	
-0.38324	
-0.381958	
-0.382935	
-0.382629	
-0.383484	
-0.38446	
-0.385742	
-0.386841	
-0.38678	
-0.387878	
-0.387085	
-0.388	
-0.387146	
-0.387451	
-0.387451	
-0.387573	
-0.388	
-0.387878	
-0.388611	
-0.38855	
-0.389221	
-0.388062	
-0.388672	
-0.388611	
-0.388306	
-0.387878	
-0.388306	
-0.388672	
-0.388794	
-0.389893	
-0.389221	
-0.389282	
-0.38916	
-0.389099	
-0.388733	
-0.387146	
-0.388489	
-0.388184	
-0.388855	
-0.389221	
-0.389038	
-0.388428	
-0.388428	
-0.387878	
-0.38623	
-0.387329	
-0.385986	
-0.386719	
-0.385986	
-0.385864	
-0.386475	
-0.386841	
-0.387329	
-0.386169	
-0.387329	
-0.386719	
-0.386475	
-0.38562	
-0.385803	
-0.38501	
-0.385071	
-0.386719	
-0.386047	
-0.387024	
-0.386658	
-0.387207	
-0.38623	
-0.386963	
-0.38739	
-0.386658	
-0.386414	
-0.386902	
-0.387085	
-0.387573	
-0.388184	
-0.388184	
-0.388916	
-0.388123	
-0.388	
-0.388123	
-0.387512	
-0.388062	
-0.387634	
-0.387756	
-0.388	
-0.389282	
-0.38855	
-0.387817	
-0.38855	
-0.388611	
-0.387939	
-0.388123	
-0.388794	
-0.388733	
-0.389343	
-0.389282	
-0.390137	
-0.388977	
-0.389832	
-0.390137	
-0.388489	
-0.389771	
-0.389404	
-0.389526	
-0.389526	
-0.389832	
-0.39032	
-0.390442	
-0.391235	
-0.390747	
-0.391052	
-0.390137	
-0.390564	
-0.390198	
-0.390503	
-0.388916	
-0.39032	
-0.390198	
-0.389709	
-0.389832	
-0.389282	
-0.388428	
-0.388306	
-0.388306	
-0.387939	
-0.387024	
-0.386658	
-0.386414	
-0.386597	
-0.386292	
-0.38623	
-0.386414	
-0.38623	
-0.386292	
-0.386475	
-0.385925	
-0.385559	
-0.387085	
-0.385864	
-0.386841	
-0.387268	
-0.387695	
-0.38855	
-0.388733	
-0.38916	
-0.388123	
-0.388489	
-0.389099	
-0.389465	
-0.387817	
-0.388733	
-0.390198	
-0.390625	
-0.39093	
-0.391479	
-0.391235	
-0.391296	
-0.390808	
-0.39209	
-0.39209	
-0.391541	
-0.392334	
-0.393677	
-0.394409	
-0.39502	
-0.396301	
-0.396057	
-0.39624	
-0.396423	
-0.395142	
-0.395508	
-0.39502	
-0.395264	
-0.394775	
-0.394897	
-0.394897	
-0.395935	
-0.395447	
-0.394836	
-0.394775	
-0.393982	
-0.39447	
-0.394043	
-0.392578	
-0.393127	
-0.3927	
-0.392456	
-0.3927	
-0.394043	
-0.393555	
-0.392395	
-0.39209	
-0.392578	
-0.392151	
-0.391724	
-0.39209	
-0.392517	
-0.392395	
-0.392761	
-0.394043	
-0.392883	
-0.39209	
-0.392578	
-0.392273	
-0.392334	
-0.392578	
-0.392761	
-0.392944	
-0.392212	
-0.393066	
-0.393799	
-0.393188	
-0.392151	
-0.392578	
-0.391602	
-0.392944	
-0.392639	
-0.392822	
-0.392578	
-0.393127	
-0.393005	
-0.39386	
-0.394531	
-0.393005	
-0.393188	
-0.392273	
-0.392822	
-0.39386	
-0.393738	
-0.393677	
-0.393555	
-0.394531	
-0.394287	
-0.395874	
-0.394348	
-0.393982	
-0.392883	
-0.3927	
-0.393005	
-0.392578	
-0.393066	
-0.391663	
-0.392578	
-0.392822	
-0.394348	
-0.39386	
-0.392212	
-0.392578	
-0.392639	
-0.393616	
-0.3927	
-0.392761	
-0.393005	
-0.392639	
-0.392822	
-0.393494	
-0.393921	
-0.392517	
-0.3927	
-0.391174	
-0.3927	
-0.392273	
-0.392456	
-0.39209	
-0.390686	
-0.39209	
-0.392273	
-0.393188	
-0.391541	
-0.391418	
-0.390564	
-0.390625	
-0.391785	
-0.389587	
-0.390015	
-0.389771	
-0.390259	
-0.390198	
-0.39093	
-0.390503	
-0.389832	
-0.389221	
-0.389404	
-0.390015	
-0.388672	
-0.388855	
-0.389771	
-0.389343	
-0.388916	
-0.389832	
-0.389832	
-0.38916	
-0.389282	
-0.389404	
-0.389587	
-0.389587	
-0.388611	
-0.389893	
-0.389526	
-0.390076	
-0.390686	
-0.390686	
-0.390442	
-0.390686	
-0.389404	
-0.389893	
-0.392029	
-0.390625	
-0.392151	
-0.391907	
-0.392517	
-0.393494	
-0.394714	
-0.395081	
-0.394104	
-0.394409	
-0.394348	
-0.394836	
-0.394287	
-0.394287	
-0.394165	
-0.393921	
-0.394653	
-0.394226	
-0.394104	
-0.394043	
-0.394409	
-0.392456	
-0.3927	
-0.393738	
-0.393799	
-0.393738	
-0.392212	
-0.393433	
-0.393555	
-0.39325	
-0.393555	
-0.392517	
-0.390076	
-0.391113	
-0.391235	
-0.389404	
-0.389832	
-0.388855	
-0.389526	
-0.389465	
-0.390442	
-0.389954	
-0.389038	
-0.388306	
-0.388672	
-0.388855	
-0.387634	
-0.388062	
-0.388	
-0.387878	
-0.387878	
-0.388611	
-0.388611	
-0.388062	
-0.387878	
-0.386536	
-0.387451	
-0.388	
-0.388062	
-0.387878	
-0.388	
-0.38855	
-0.389099	
-0.389465	
-0.389526	
-0.388733	
-0.387695	
-0.388733	
-0.389282	
-0.389099	
-0.389648	
-0.389221	
-0.389954	
-0.389709	
-0.391235	
-0.390991	
-0.391296	
-0.39032	
-0.390991	
-0.390381	
-0.390381	
-0.390991	
-0.391113	
-0.391663	
-0.391724	
-0.392456	
-0.391174	
-0.391907	
-0.391357	
-0.390686	
-0.390564	
-0.390747	
-0.391479	
-0.391724	
-0.391479	
-0.391602	
-0.391846	
-0.391968	
-0.39209	
-0.391113	
-0.389709	
-0.389221	
-0.390625	
-0.389404	
-0.389526	
-0.389038	
-0.389343	
-0.389648	
-0.389709	
-0.389343	
-0.390686	
-0.387695	
-0.388733	
-0.388672	
-0.388916	
-0.389099	
-0.388245	
-0.388611	
-0.388916	
-0.389465	
-0.389099	
-0.389709	
-0.387878	
-0.387634	
-0.387939	
-0.387573	
-0.387146	
-0.387329	
-0.386719	
-0.387878	
-0.387573	
-0.388123	
-0.388062	
-0.387695	
-0.386841	
-0.387329	
-0.387695	
-0.387451	
-0.387268	
-0.386902	
-0.38739	
-0.387573	
-0.387146	
-0.388123	
-0.387817	
-0.387512	
-0.387695	
-0.388184	
-0.389465	
-0.389587	
-0.390198	
-0.389526	
-0.390564	
-0.391113	
-0.392334	
-0.391785	
-0.390198	
-0.390686	
-0.391235	
-0.391846	
-0.391663	
-0.39093	
-0.390442	
-0.390991	
-0.390747	
-0.391052	
-0.390869	
-0.390259	
-0.38916	
-0.389771	
-0.389343	
-0.389221	
-0.388977	
-0.388855	
-0.388306	
-0.388855	
-0.389832	
-0.388672	
-0.388855	
-0.386658	
-0.387573	
-0.386536	
-0.386841	
-0.38623	
-0.385925	
-0.385193	
-0.385803	
-0.386108	
-0.385376	
-0.385742	
-0.383789	
-0.383484	
-0.382996	
-0.382874	
-0.382141	
-0.382324	
-0.382507	
-0.383301	
-0.384094	
-0.383545	
-0.383301	
-0.383911	
-0.383545	
-0.38385	
-0.383118	
-0.384766	
-0.384521	
-0.383972	
-0.383606	
-0.384888	
-0.384705	
-0.385864	
-0.386597	
-0.384583	
-0.385376	
-0.384521	
-0.386658	
-0.38623	
-0.385925	
-0.38623	
-0.386292	
-0.387329	
-0.38623	
-0.387451	
-0.385315	
-0.38501	
-0.385315	
-0.386597	
-0.386353	
-0.386108	
-0.385864	
-0.385315	
-0.386536	
-0.387268	
-0.386902	
-0.386841	
-0.386292	
-0.386597	
-0.385742	
-0.386841	
-0.385681	
-0.385986	
-0.385315	
-0.386108	
-0.386169	
-0.386292	
-0.386536	
-0.385071	
-0.384583	
-0.385559	
-0.386414	
-0.386963	
-0.386475	
-0.386292	
-0.386719	
-0.386353	
-0.386902	
-0.386902	
-0.38562	
-0.384277	
-0.384583	
-0.385132	
-0.386292	
-0.386292	
-0.38623	
-0.386597	
-0.387207	
-0.388489	
-0.387512	
-0.387451	
-0.385559	
-0.38623	
-0.386475	
-0.387207	
-0.386353	
-0.386292	
-0.386475	
-0.386902	
-0.387573	
-0.386841	
-0.387085	
-0.386353	
-0.385376	
-0.385315	
-0.386536	
-0.386902	
-0.386963	
-0.386719	
-0.387146	
-0.387817	
-0.387939	
-0.388	
-0.388489	
-0.386658	
-0.387329	
-0.387939	
-0.387695	
-0.388062	
-0.38855	
-0.387695	
-0.389282	
-0.390442	
-0.389282	
-0.389709	
-0.389343	
-0.388855	
-0.388977	
-0.389832	
-0.390198	
-0.389954	
-0.389343	
-0.389587	
-0.39032	
-0.389893	
-0.39032	
-0.389282	
-0.388611	
-0.388306	
-0.389343	
-0.389587	
-0.389221	
-0.388916	
-0.389282	
-0.389709	
-0.390564	
-0.390076	
-0.390015	
-0.387817	
-0.388611	
-0.388245	
-0.389099	
-0.388	
-0.387634	
-0.387817	
-0.388123	
-0.388062	
-0.387329	
-0.387634	
-0.386047	
-0.385193	
-0.385193	
-0.385254	
-0.384888	
-0.384521	
-0.384155	
-0.384338	
-0.384583	
-0.385376	
-0.385437	
-0.385071	
-0.382935	
-0.384888	
-0.384766	
-0.385193	
-0.385498	
-0.385254	
-0.38501	
-0.38562	
-0.387085	
-0.386292	
-0.386658	
-0.38501	
-0.385986	
-0.385986	
-0.387939	
-0.386963	
-0.387756	
-0.388184	
-0.389099	
-0.390564	
-0.389404	
-0.389954	
-0.389526	
-0.389648	
-0.388855	
-0.389221	
-0.389832	
-0.390564	
-0.390137	
-0.390442	
-0.391052	
-0.39093	
-0.391357	
-0.391602	
-0.389038	
-0.390503	
-0.39093	
-0.39093	
-0.390991	
-0.390442	
-0.390137	
-0.391296	
-0.392517	
-0.390625	
-0.391907	
-0.390625	
-0.391052	
-0.389404	
-0.391602	
-0.390808	
-0.390808	
-0.390259	
-0.390259	
-0.390442	
-0.389404	
-0.390381	
-0.389038	
-0.38855	
-0.388672	
-0.388123	
-0.389038	
-0.388367	
-0.388367	
-0.387085	
-0.388611	
-0.388184	
-0.388489	
-0.389038	
-0.387268	
-0.387939	
-0.386536	
-0.388733	
-0.38739	
-0.387207	
-0.387512	
-0.388184	
-0.389709	
-0.38855	
-0.389099	
-0.387329	
-0.387695	
-0.388367	
-0.389038	
-0.38916	
-0.388672	
-0.388977	
-0.389465	
-0.390503	
-0.390625	
-0.390686	
-0.39032	
-0.389648	
-0.389465	
-0.389343	
-0.390137	
-0.389954	
-0.390076	
-0.390015	
-0.390625	
-0.390808	
-0.390442	
-0.390564	
-0.390015	
-0.390625	
-0.388123	
-0.391357	
-0.39093	
-0.391602	
-0.391479	
-0.391846	
-0.391541	
-0.391968	
-0.393066	
-0.390808	
-0.390259	
-0.391235	
-0.391846	
-0.392395	
-0.391968	
-0.391663	
-0.391968	
-0.392395	
-0.393127	
-0.392273	
-0.392395	
-0.392212	
-0.391907	
-0.390503	
-0.392212	
-0.391418	
-0.390869	
-0.389954	
-0.390869	
-0.390198	
-0.389526	
-0.390625	
-0.388367	
-0.387451	
-0.387878	
-0.388733	
-0.387756	
-0.387573	
-0.388123	
-0.388367	
-0.38855	
-0.388428	
-0.389099	
-0.387268	
-0.387573	
-0.388123	
-0.38739	
-0.388794	
-0.388733	
-0.389404	
-0.38855	
-0.390625	
-0.390503	
-0.390442	
-0.391602	
-0.390442	
-0.391296	
-0.39093	
-0.392029	
-0.392151	
-0.392517	
-0.391968	
-0.392944	
-0.393311	
-0.394165	
-0.393921	
-0.393127	
-0.393616	
-0.394287	
-0.394714	
-0.395874	
-0.395996	
-0.396606	
-0.396851	
-0.398071	
-0.397644	
-0.397156	
-0.396973	
-0.396118	
-0.396057	
-0.394531	
-0.395996	
-0.395386	
-0.395752	
-0.39502	
-0.396851	
-0.396851	
-0.395996	
-0.396484	
-0.395081	
-0.39563	
-0.394592	
-0.394714	
-0.393616	
-0.393677	
-0.393555	
-0.393738	
-0.394287	
-0.394104	
-0.393311	
-0.39447	
-0.393677	
-0.393677	
-0.3927	
-0.393555	
-0.393921	
-0.393555	
-0.39325	
-0.394226	
-0.393982	
-0.393616	
-0.394897	
-0.392212	
-0.392273	
-0.3927	
-0.39447	
-0.393738	
-0.393677	
-0.393555	
-0.39386	
-0.395203	
-0.394409	
-0.394287	
-0.393127	
-0.392273	
-0.393921	
-0.39325	
-0.394897	
-0.394104	
-0.39447	
-0.394287	
-0.395935	
-0.395142	
-0.394897	
-0.39502	
-0.394287	
-0.395203	
-0.395203	
-0.395386	
-0.395935	
-0.395081	
-0.395081	
-0.395081	
-0.394714	
-0.393127	
-0.394104	
-0.393738	
-0.394287	
-0.393372	
-0.39325	
-0.393555	
-0.393677	
-0.393799	
-0.393494	
-0.394897	
-0.395081	
-0.39447	
-0.394836	
-0.393372	
-0.394165	
-0.393372	
-0.394958	
-0.393677	
-0.393555	
-0.39386	
-0.393677	
-0.394287	
-0.393555	
-0.394104	
-0.39209	
-0.393311	
-0.392334	
-0.392822	
-0.393555	
-0.392761	
-0.392273	
-0.392212	
-0.393555	
-0.391907	
-0.391724	
-0.390686	
-0.391479	
-0.391113	
-0.390015	
-0.391785	
-0.390869	
-0.39093	
-0.39093	
-0.391968	
-0.390503	
-0.39093	
-0.391541	
-0.389771	
-0.390503	
-0.389893	
-0.39032	
-0.390137	
-0.390564	
-0.390564	
-0.389404	
-0.392639	
-0.390564	
-0.391785	
-0.390869	
-0.391113	
-0.390564	
-0.390381	
-0.391846	
-0.391602	
-0.392578	
-0.391968	
-0.393127	
-0.392273	
-0.3927	
-0.392883	
-0.393616	
-0.393372	
-0.394287	
-0.394165	
-0.395508	
-0.395142	
-0.395813	
-0.395752	
-0.395813	
-0.395935	
-0.396484	
-0.395569	
-0.395691	
-0.394958	
-0.395386	
-0.396301	
-0.395447	
-0.394653	
-0.394958	
-0.396118	
-0.395386	
-0.394958	
-0.394226	
-0.394409	
-0.394714	
-0.394104	
-0.394531	
-0.394226	
-0.393982	
-0.393982	
-0.393127	
-0.392761	
-0.392578	
-0.391418	
-0.389771	
-0.390808	
-0.390076	
-0.390381	
-0.391357	
-0.390137	
-0.390198	
-0.389893	
-0.390381	
-0.389832	
-0.39032	
-0.38855	
-0.389221	
-0.388916	
-0.389587	
-0.388489	
-0.389099	
-0.388855	
-0.389282	
-0.390625	
-0.389221	
-0.389465	
-0.388367	
-0.389526	
-0.388977	
-0.389343	
-0.389038	
-0.390625	
-0.389954	
-0.390198	
-0.390137	
-0.390564	
-0.390564	
-0.391785	
-0.390259	
-0.391052	
-0.390198	
-0.391174	
-0.391907	
-0.391968	
-0.391968	
-0.392334	
-0.392883	
-0.392456	
-0.392761	
-0.391846	
-0.392334	
-0.392517	
-0.392456	
-0.392212	
-0.393494	
-0.39325	
-0.392761	
-0.392761	
-0.392639	
-0.39386	
-0.393188	
-0.393188	
-0.392883	
-0.392944	
-0.392639	
-0.393555	
-0.392639	
-0.392029	
-0.391663	
-0.39209	
-0.39209	
-0.391724	
-0.389832	
-0.390747	
-0.390564	
-0.390869	
-0.390625	
-0.390808	
-0.390686	
-0.390564	
-0.390747	
-0.391235	
-0.391541	
-0.390625	
-0.390198	
-0.390381	
-0.39032	
-0.390259	
-0.390259	
-0.389893	
-0.389709	
-0.389526	
-0.391663	
-0.390198	
-0.389282	
-0.389282	
-0.389709	
-0.388977	
-0.389648	
-0.388733	
-0.38916	
-0.389099	
-0.389343	
-0.389954	
-0.389404	
-0.389099	
-0.388794	
-0.389526	
-0.387573	
-0.389038	
-0.388489	
-0.389465	
-0.389404	
-0.389954	
-0.389587	
-0.391235	
-0.391968	
-0.391357	
-0.391541	
-0.391846	
-0.392517	
-0.392334	
-0.394043	
-0.393433	
-0.39325	
-0.393188	
-0.393982	
-0.393616	
-0.393616	
-0.392944	
-0.392944	
-0.391785	
-0.392944	
-0.392212	
-0.393127	
-0.392578	
-0.391968	
-0.391724	
-0.391968	
-0.39209	
-0.39032	
-0.38916	
-0.389893	
-0.390747	
-0.39032	
-0.390564	
-0.389587	
-0.389526	
-0.389648	
-0.390747	
-0.389282	
-0.388	
-0.387878	
-0.387451	
-0.38739	
-0.387146	
-0.385742	
-0.386536	
-0.386047	
-0.385498	
-0.385132	
-0.385498	
-0.385742	
-0.384521	
-0.384155	
-0.385437	
-0.385437	
-0.385681	
-0.386475	
-0.385925	
-0.385315	
-0.385742	
-0.387146	
-0.38678	
-0.386353	
-0.385803	
-0.386414	
-0.386597	
-0.387268	
-0.387085	
-0.387817	
-0.388	
-0.388	
-0.388245	
-0.388611	
-0.387939	
-0.387512	
-0.388062	
-0.388306	
-0.388489	
-0.38855	
-0.388428	
-0.388306	
-0.388062	
-0.387695	
-0.389893	
-0.389038	
-0.388184	
-0.388123	
-0.38855	
-0.388794	
-0.387939	
	
