E:\DOCUMENTS AND SETTINGS\JPOTAS\MEUS DOCUMENTOS\UFRJ\RSCI-BM 12 WK SERIES\070727-RSCI-BM-05\RSCI-BM-05-LEMG\070727-RSCI-BM-05-LEMG-0007.ACQ
0.025000 msec/sample
1 channel
Analog input
Volts
CH1	
2000	
-0.392212	
-0.390869	
-0.390808	
-0.390869	
-0.390869	
-0.39032	
-0.391113	
-0.39093	
-0.389893	
-0.390015	
-0.389587	
-0.390137	
-0.390625	
-0.389099	
-0.389893	
-0.389954	
-0.389893	
-0.390076	
-0.391113	
-0.390381	
-0.390259	
-0.390991	
-0.390259	
-0.390442	
-0.391663	
-0.390503	
-0.389526	
-0.390869	
-0.391663	
-0.392151	
-0.392578	
-0.393677	
-0.394043	
-0.39502	
-0.395264	
-0.395569	
-0.395752	
-0.396057	
-0.395386	
-0.395569	
-0.396118	
-0.39624	
-0.397034	
-0.396423	
-0.396179	
-0.396057	
-0.395752	
-0.39624	
-0.39563	
-0.395996	
-0.395996	
-0.395569	
-0.395386	
-0.395996	
-0.395691	
-0.395325	
-0.39502	
-0.393494	
-0.39447	
-0.394836	
-0.393311	
-0.393311	
-0.392822	
-0.391907	
-0.39209	
-0.391541	
-0.390686	
-0.390686	
-0.389954	
-0.388489	
-0.389771	
-0.390015	
-0.388855	
-0.388672	
-0.389038	
-0.388733	
-0.388672	
-0.389648	
-0.389221	
-0.388245	
-0.388977	
-0.38855	
-0.388123	
-0.388245	
-0.38739	
-0.387817	
-0.387756	
-0.38916	
-0.389221	
-0.390015	
-0.390625	
-0.390076	
-0.390259	
-0.390015	
-0.390198	
-0.389832	
-0.389954	
-0.390137	
-0.390076	
-0.391052	
-0.391541	
-0.391846	
-0.39209	
-0.391785	
-0.392151	
-0.391846	
-0.392578	
-0.392151	
-0.391846	
-0.391907	
-0.392212	
-0.392334	
-0.392883	
-0.393066	
-0.392273	
-0.392517	
-0.392578	
-0.392334	
-0.393677	
-0.392944	
-0.3927	
-0.393127	
-0.392456	
-0.392639	
-0.393005	
-0.393555	
-0.39325	
-0.393188	
-0.392517	
-0.392822	
-0.392395	
-0.390747	
-0.391052	
-0.391296	
-0.392151	
-0.391785	
-0.392517	
-0.392456	
-0.391602	
-0.391235	
-0.392273	
-0.391724	
-0.39209	
-0.391357	
-0.390076	
-0.390747	
-0.391724	
-0.391479	
-0.391907	
-0.391724	
-0.390747	
-0.391113	
-0.391235	
-0.39093	
-0.39032	
-0.389587	
-0.38916	
-0.389038	
-0.390015	
-0.390198	
-0.390869	
-0.390076	
-0.389404	
-0.389587	
-0.390747	
-0.390686	
-0.389526	
-0.388367	
-0.389526	
-0.389099	
-0.389282	
-0.389465	
-0.389282	
-0.390503	
-0.389343	
-0.38916	
-0.39032	
-0.390503	
-0.389893	
-0.389709	
-0.390442	
-0.390503	
-0.390869	
-0.391296	
-0.391602	
-0.391846	
-0.39209	
-0.391968	
-0.3927	
-0.393555	
-0.393494	
-0.39325	
-0.392761	
-0.393494	
-0.393799	
-0.39447	
-0.39325	
-0.389954	
-0.386719	
-0.387329	
-0.386719	
-0.386658	
-0.386169	
-0.390198	
-0.391724	
-0.392639	
-0.392212	
-0.392517	
-0.391907	
-0.390686	
-0.390503	
-0.389526	
-0.389709	
-0.389099	
-0.387634	
-0.386475	
-0.385925	
-0.386108	
-0.385925	
-0.385986	
-0.385681	
-0.384949	
-0.384216	
-0.384583	
-0.385315	
-0.384094	
-0.381958	
-0.382935	
-0.383179	
-0.3797	
-0.377258	
-0.376709	
-0.377502	
-0.376648	
-0.377258	
-0.380981	
-0.383423	
-0.383057	
-0.383179	
-0.382996	
-0.383972	
-0.383484	
-0.383545	
-0.384277	
-0.384399	
-0.385437	
-0.385925	
-0.386658	
-0.388489	
-0.388733	
-0.390869	
-0.393127	
-0.396973	
-0.400085	
-0.40448	
-0.407715	
-0.411438	
-0.414612	
-0.419128	
-0.4245	
-0.427917	
-0.430359	
-0.434631	
-0.43866	
-0.442993	
-0.447754	
-0.451294	
-0.456909	
-0.461548	
-0.467896	
-0.476257	
-0.482971	
-0.489014	
-0.49707	
-0.502991	
-0.509033	
-0.513245	
-0.516785	
-0.518372	
-0.517883	
-0.517456	
-0.516602	
-0.515137	
-0.512451	
-0.509644	
-0.506165	
-0.502808	
-0.499146	
-0.49585	
-0.491516	
-0.487915	
-0.483093	
-0.479126	
-0.473755	
-0.468018	
-0.463074	
-0.457336	
-0.451721	
-0.448181	
-0.443298	
-0.440247	
-0.436707	
-0.433655	
-0.430969	
-0.428406	
-0.425842	
-0.422913	
-0.419189	
-0.417297	
-0.414307	
-0.411926	
-0.409851	
-0.40802	
-0.406189	
-0.403259	
-0.402527	
-0.401611	
-0.401123	
-0.400085	
-0.400452	
-0.400269	
-0.402771	
-0.404846	
-0.406311	
-0.407776	
-0.408936	
-0.410278	
-0.411621	
-0.41217	
-0.411926	
-0.411743	
-0.411804	
-0.410461	
-0.410461	
-0.409546	
-0.407593	
-0.405884	
-0.403076	
-0.399963	
-0.397705	
-0.394714	
-0.390015	
-0.386414	
-0.381836	
-0.376892	
-0.371704	
-0.36676	
-0.360535	
-0.356018	
-0.349609	
-0.344238	
-0.33905	
-0.335083	
-0.330078	
-0.325745	
-0.321594	
-0.320435	
-0.318237	
-0.3172	
-0.315674	
-0.316467	
-0.31604	
-0.317749	
-0.319824	
-0.321289	
-0.32373	
-0.325867	
-0.328979	
-0.332275	
-0.335632	
-0.337708	
-0.340149	
-0.341675	
-0.342896	
-0.344055	
-0.344238	
-0.34259	
-0.342224	
-0.341614	
-0.342712	
-0.34198	
-0.343079	
-0.342529	
-0.343018	
-0.343994	
-0.344604	
-0.345642	
-0.346924	
-0.348633	
-0.349609	
-0.352417	
-0.354553	
-0.357056	
-0.358582	
-0.360413	
-0.36261	
-0.365234	
-0.366577	
-0.36853	
-0.369629	
-0.371399	
-0.373657	
-0.375732	
-0.37738	
-0.378296	
-0.379272	
-0.379272	
-0.380127	
-0.381653	
-0.380554	
-0.380676	
-0.380615	
-0.380676	
-0.380737	
-0.380066	
-0.379456	
-0.379517	
-0.379028	
-0.377075	
-0.377258	
-0.375244	
-0.374817	
-0.374146	
-0.371643	
-0.372131	
-0.370361	
-0.369812	
-0.367188	
-0.365967	
-0.36322	
-0.360901	
-0.359863	
-0.35614	
-0.352173	
-0.350159	
-0.347717	
-0.34491	
-0.341919	
-0.339661	
-0.336792	
-0.333557	
-0.329834	
-0.327637	
-0.325073	
-0.322998	
-0.32135	
-0.320313	
-0.321899	
-0.322021	
-0.323181	
-0.325073	
-0.327087	
-0.329224	
-0.33429	
-0.336853	
-0.34137	
-0.344543	
-0.348206	
-0.35376	
-0.357422	
-0.361206	
-0.363953	
-0.368042	
-0.36853	
-0.372559	
-0.374023	
-0.374939	
-0.375366	
-0.37561	
-0.377014	
-0.377014	
-0.378113	
-0.377258	
-0.377197	
-0.376831	
-0.377136	
-0.37793	
-0.377075	
-0.377014	
-0.376038	
-0.377747	
-0.378296	
-0.379211	
-0.379578	
-0.380554	
-0.380554	
-0.380798	
-0.38324	
-0.382141	
-0.382019	
-0.382385	
-0.381775	
-0.383911	
-0.384094	
-0.38446	
-0.384216	
-0.384338	
-0.384399	
-0.384766	
-0.384216	
-0.384216	
-0.384338	
-0.382385	
-0.383667	
-0.383057	
-0.383789	
-0.382263	
-0.382141	
-0.380859	
-0.380859	
-0.380493	
-0.378784	
-0.37793	
-0.376282	
-0.375977	
-0.37616	
-0.375793	
-0.375061	
-0.374756	
-0.374023	
-0.372986	
-0.373962	
-0.372437	
-0.372681	
-0.37146	
-0.370728	
-0.371765	
-0.372192	
-0.371643	
-0.371521	
-0.37262	
-0.371338	
-0.370239	
-0.373169	
-0.371033	
-0.370972	
-0.370789	
-0.371216	
-0.371704	
-0.371826	
-0.372742	
-0.372559	
-0.373474	
-0.373108	
-0.374329	
-0.375244	
-0.375183	
-0.37561	
-0.374878	
-0.377625	
-0.378662	
-0.379089	
-0.3797	
-0.38031	
-0.380615	
-0.380615	
-0.381592	
-0.380737	
-0.381348	
-0.381226	
-0.381104	
-0.382385	
-0.382568	
-0.383179	
-0.382874	
-0.384094	
-0.383728	
-0.382996	
-0.385498	
-0.383484	
-0.383667	
-0.383118	
-0.383911	
-0.384644	
-0.384644	
-0.384705	
-0.384094	
-0.385132	
-0.383423	
-0.38501	
-0.38446	
-0.384094	
-0.383179	
-0.382446	
-0.383484	
-0.383484	
-0.383118	
-0.382507	
-0.382385	
-0.381897	
-0.38147	
-0.382385	
-0.38208	
-0.381653	
-0.380859	
-0.381104	
-0.382141	
-0.382507	
-0.383362	
-0.382751	
-0.383179	
-0.383057	
-0.38385	
-0.383484	
-0.383118	
-0.382874	
-0.382019	
-0.383911	
-0.383728	
-0.384216	
-0.384033	
-0.384277	
-0.383789	
-0.38446	
-0.386719	
-0.383728	
-0.384399	
-0.38385	
-0.384827	
-0.384888	
-0.385742	
-0.384827	
-0.384033	
-0.384949	
-0.384583	
-0.385864	
-0.384705	
-0.384827	
-0.384644	
-0.382996	
-0.38446	
-0.384827	
-0.385132	
-0.385193	
-0.384888	
-0.38501	
-0.384888	
-0.386841	
-0.384216	
-0.38562	
-0.385559	
-0.386536	
-0.386047	
-0.385864	
-0.387085	
-0.385803	
-0.38623	
-0.385803	
-0.387573	
-0.386963	
-0.385742	
-0.386536	
-0.384277	
-0.38739	
-0.388	
-0.388367	
-0.387939	
-0.388184	
-0.388977	
-0.387329	
-0.389404	
-0.387695	
-0.387756	
-0.387329	
-0.386841	
-0.388367	
-0.388062	
-0.388062	
-0.387756	
-0.388123	
-0.387329	
-0.388062	
-0.388611	
-0.385498	
-0.386108	
-0.385376	
-0.386353	
-0.386292	
-0.386414	
-0.38678	
-0.386414	
-0.386841	
-0.385498	
-0.387756	
-0.386169	
-0.386169	
-0.385986	
-0.385559	
-0.385925	
-0.386719	
-0.388123	
-0.386963	
-0.387695	
-0.388245	
-0.388611	
-0.388794	
-0.387512	
-0.38916	
-0.388733	
-0.390808	
-0.391663	
-0.391724	
-0.393005	
-0.392456	
-0.393311	
-0.392639	
-0.393372	
-0.392944	
-0.392761	
-0.392395	
-0.390991	
-0.393066	
-0.393066	
-0.393066	
-0.392883	
-0.393677	
-0.393982	
-0.393494	
-0.394165	
-0.392334	
-0.392334	
-0.390137	
-0.392273	
-0.392212	
-0.391907	
-0.391296	
-0.391113	
-0.390625	
-0.39032	
-0.392212	
-0.389954	
-0.388062	
-0.387878	
-0.387451	
-0.387573	
-0.387085	
-0.387512	
-0.386536	
-0.386719	
-0.38739	
-0.386536	
-0.386169	
-0.385254	
-0.38501	
-0.383911	
-0.385376	
-0.385132	
-0.385498	
-0.385498	
-0.385559	
-0.385803	
-0.385864	
-0.387756	
-0.385681	
-0.385437	
-0.385254	
-0.385925	
-0.386658	
-0.386963	
-0.387634	
-0.387207	
-0.386475	
-0.387451	
-0.388	
-0.388855	
-0.387817	
-0.387817	
-0.385864	
-0.388672	
-0.389343	
-0.38916	
-0.388672	
-0.389038	
-0.389282	
-0.388916	
-0.390991	
-0.389893	
-0.389099	
-0.389404	
-0.389038	
-0.390137	
-0.390137	
-0.390991	
-0.390076	
-0.389771	
-0.389709	
-0.390442	
-0.391663	
-0.389832	
-0.389771	
-0.389832	
-0.390869	
-0.390564	
-0.390869	
-0.390076	
-0.390381	
-0.389587	
-0.38916	
-0.39032	
-0.390503	
-0.388916	
-0.38916	
-0.387878	
-0.389221	
-0.389465	
-0.390747	
-0.389099	
-0.389587	
-0.389526	
-0.390076	
-0.390625	
-0.389465	
-0.389282	
-0.387817	
-0.388245	
-0.388916	
-0.389465	
-0.388855	
-0.388306	
-0.388367	
-0.387573	
-0.389771	
-0.389038	
-0.388	
-0.386719	
-0.38739	
-0.387817	
-0.387939	
-0.388611	
-0.387695	
-0.388	
-0.38739	
-0.388428	
-0.388855	
-0.387329	
-0.386841	
-0.386658	
-0.385864	
-0.387024	
-0.387268	
-0.387207	
-0.387268	
-0.387085	
-0.386292	
-0.387573	
-0.388794	
-0.388062	
-0.387146	
-0.387146	
-0.388611	
-0.388916	
-0.390076	
-0.389648	
-0.389648	
-0.39032	
-0.391113	
-0.3927	
-0.391785	
-0.391235	
-0.390442	
-0.389771	
-0.391479	
-0.391907	
-0.392273	
-0.391479	
-0.390869	
-0.391663	
-0.392029	
-0.392517	
-0.390442	
-0.390198	
-0.389832	
-0.388794	
-0.389648	
-0.38916	
-0.388977	
-0.388	
-0.388306	
-0.387085	
-0.388062	
-0.386902	
-0.385986	
-0.383728	
-0.383667	
-0.383606	
-0.383362	
-0.383606	
-0.383057	
-0.382813	
-0.382019	
-0.382263	
-0.38324	
-0.382141	
-0.381714	
-0.381653	
-0.379578	
-0.381348	
-0.381348	
-0.382019	
-0.381287	
-0.381287	
-0.381348	
-0.381409	
-0.383362	
-0.381287	
-0.380066	
-0.380432	
-0.381409	
-0.381592	
-0.382202	
-0.38147	
-0.382385	
-0.383301	
-0.385071	
-0.384705	
-0.385071	
-0.38446	
-0.38385	
-0.384338	
-0.38562	
-0.386353	
-0.386841	
-0.386169	
-0.385986	
-0.386108	
-0.387695	
-0.388123	
-0.387268	
-0.38678	
-0.386658	
-0.384521	
-0.386658	
-0.386963	
-0.38739	
-0.386963	
-0.386536	
-0.385803	
-0.386841	
-0.388245	
-0.385986	
-0.385925	
-0.385193	
-0.386719	
-0.386292	
-0.386963	
-0.385376	
-0.385681	
-0.385132	
-0.386047	
-0.385437	
-0.38501	
-0.383911	
-0.383362	
-0.381897	
-0.383667	
-0.383606	
-0.384033	
-0.384094	
-0.383484	
-0.384033	
-0.384766	
-0.385071	
-0.383362	
-0.382813	
-0.383057	
-0.381836	
-0.383484	
-0.383484	
-0.38324	
-0.383423	
-0.383789	
-0.382141	
-0.383301	
-0.385742	
-0.383057	
-0.381958	
-0.382324	
-0.383911	
-0.38446	
-0.385193	
-0.384155	
-0.383911	
-0.384399	
-0.384827	
-0.384583	
-0.38562	
-0.383911	
-0.383362	
-0.381836	
-0.38385	
-0.383972	
-0.384216	
-0.383972	
-0.383972	
-0.383606	
-0.385437	
-0.38623	
-0.385071	
-0.384583	
-0.384399	
-0.384521	
-0.385681	
-0.385925	
-0.385315	
-0.385925	
-0.38678	
-0.387268	
-0.387085	
-0.388855	
-0.387024	
-0.386719	
-0.386047	
-0.386597	
-0.386719	
-0.38739	
-0.387512	
-0.386902	
-0.386963	
-0.387878	
-0.387329	
-0.387878	
-0.386047	
-0.386414	
-0.384827	
-0.385864	
-0.385681	
-0.386902	
-0.385559	
-0.385498	
-0.384644	
-0.385254	
-0.385376	
-0.383301	
-0.381287	
-0.381165	
-0.380737	
-0.381775	
-0.381348	
-0.380249	
-0.380554	
-0.380554	
-0.380249	
-0.380554	
-0.382568	
-0.380066	
-0.379822	
-0.379089	
-0.38031	
-0.380432	
-0.381287	
-0.380859	
-0.38092	
-0.380859	
-0.381287	
-0.382019	
-0.382874	
-0.38147	
-0.382019	
-0.38147	
-0.382507	
-0.383423	
-0.384521	
-0.384094	
-0.384399	
-0.385132	
-0.38623	
-0.387695	
-0.387024	
-0.385803	
-0.386536	
-0.385742	
-0.387634	
-0.388184	
-0.387756	
-0.387634	
-0.387695	
-0.388062	
-0.387939	
-0.390137	
-0.387939	
-0.388245	
-0.388245	
-0.388123	
-0.387939	
-0.388428	
-0.38855	
-0.387817	
-0.388062	
-0.388306	
-0.388123	
-0.388611	
-0.387207	
-0.387024	
-0.385864	
-0.387329	
-0.387573	
-0.387756	
-0.387268	
-0.386658	
-0.385864	
-0.385437	
-0.387207	
-0.385681	
-0.38385	
-0.384521	
-0.384216	
-0.384644	
-0.384766	
-0.385376	
-0.384583	
-0.385254	
-0.385193	
-0.384827	
-0.387329	
-0.383911	
-0.383789	
-0.383423	
-0.383545	
-0.383972	
-0.384705	
-0.384888	
-0.384338	
-0.384216	
-0.385071	
-0.385071	
-0.385376	
-0.384277	
-0.384338	
-0.381836	
-0.384644	
-0.385132	
-0.385376	
-0.385132	
-0.385864	
-0.386292	
-0.385132	
-0.38739	
-0.385376	
-0.385315	
-0.385193	
-0.384583	
-0.38501	
-0.385132	
-0.385925	
-0.384949	
-0.384888	
-0.385742	
-0.385681	
-0.387573	
-0.385681	
-0.38562	
-0.385071	
-0.38501	
-0.386292	
-0.387146	
-0.38739	
-0.386475	
-0.386902	
-0.387268	
-0.387573	
-0.387573	
-0.386353	
-0.386475	
-0.385437	
-0.387146	
-0.386902	
-0.387634	
-0.387451	
-0.387329	
-0.387817	
-0.386841	
-0.389648	
-0.38739	
-0.38623	
-0.386963	
-0.387207	
-0.387024	
-0.387573	
-0.387329	
-0.386353	
-0.386108	
-0.386597	
-0.38501	
-0.387024	
-0.385681	
-0.384155	
-0.383484	
-0.383362	
-0.384399	
-0.38385	
-0.384399	
-0.38324	
-0.383667	
-0.383667	
-0.384033	
-0.383667	
-0.382629	
-0.382629	
-0.381897	
-0.382874	
-0.382935	
-0.383179	
-0.383118	
-0.383606	
-0.383545	
-0.383057	
-0.386169	
-0.385864	
-0.384338	
-0.385071	
-0.385254	
-0.386292	
-0.387024	
-0.387939	
-0.388184	
-0.38916	
-0.390259	
-0.39032	
-0.391724	
-0.391357	
-0.390137	
-0.39032	
-0.39093	
-0.392273	
-0.392456	
-0.392822	
-0.392151	
-0.392944	
-0.393188	
-0.393921	
-0.393066	
-0.3927	
-0.392822	
-0.391602	
-0.3927	
-0.393372	
-0.393555	
-0.393433	
-0.39325	
-0.392761	
-0.393433	
-0.394043	
-0.393433	
-0.392212	
-0.392639	
-0.390991	
-0.392029	
-0.391541	
-0.391357	
-0.390503	
-0.39032	
-0.39032	
-0.389709	
-0.39032	
-0.388672	
-0.387878	
-0.386719	
-0.387634	
-0.388	
-0.388428	
-0.388123	
-0.387634	
-0.388	
-0.388062	
-0.388062	
-0.388062	
-0.387207	
-0.386902	
-0.387085	
-0.387634	
-0.387878	
-0.388	
-0.389282	
-0.388916	
-0.388733	
-0.38916	
-0.389465	
-0.389709	
-0.388916	
-0.389038	
-0.389282	
-0.390625	
-0.390808	
-0.390991	
-0.390808	
-0.390991	
-0.391418	
-0.390991	
-0.392639	
-0.391663	
-0.391357	
-0.390991	
-0.390503	
-0.391541	
-0.391479	
-0.392334	
-0.392212	
-0.391785	
-0.391968	
-0.392395	
-0.394043	
-0.391724	
-0.391296	
-0.391541	
-0.391663	
-0.392273	
-0.392273	
-0.393311	
-0.392273	
-0.392273	
-0.392273	
-0.392822	
-0.392578	
-0.391235	
-0.390137	
-0.38916	
-0.390686	
-0.391541	
-0.391479	
-0.391357	
-0.391418	
-0.391113	
-0.390991	
-0.392883	
-0.391541	
-0.390625	
-0.391296	
-0.389099	
-0.390747	
-0.390503	
-0.391113	
-0.390076	
-0.389648	
-0.389832	
-0.390137	
-0.391357	
-0.388977	
-0.38916	
-0.388611	
-0.388	
-0.388672	
-0.388794	
-0.389099	
-0.388428	
-0.388489	
-0.388367	
-0.388672	
-0.389465	
-0.388428	
-0.38678	
-0.385986	
-0.388367	
-0.388672	
-0.388611	
-0.388733	
-0.388611	
-0.388794	
-0.388489	
-0.390137	
-0.390076	
-0.389404	
-0.389404	
-0.388977	
-0.390991	
-0.391357	
-0.393066	
-0.392883	
-0.393372	
-0.393738	
-0.39447	
-0.396057	
-0.395203	
-0.394714	
-0.394043	
-0.394165	
-0.394836	
-0.394775	
-0.395935	
-0.394775	
-0.39502	
-0.395081	
-0.394836	
-0.395813	
-0.394531	
-0.393372	
-0.392761	
-0.393677	
-0.393616	
-0.393677	
-0.393921	
-0.39325	
-0.392822	
-0.392761	
-0.393372	
-0.393188	
-0.391663	
-0.389771	
-0.388794	
-0.38916	
-0.389404	
-0.389648	
-0.389526	
-0.388245	
-0.388245	
-0.388428	
-0.389526	
-0.388672	
-0.387512	
-0.387573	
-0.386902	
-0.387268	
-0.387024	
-0.388	
-0.387573	
-0.387512	
-0.387207	
-0.387573	
-0.388672	
-0.38678	
-0.386475	
-0.386169	
-0.387024	
-0.387634	
-0.388306	
-0.389221	
-0.388611	
-0.389221	
-0.389221	
-0.390076	
-0.389465	
-0.388794	
-0.389038	
-0.388	
-0.388672	
-0.390259	
-0.390808	
-0.390625	
-0.390076	
-0.390503	
-0.390198	
-0.392212	
-0.391968	
-0.391357	
-0.390747	
-0.390259	
-0.391296	
-0.391357	
-0.392334	
-0.391541	
-0.391235	
-0.390869	
-0.392151	
-0.393372	
-0.392029	
-0.391785	
-0.390869	
-0.390259	
-0.391846	
-0.391907	
-0.392273	
-0.391907	
-0.391602	
-0.391724	
-0.392273	
-0.392334	
-0.390625	
-0.39032	
-0.389954	
-0.39032	
-0.390869	
-0.391113	
-0.390625	
-0.390625	
-0.39032	
-0.390625	
-0.391663	
-0.390747	
-0.391052	
-0.389465	
-0.387756	
-0.390503	
-0.390442	
-0.39032	
-0.390076	
-0.389832	
-0.388489	
-0.390015	
-0.390991	
-0.389465	
-0.388794	
-0.387817	
-0.385986	
-0.388916	
-0.389526	
-0.388916	
-0.388794	
-0.388855	
-0.388306	
-0.390015	
-0.390564	
-0.388794	
-0.388428	
-0.388	
-0.388306	
-0.38855	
-0.389282	
-0.388184	
-0.388733	
-0.388184	
-0.388611	
-0.389526	
-0.390015	
-0.388916	
-0.388672	
-0.387878	
-0.390076	
-0.390259	
-0.390381	
-0.390747	
-0.390747	
-0.390381	
-0.392151	
-0.393494	
-0.393066	
-0.392517	
-0.391785	
-0.390503	
-0.392639	
-0.393921	
-0.393127	
-0.392151	
-0.392395	
-0.393005	
-0.393372	
-0.394714	
-0.392456	
-0.392395	
-0.391052	
-0.391052	
-0.391602	
-0.391724	
-0.390686	
-0.390442	
-0.389526	
-0.390076	
-0.390747	
-0.390015	
-0.38739	
-0.386902	
-0.385254	
-0.385681	
-0.385437	
-0.384399	
-0.384521	
-0.38385	
-0.384155	
-0.384155	
-0.385071	
-0.383667	
-0.383179	
-0.382263	
-0.381042	
-0.383179	
-0.383362	
-0.382385	
-0.382629	
-0.382751	
-0.382507	
-0.38385	
-0.384705	
-0.382874	
-0.382568	
-0.38208	
-0.382385	
-0.383118	
-0.383362	
-0.383118	
-0.383667	
-0.383545	
-0.385071	
-0.386475	
-0.387939	
-0.385742	
-0.385864	
-0.38562	
-0.386719	
-0.387695	
-0.387451	
-0.387695	
-0.387817	
-0.388306	
-0.38855	
-0.389282	
-0.389404	
-0.388306	
-0.387329	
-0.385986	
-0.388306	
-0.388672	
-0.388123	
-0.388	
-0.388245	
-0.388062	
-0.388977	
-0.389648	
-0.387817	
-0.387817	
-0.386597	
-0.386292	
-0.387878	
-0.387756	
-0.388	
-0.387085	
-0.386963	
-0.387146	
-0.386841	
-0.387939	
-0.385742	
-0.385803	
-0.384827	
-0.384399	
-0.385803	
-0.38562	
-0.385376	
-0.385376	
-0.384888	
-0.385376	
-0.386108	
-0.385925	
-0.385803	
-0.384399	
-0.383484	
-0.38562	
-0.385376	
-0.385132	
-0.385132	
-0.384338	
-0.385254	
-0.385071	
-0.387085	
-0.385315	
-0.384705	
-0.384094	
-0.384949	
-0.38623	
-0.385742	
-0.385925	
-0.385681	
-0.386169	
-0.386414	
-0.387085	
-0.387634	
-0.386292	
-0.385803	
-0.385376	
-0.385681	
-0.386597	
-0.386292	
-0.386536	
-0.385498	
-0.386658	
-0.386963	
-0.388062	
-0.388062	
-0.387268	
-0.386414	
-0.38678	
-0.388794	
-0.388123	
-0.38855	
-0.388489	
-0.388428	
-0.389282	
-0.389587	
-0.390259	
-0.390137	
-0.389343	
-0.388611	
-0.388489	
-0.389771	
-0.389648	
-0.389465	
-0.389282	
-0.389832	
-0.39032	
-0.39032	
-0.390015	
-0.390259	
-0.389038	
-0.388245	
-0.388672	
-0.389282	
-0.388611	
-0.388306	
-0.387451	
-0.388306	
-0.387878	
-0.388062	
-0.387573	
-0.386047	
-0.383911	
-0.383911	
-0.38385	
-0.384399	
-0.383728	
-0.383545	
-0.383118	
-0.383118	
-0.384094	
-0.385071	
-0.384094	
-0.383179	
-0.382568	
-0.382996	
-0.383362	
-0.38385	
-0.383972	
-0.383911	
-0.384277	
-0.384766	
-0.385742	
-0.385315	
-0.385864	
-0.38501	
-0.384521	
-0.385925	
-0.387268	
-0.38678	
-0.387024	
-0.387512	
-0.38916	
-0.389038	
-0.390564	
-0.390869	
-0.390564	
-0.390015	
-0.390564	
-0.390503	
-0.391296	
-0.390503	
-0.390747	
-0.390381	
-0.391541	
-0.391968	
-0.392761	
-0.39325	
-0.391968	
-0.390869	
-0.391785	
-0.392029	
-0.391663	
-0.391785	
-0.391663	
-0.391602	
-0.391602	
-0.392883	
-0.391968	
-0.391541	
-0.391052	
-0.390686	
-0.390076	
-0.391907	
-0.390808	
-0.39032	
-0.389954	
-0.390259	
-0.390198	
-0.390259	
-0.389954	
-0.38916	
-0.388672	
-0.387146	
-0.38739	
-0.390137	
-0.388733	
-0.388916	
-0.387817	
-0.388611	
-0.388672	
-0.388428	
-0.389465	
-0.388245	
-0.386841	
-0.387756	
-0.387817	
-0.388672	
-0.388367	
-0.38855	
-0.388184	
-0.387878	
-0.38916	
-0.388977	
-0.389038	
-0.387573	
-0.387573	
-0.387451	
-0.389832	
-0.388733	
-0.388794	
-0.388733	
-0.389099	
-0.389282	
-0.389954	
-0.389709	
-0.389404	
-0.388611	
-0.387573	
-0.387512	
-0.389587	
-0.388855	
-0.388977	
-0.387878	
-0.389099	
-0.389587	
-0.390076	
-0.389893	
-0.389709	
-0.388123	
-0.389587	
-0.389648	
-0.390137	
-0.390137	
-0.389893	
-0.389343	
-0.390869	
-0.391479	
-0.390442	
-0.390869	
-0.390198	
-0.389465	
-0.389893	
-0.39093	
-0.391235	
-0.391663	
-0.391174	
-0.390442	
-0.391602	
-0.392212	
-0.391541	
-0.391418	
-0.391113	
-0.389587	
-0.389709	
-0.391235	
-0.390442	
-0.389771	
-0.389771	
-0.390259	
-0.390198	
-0.390442	
-0.390137	
-0.390076	
-0.387756	
-0.387939	
-0.388062	
-0.387573	
-0.386963	
-0.387146	
-0.386475	
-0.386719	
-0.386902	
-0.387512	
-0.386658	
-0.386902	
-0.385193	
-0.386475	
-0.38678	
-0.386902	
-0.38678	
-0.38678	
-0.387085	
-0.387817	
-0.388733	
-0.389221	
-0.38916	
-0.388672	
-0.388123	
-0.389526	
-0.389648	
-0.39093	
-0.391235	
-0.391663	
-0.392822	
-0.394043	
-0.396057	
-0.39502	
-0.395203	
-0.394531	
-0.394592	
-0.395386	
-0.39502	
-0.395691	
-0.39563	
-0.394775	
-0.396423	
-0.39624	
-0.398254	
-0.39679	
-0.397278	
-0.396301	
-0.395203	
-0.397095	
-0.396362	
-0.396545	
-0.396423	
-0.396729	
-0.396362	
-0.397034	
-0.396729	
-0.396484	
-0.395874	
-0.394043	
-0.394714	
-0.394165	
-0.394043	
-0.393738	
-0.393677	
-0.393555	
-0.393127	
-0.39386	
-0.393188	
-0.392151	
-0.391296	
-0.388855	
-0.391357	
-0.389526	
-0.390869	
-0.390564	
-0.390259	
-0.390686	
-0.390869	
-0.39209	
-0.391602	
-0.391724	
-0.390808	
-0.390564	
-0.39093	
-0.390991	
-0.390686	
-0.391174	
-0.391479	
-0.391968	
-0.392151	
-0.394531	
-0.392456	
-0.392517	
-0.392029	
-0.392212	
-0.392944	
-0.392883	
-0.393005	
-0.393555	
-0.394348	
-0.393799	
-0.394531	
-0.396301	
-0.394653	
-0.394104	
-0.392944	
-0.393799	
-0.393982	
-0.39386	
-0.394287	
-0.39386	
-0.394104	
-0.394226	
-0.395081	
-0.395752	
-0.395203	
-0.394409	
-0.393066	
-0.394775	
-0.394775	
-0.39502	
-0.394775	
-0.394348	
-0.394775	
-0.394531	
-0.39502	
-0.393799	
-0.393433	
-0.393127	
-0.391479	
-0.393066	
-0.393127	
-0.39325	
-0.393188	
-0.392761	
-0.393799	
-0.394104	
-0.394897	
-0.39386	
-0.393494	
-0.392639	
-0.391724	
-0.392822	
-0.392517	
-0.392639	
-0.392029	
-0.392212	
	
