E:\DOCUMENTS AND SETTINGS\JPOTAS\MEUS DOCUMENTOS\UFRJ\RSCI-BM 12 WK SERIES\070727-RSCI-BM-05\RSCI-BM-05-LEMG\070727-RSCI-BM-05-LEMG-0000.ACQ
0.025000 msec/sample
1 channel
Analog input
Volts
CH1	
2000	
-0.388245	
-0.388367	
-0.388428	
-0.387634	
-0.389221	
-0.388855	
-0.388428	
-0.388245	
-0.387817	
-0.388428	
-0.388245	
-0.388733	
-0.389465	
-0.388367	
-0.388489	
-0.389282	
-0.38855	
-0.389526	
-0.388733	
-0.388489	
-0.388306	
-0.386963	
-0.388611	
-0.38916	
-0.389587	
-0.390137	
-0.389465	
-0.389954	
-0.389954	
-0.390503	
-0.392273	
-0.390625	
-0.390015	
-0.389954	
-0.389282	
-0.389221	
-0.390747	
-0.39093	
-0.389832	
-0.390747	
-0.390625	
-0.388794	
-0.390869	
-0.39032	
-0.38855	
-0.389648	
-0.388	
-0.388794	
-0.389221	
-0.388672	
-0.387939	
-0.387329	
-0.386902	
-0.387024	
-0.386414	
-0.387512	
-0.386658	
-0.385315	
-0.38562	
-0.38501	
-0.384827	
-0.385803	
-0.386597	
-0.385986	
-0.386047	
-0.386963	
-0.386047	
-0.387024	
-0.387695	
-0.388672	
-0.387085	
-0.386963	
-0.387634	
-0.387817	
-0.38855	
-0.38916	
-0.389099	
-0.388794	
-0.388977	
-0.388611	
-0.389709	
-0.388367	
-0.388367	
-0.388672	
-0.388123	
-0.389038	
-0.389832	
-0.390076	
-0.389771	
-0.389893	
-0.390137	
-0.390381	
-0.390686	
-0.391113	
-0.390869	
-0.390503	
-0.390137	
-0.391113	
-0.390564	
-0.391663	
-0.391785	
-0.391602	
-0.391602	
-0.391479	
-0.391785	
-0.392944	
-0.391724	
-0.391724	
-0.391052	
-0.389526	
-0.391541	
-0.392029	
-0.392578	
-0.391418	
-0.391052	
-0.390686	
-0.390076	
-0.391235	
-0.391724	
-0.390564	
-0.389526	
-0.389832	
-0.390442	
-0.390137	
-0.389954	
-0.390625	
-0.390442	
-0.390869	
-0.390442	
-0.39093	
-0.391357	
-0.390015	
-0.39032	
-0.389832	
-0.388611	
-0.390076	
-0.389954	
-0.391296	
-0.390686	
-0.390381	
-0.390625	
-0.390076	
-0.390442	
-0.391602	
-0.390381	
-0.390076	
-0.389404	
-0.389709	
-0.389709	
-0.389587	
-0.39032	
-0.390015	
-0.389587	
-0.389587	
-0.390564	
-0.390198	
-0.389221	
-0.389221	
-0.387939	
-0.387695	
-0.388977	
-0.389038	
-0.389771	
-0.389587	
-0.389038	
-0.38855	
-0.389221	
-0.390076	
-0.391052	
-0.389038	
-0.389648	
-0.388245	
-0.388733	
-0.389221	
-0.388916	
-0.388916	
-0.389465	
-0.389465	
-0.388306	
-0.390137	
-0.390015	
-0.389404	
-0.389404	
-0.388855	
-0.388733	
-0.38916	
-0.388855	
-0.389709	
-0.38916	
-0.388916	
-0.388672	
-0.388672	
-0.389343	
-0.389771	
-0.388489	
-0.388123	
-0.387207	
-0.382874	
-0.382324	
-0.381836	
-0.381287	
-0.381409	
-0.381348	
-0.383911	
-0.38678	
-0.388489	
-0.388123	
-0.386902	
-0.38739	
-0.386841	
-0.386841	
-0.387085	
-0.386658	
-0.387085	
-0.386963	
-0.387146	
-0.387451	
-0.388184	
-0.388245	
-0.387573	
-0.38739	
-0.387024	
-0.386414	
-0.387634	
-0.387878	
-0.387756	
-0.388062	
-0.387756	
-0.387268	
-0.388489	
-0.389404	
-0.390015	
-0.388367	
-0.388245	
-0.388184	
-0.388489	
-0.389893	
-0.390015	
-0.390442	
-0.391052	
-0.390808	
-0.390991	
-0.391602	
-0.391968	
-0.391296	
-0.391602	
-0.392273	
-0.391602	
-0.392944	
-0.39386	
-0.395264	
-0.397278	
-0.399231	
-0.399841	
-0.403931	
-0.407532	
-0.41095	
-0.412415	
-0.416687	
-0.419983	
-0.424255	
-0.427307	
-0.428894	
-0.432434	
-0.435364	
-0.437073	
-0.441162	
-0.444763	
-0.447876	
-0.44989	
-0.453979	
-0.457397	
-0.460754	
-0.465942	
-0.468262	
-0.471863	
-0.472839	
-0.473206	
-0.473389	
-0.473022	
-0.471802	
-0.467834	
-0.464661	
-0.460205	
-0.456177	
-0.452026	
-0.448059	
-0.442017	
-0.436707	
-0.431702	
-0.425171	
-0.42041	
-0.415405	
-0.411438	
-0.406982	
-0.402832	
-0.398926	
-0.39624	
-0.393677	
-0.390808	
-0.389832	
-0.389221	
-0.388672	
-0.389954	
-0.39093	
-0.391846	
-0.391907	
-0.392334	
-0.392273	
-0.393311	
-0.394958	
-0.395325	
-0.396118	
-0.396545	
-0.395996	
-0.395203	
-0.395996	
-0.397034	
-0.396545	
-0.39624	
-0.396851	
-0.394714	
-0.396057	
-0.396851	
-0.397949	
-0.398743	
-0.399414	
-0.400024	
-0.401062	
-0.401123	
-0.400513	
-0.398804	
-0.397095	
-0.394958	
-0.392517	
-0.390869	
-0.387024	
-0.384094	
-0.380554	
-0.376038	
-0.371094	
-0.367615	
-0.363464	
-0.357178	
-0.351257	
-0.345642	
-0.338074	
-0.332642	
-0.325684	
-0.318298	
-0.310913	
-0.303162	
-0.29541	
-0.288879	
-0.283508	
-0.276733	
-0.270874	
-0.266418	
-0.260803	
-0.259277	
-0.258057	
-0.257568	
-0.258423	
-0.260437	
-0.262085	
-0.265747	
-0.270142	
-0.273438	
-0.276917	
-0.281189	
-0.284241	
-0.288086	
-0.292786	
-0.295532	
-0.298279	
-0.301941	
-0.303589	
-0.306091	
-0.308289	
-0.310791	
-0.310974	
-0.312256	
-0.313477	
-0.315063	
-0.315979	
-0.316956	
-0.318298	
-0.319153	
-0.320007	
-0.322632	
-0.325012	
-0.325989	
-0.327026	
-0.329163	
-0.330688	
-0.332825	
-0.335571	
-0.336731	
-0.338257	
-0.340149	
-0.341614	
-0.343079	
-0.344543	
-0.344849	
-0.345642	
-0.344849	
-0.34668	
-0.347473	
-0.347717	
-0.348206	
-0.349121	
-0.349365	
-0.350525	
-0.351929	
-0.351868	
-0.352356	
-0.352844	
-0.351257	
-0.351563	
-0.3526	
-0.353394	
-0.353271	
-0.353455	
-0.352844	
-0.354004	
-0.354736	
-0.354431	
-0.353149	
-0.353882	
-0.353638	
-0.354004	
-0.35437	
-0.354187	
-0.354919	
-0.354797	
-0.355042	
-0.355652	
-0.357056	
-0.356262	
-0.356079	
-0.35614	
-0.354919	
-0.355713	
-0.357239	
-0.357422	
-0.358032	
-0.358215	
-0.358398	
-0.358704	
-0.360046	
-0.360291	
-0.359985	
-0.360107	
-0.35907	
-0.359558	
-0.360168	
-0.360535	
-0.360901	
-0.360718	
-0.360168	
-0.361206	
-0.361755	
-0.362732	
-0.362	
-0.362061	
-0.361877	
-0.361511	
-0.362244	
-0.362305	
-0.362793	
-0.363037	
-0.36322	
-0.362549	
-0.364441	
-0.364868	
-0.363953	
-0.364075	
-0.364441	
-0.36438	
-0.364807	
-0.366089	
-0.364929	
-0.365295	
-0.36554	
-0.365417	
-0.365601	
-0.367798	
-0.366211	
-0.366394	
-0.366333	
-0.36676	
-0.367249	
-0.367798	
-0.367004	
-0.36792	
-0.367493	
-0.368164	
-0.368835	
-0.369446	
-0.368042	
-0.368347	
-0.367188	
-0.368591	
-0.369141	
-0.368958	
-0.369019	
-0.368835	
-0.368164	
-0.369568	
-0.369934	
-0.369202	
-0.368835	
-0.369263	
-0.367004	
-0.369446	
-0.370239	
-0.369812	
-0.369995	
-0.369995	
-0.369751	
-0.370789	
-0.371887	
-0.371338	
-0.371155	
-0.371155	
-0.371277	
-0.371826	
-0.37207	
-0.371643	
-0.372803	
-0.37207	
-0.372192	
-0.373901	
-0.375183	
-0.374817	
-0.374878	
-0.373901	
-0.374573	
-0.375	
-0.376038	
-0.375061	
-0.375488	
-0.375122	
-0.374512	
-0.375671	
-0.376709	
-0.376038	
-0.374939	
-0.374695	
-0.37616	
-0.375061	
-0.375977	
-0.37561	
-0.375732	
-0.375488	
-0.374939	
-0.375916	
-0.376099	
-0.376587	
-0.376343	
-0.375	
-0.375671	
-0.375061	
-0.376404	
-0.375305	
-0.37561	
-0.376526	
-0.374512	
-0.375427	
-0.375732	
-0.375366	
-0.374146	
-0.373291	
-0.37323	
-0.372742	
-0.373779	
-0.373596	
-0.373291	
-0.373352	
-0.372742	
-0.373962	
-0.374207	
-0.374084	
-0.374084	
-0.374207	
-0.374634	
-0.374512	
-0.376709	
-0.375977	
-0.375366	
-0.377014	
-0.376892	
-0.377991	
-0.378784	
-0.378601	
-0.378723	
-0.378662	
-0.378479	
-0.378845	
-0.379028	
-0.379028	
-0.379211	
-0.379517	
-0.378479	
-0.379883	
-0.380493	
-0.380554	
-0.380249	
-0.379089	
-0.379822	
-0.378723	
-0.380798	
-0.379822	
-0.379944	
-0.3797	
-0.379639	
-0.380066	
-0.381958	
-0.380554	
-0.380737	
-0.379883	
-0.38031	
-0.379639	
-0.380981	
-0.380005	
-0.380554	
-0.380493	
-0.379578	
-0.380371	
-0.381775	
-0.38092	
-0.379883	
-0.379944	
-0.379456	
-0.37854	
-0.380066	
-0.379089	
-0.379089	
-0.379211	
-0.378906	
-0.379089	
-0.379822	
-0.378601	
-0.379333	
-0.378967	
-0.378845	
-0.378235	
-0.379272	
-0.378723	
-0.379028	
-0.378967	
-0.378113	
-0.379578	
-0.381531	
-0.381287	
-0.380188	
-0.379944	
-0.379333	
-0.380127	
-0.380859	
-0.380127	
-0.380066	
-0.380554	
-0.380432	
-0.381348	
-0.381653	
-0.381226	
-0.381042	
-0.381165	
-0.380676	
-0.380005	
-0.381836	
-0.381287	
-0.381531	
-0.38147	
-0.38031	
-0.380493	
-0.382141	
-0.38208	
-0.381836	
-0.381348	
-0.381348	
-0.38092	
-0.381836	
-0.381714	
-0.38208	
-0.381836	
-0.381165	
-0.382141	
-0.382813	
-0.383301	
-0.383118	
-0.382996	
-0.382629	
-0.382996	
-0.383667	
-0.383118	
-0.382996	
-0.383057	
-0.38324	
-0.383362	
-0.384094	
-0.385559	
-0.384949	
-0.383789	
-0.384521	
-0.383606	
-0.38385	
-0.383728	
-0.383423	
-0.383728	
-0.382813	
-0.383423	
-0.383423	
-0.384338	
-0.383301	
-0.382324	
-0.381531	
-0.380554	
-0.380127	
-0.381348	
-0.379333	
-0.380005	
-0.379517	
-0.3797	
-0.3797	
-0.381042	
-0.38031	
-0.380188	
-0.380371	
-0.378967	
-0.379822	
-0.381042	
-0.38031	
-0.381165	
-0.381348	
-0.381714	
-0.382507	
-0.383179	
-0.383118	
-0.383423	
-0.383057	
-0.381226	
-0.382324	
-0.384094	
-0.382019	
-0.382996	
-0.382568	
-0.382507	
-0.38324	
-0.38385	
-0.384155	
-0.383911	
-0.384277	
-0.383484	
-0.384583	
-0.385376	
-0.384521	
-0.385071	
-0.384827	
-0.385315	
-0.386047	
-0.38623	
-0.385864	
-0.385681	
-0.385803	
-0.38562	
-0.385925	
-0.386719	
-0.385986	
-0.385925	
-0.386414	
-0.386108	
-0.386597	
-0.386841	
-0.388306	
-0.387573	
-0.387085	
-0.387329	
-0.386902	
-0.386597	
-0.386169	
-0.385498	
-0.385437	
-0.383972	
-0.385864	
-0.385559	
-0.387451	
-0.385986	
-0.385559	
-0.385742	
-0.384033	
-0.385559	
-0.385315	
-0.384338	
-0.385193	
-0.384644	
-0.385559	
-0.385681	
-0.386047	
-0.386536	
-0.385803	
-0.385437	
-0.383972	
-0.385376	
-0.386414	
-0.385803	
-0.386047	
-0.385681	
-0.385864	
-0.385254	
-0.385498	
-0.38739	
-0.38501	
-0.38501	
-0.385376	
-0.384583	
-0.385925	
-0.384888	
-0.385315	
-0.384827	
-0.384705	
-0.385132	
-0.385132	
-0.385864	
-0.38446	
-0.384277	
-0.384338	
-0.383179	
-0.38501	
-0.384766	
-0.383484	
-0.384583	
-0.383667	
-0.384949	
-0.384338	
-0.385254	
-0.385193	
-0.384949	
-0.384949	
-0.38324	
-0.385742	
-0.384583	
-0.38446	
-0.385193	
-0.384277	
-0.384705	
-0.384827	
-0.385803	
-0.386902	
-0.384949	
-0.384888	
-0.384888	
-0.385071	
-0.385315	
-0.384827	
-0.38446	
-0.384033	
-0.384827	
-0.384766	
-0.384583	
-0.386169	
-0.384216	
-0.383728	
-0.383789	
-0.383301	
-0.382996	
-0.382813	
-0.382324	
-0.382874	
-0.382568	
-0.382874	
-0.382996	
-0.384888	
-0.382507	
-0.383057	
-0.383118	
-0.382019	
-0.383484	
-0.383362	
-0.383057	
-0.382935	
-0.38324	
-0.383606	
-0.383545	
-0.385315	
-0.38385	
-0.383606	
-0.383423	
-0.381775	
-0.38446	
-0.383911	
-0.383545	
-0.383728	
-0.384338	
-0.383972	
-0.384399	
-0.384521	
-0.38562	
-0.384155	
-0.384949	
-0.384216	
-0.386536	
-0.386169	
-0.386475	
-0.386292	
-0.388062	
-0.387756	
-0.38739	
-0.387634	
-0.390137	
-0.387695	
-0.387024	
-0.387695	
-0.38678	
-0.38739	
-0.387329	
-0.386536	
-0.386597	
-0.386902	
-0.386292	
-0.386047	
-0.38678	
-0.385803	
-0.384827	
-0.38446	
-0.383545	
-0.385071	
-0.384338	
-0.38324	
-0.383484	
-0.38385	
-0.383972	
-0.383179	
-0.383362	
-0.384888	
-0.383545	
-0.383545	
-0.38269	
-0.382996	
-0.383728	
-0.383789	
-0.383667	
-0.383789	
-0.383972	
-0.383972	
-0.384766	
-0.384888	
-0.384277	
-0.383911	
-0.384155	
-0.382629	
-0.384705	
-0.38446	
-0.384094	
-0.383301	
-0.383911	
-0.384705	
-0.384705	
-0.385559	
-0.385986	
-0.384827	
-0.385315	
-0.384949	
-0.385864	
-0.385742	
-0.38446	
-0.385986	
-0.386292	
-0.386047	
-0.38678	
-0.388	
-0.388428	
-0.387268	
-0.387451	
-0.38623	
-0.387329	
-0.387268	
-0.386841	
-0.387817	
-0.386719	
-0.387512	
-0.388	
-0.388428	
-0.388123	
-0.387878	
-0.38623	
-0.386658	
-0.385315	
-0.386353	
-0.386292	
-0.386292	
-0.386047	
-0.386292	
-0.386475	
-0.386658	
-0.386353	
-0.386841	
-0.385803	
-0.386292	
-0.386108	
-0.385864	
-0.386047	
-0.385498	
-0.385986	
-0.385254	
-0.385437	
-0.385742	
-0.385986	
-0.387268	
-0.386475	
-0.385437	
-0.385925	
-0.385193	
-0.385681	
-0.385254	
-0.38562	
-0.384766	
-0.385559	
-0.385681	
-0.386108	
-0.38562	
-0.385803	
-0.385071	
-0.385376	
-0.383606	
-0.383667	
-0.383911	
-0.384094	
-0.383667	
-0.383972	
-0.383545	
-0.385071	
-0.38385	
-0.384644	
-0.384216	
-0.384155	
-0.383606	
-0.384033	
-0.383789	
-0.383606	
-0.383484	
-0.383423	
-0.384277	
-0.384766	
-0.384155	
-0.385437	
-0.385681	
-0.384399	
-0.385986	
-0.385864	
-0.387024	
-0.386353	
-0.387634	
-0.386841	
-0.388428	
-0.388611	
-0.388489	
-0.388611	
-0.388977	
-0.388428	
-0.388428	
-0.387817	
-0.386597	
-0.387573	
-0.387512	
-0.387085	
-0.386719	
-0.387146	
-0.387268	
-0.386353	
-0.386841	
-0.386475	
-0.386169	
-0.385437	
-0.384766	
-0.385437	
-0.385376	
-0.385559	
-0.385193	
-0.386169	
-0.386414	
-0.38562	
-0.386169	
-0.385925	
-0.384338	
-0.384827	
-0.384644	
-0.383179	
-0.383972	
-0.383972	
-0.382568	
-0.38385	
-0.383667	
-0.38324	
-0.383484	
-0.384033	
-0.38269	
-0.383423	
-0.382507	
-0.38269	
-0.382813	
-0.382751	
-0.382263	
-0.382202	
-0.382385	
-0.383789	
-0.382935	
-0.382874	
-0.383362	
-0.383179	
-0.382874	
-0.383606	
-0.382324	
-0.382874	
-0.383606	
-0.383728	
-0.383606	
-0.384644	
-0.38385	
-0.383911	
-0.384705	
-0.383484	
-0.384033	
-0.384094	
-0.383545	
-0.383301	
-0.383911	
-0.383118	
-0.384155	
-0.384033	
-0.383789	
-0.383728	
-0.384827	
-0.384766	
-0.384705	
-0.38446	
-0.384338	
-0.384216	
-0.384521	
-0.385071	
-0.385071	
-0.385254	
-0.385315	
-0.385315	
-0.385376	
-0.386108	
-0.385681	
-0.385986	
-0.385071	
-0.383667	
-0.384033	
-0.385193	
-0.384888	
-0.385315	
-0.385254	
-0.385193	
-0.385559	
-0.386597	
-0.385559	
-0.385437	
-0.385132	
-0.384094	
-0.384094	
-0.385681	
-0.385132	
-0.38562	
-0.385742	
-0.386719	
-0.385681	
-0.386047	
-0.386047	
-0.385498	
-0.385498	
-0.38385	
-0.384949	
-0.385071	
-0.384949	
-0.385132	
-0.385498	
-0.38562	
-0.384888	
-0.385559	
-0.38623	
-0.385742	
-0.385437	
-0.385498	
-0.384705	
-0.386292	
-0.385681	
-0.385925	
-0.385864	
-0.386047	
-0.386658	
-0.386414	
-0.387878	
-0.387024	
-0.386597	
-0.38678	
-0.386902	
-0.386292	
-0.386963	
-0.387085	
-0.387146	
-0.38739	
-0.388184	
-0.387451	
-0.387512	
-0.38739	
-0.387146	
-0.387634	
-0.387024	
-0.385803	
-0.386963	
-0.386536	
-0.387085	
-0.387085	
-0.38678	
-0.387268	
-0.38678	
-0.387634	
-0.38739	
-0.38623	
-0.386963	
-0.385864	
-0.386292	
-0.386108	
-0.385559	
-0.386169	
-0.385254	
-0.386841	
-0.385681	
-0.386169	
-0.385864	
-0.384399	
-0.384766	
-0.38324	
-0.381714	
-0.383545	
-0.382141	
-0.38324	
-0.38269	
-0.382813	
-0.382751	
-0.382996	
-0.382141	
-0.382141	
-0.381897	
-0.381653	
-0.381836	
-0.382141	
-0.38269	
-0.383301	
-0.383423	
-0.383667	
-0.385132	
-0.384521	
-0.385437	
-0.386108	
-0.385071	
-0.385925	
-0.385559	
-0.384949	
-0.385864	
-0.385559	
-0.386353	
-0.386597	
-0.387634	
-0.386475	
-0.386841	
-0.387085	
-0.386353	
-0.386719	
-0.384888	
-0.384583	
-0.386169	
-0.385315	
-0.386292	
-0.386292	
-0.386475	
-0.386963	
-0.38678	
-0.386292	
-0.386047	
-0.386414	
-0.386169	
-0.385315	
-0.385681	
-0.385925	
-0.386292	
-0.385803	
-0.386292	
-0.387207	
-0.385803	
-0.386658	
-0.385986	
-0.384949	
-0.385315	
-0.38501	
-0.384888	
-0.385498	
-0.384094	
-0.384338	
-0.383789	
-0.383728	
-0.383484	
-0.383789	
-0.384644	
-0.38324	
-0.383484	
-0.383057	
-0.381897	
-0.383301	
-0.383179	
-0.383606	
-0.383301	
-0.383606	
-0.384033	
-0.384216	
-0.385193	
-0.384583	
-0.38385	
-0.384277	
-0.382019	
-0.383301	
-0.384094	
-0.384338	
-0.38446	
-0.384399	
-0.385498	
-0.384399	
-0.384827	
-0.38501	
-0.38385	
-0.384399	
-0.383545	
-0.384338	
-0.385132	
-0.384644	
-0.385376	
-0.38501	
-0.384949	
-0.384705	
-0.384949	
-0.386597	
-0.385071	
-0.385071	
-0.384644	
-0.384216	
-0.38501	
-0.384338	
-0.385071	
-0.385376	
-0.385254	
-0.385803	
-0.385681	
-0.386902	
-0.385681	
-0.385742	
-0.386719	
-0.384094	
-0.386047	
-0.386292	
-0.385803	
-0.386658	
-0.387146	
-0.387146	
-0.386414	
-0.386963	
-0.387329	
-0.386658	
-0.387207	
-0.386292	
-0.386414	
-0.385864	
-0.385742	
-0.386597	
-0.386047	
-0.385925	
-0.387024	
-0.386414	
-0.386658	
-0.384949	
-0.384705	
-0.383911	
-0.38208	
-0.382446	
-0.38208	
-0.382446	
-0.382141	
-0.382568	
-0.382629	
-0.381836	
-0.382935	
-0.382202	
-0.382202	
-0.38269	
-0.381287	
-0.382141	
-0.382141	
-0.383301	
-0.383545	
-0.383789	
-0.384094	
-0.384277	
-0.384521	
-0.385559	
-0.385254	
-0.385742	
-0.383728	
-0.38501	
-0.384155	
-0.383728	
-0.384827	
-0.385071	
-0.385315	
-0.386536	
-0.385803	
-0.386475	
-0.385376	
-0.386902	
-0.386597	
-0.38562	
-0.385925	
-0.385742	
-0.387024	
-0.386963	
-0.386902	
-0.387146	
-0.38739	
-0.387573	
-0.388062	
-0.387451	
-0.388489	
-0.386475	
-0.387146	
-0.387024	
-0.387695	
-0.388367	
-0.388245	
-0.388306	
-0.389343	
-0.388367	
-0.388611	
-0.388123	
-0.389038	
-0.387573	
-0.386536	
-0.387146	
-0.385925	
-0.387085	
-0.387146	
-0.387085	
-0.387207	
-0.386414	
-0.38623	
-0.38739	
-0.386047	
-0.387817	
-0.385254	
-0.386414	
-0.385681	
-0.387207	
-0.386902	
-0.386475	
-0.386597	
-0.387207	
-0.386536	
-0.387756	
-0.386597	
-0.387939	
-0.386169	
-0.385925	
-0.386902	
-0.385986	
-0.386902	
-0.386536	
-0.386597	
-0.387268	
-0.385681	
-0.38623	
-0.386108	
-0.387024	
-0.387268	
-0.385315	
-0.38562	
-0.384521	
-0.38562	
-0.386108	
-0.385742	
-0.38562	
-0.385681	
-0.386475	
-0.387268	
-0.385559	
-0.387146	
-0.385132	
-0.384094	
-0.385315	
-0.384216	
-0.385559	
-0.386047	
-0.385864	
-0.386414	
-0.385986	
-0.386597	
-0.385437	
-0.386047	
-0.385498	
-0.384705	
-0.385376	
-0.384583	
-0.385803	
-0.386047	
-0.385803	
-0.386292	
-0.385315	
-0.386047	
-0.38678	
-0.38501	
-0.387329	
-0.385071	
-0.38446	
-0.384949	
-0.385742	
-0.385498	
-0.385437	
-0.385193	
-0.386047	
-0.385132	
-0.38562	
-0.384583	
-0.385376	
-0.38446	
-0.383301	
-0.383606	
-0.381775	
-0.383911	
-0.383484	
-0.383728	
-0.38501	
-0.384338	
-0.384155	
-0.385193	
-0.384277	
-0.384644	
-0.383545	
-0.383911	
-0.383179	
-0.384583	
-0.384888	
-0.384277	
-0.384949	
-0.384888	
-0.38501	
-0.385925	
-0.384521	
-0.385986	
-0.38501	
-0.384399	
-0.385376	
-0.38385	
-0.385498	
-0.385498	
-0.385681	
-0.385925	
-0.385864	
-0.386719	
-0.387024	
-0.387573	
-0.388733	
-0.387512	
-0.388306	
-0.388	
-0.388733	
-0.388794	
-0.389221	
-0.389771	
-0.388733	
-0.389282	
-0.389404	
-0.388184	
-0.390076	
-0.388916	
-0.387939	
-0.388428	
-0.387878	
-0.388184	
-0.387573	
-0.38739	
-0.387756	
-0.38678	
-0.386597	
-0.387024	
-0.386108	
-0.385986	
-0.384888	
-0.385376	
-0.38446	
-0.38501	
-0.384888	
-0.385376	
-0.385681	
-0.385437	
-0.385559	
-0.385864	
-0.384583	
-0.386414	
-0.384644	
-0.384155	
-0.384521	
-0.384216	
-0.385559	
-0.385193	
-0.386108	
-0.386047	
-0.385925	
-0.386597	
-0.386169	
-0.38623	
-0.386414	
-0.385315	
-0.385681	
-0.38446	
-0.385864	
-0.386292	
-0.386902	
-0.386963	
-0.387024	
-0.387146	
-0.387512	
-0.385803	
-0.388794	
-0.385986	
-0.386536	
-0.388	
-0.387024	
-0.388489	
-0.388977	
-0.388855	
-0.389038	
-0.388794	
-0.390015	
-0.389099	
-0.389587	
-0.389771	
-0.388855	
-0.388794	
-0.388672	
-0.389771	
-0.389221	
-0.388977	
-0.389587	
-0.388489	
-0.389099	
-0.387939	
-0.387878	
-0.388733	
-0.387512	
-0.38739	
-0.387756	
-0.386841	
-0.387878	
-0.388123	
-0.388184	
-0.387756	
-0.387878	
-0.387634	
-0.387146	
-0.38739	
-0.387329	
-0.387085	
-0.386963	
-0.386475	
-0.387512	
-0.387268	
-0.387085	
-0.388062	
-0.387207	
-0.388123	
-0.387207	
-0.387146	
-0.387878	
-0.385559	
-0.386414	
-0.386719	
-0.385437	
-0.386292	
-0.386658	
-0.386902	
-0.38678	
-0.386353	
-0.386536	
-0.384399	
-0.38623	
-0.385742	
-0.384399	
-0.384705	
-0.384583	
-0.38562	
-0.385559	
-0.385132	
-0.385864	
-0.385071	
-0.386414	
-0.385742	
-0.384949	
-0.386108	
-0.38446	
-0.384827	
-0.385132	
-0.384583	
-0.385498	
-0.386169	
-0.386902	
-0.387146	
-0.387939	
-0.388367	
-0.386902	
-0.389282	
-0.389221	
-0.387939	
-0.389526	
-0.388916	
-0.389343	
-0.389526	
-0.390076	
-0.389221	
-0.389465	
-0.390137	
-0.388733	
-0.388733	
-0.390015	
-0.388123	
-0.387878	
-0.387512	
-0.386169	
-0.387329	
-0.386902	
-0.387329	
-0.386963	
-0.38739	
-0.386414	
-0.386414	
-0.387268	
-0.38623	
-0.386536	
-0.387329	
-0.386047	
-0.386963	
-0.386902	
-0.386963	
-0.386292	
-0.385864	
-0.386292	
-0.38385	
-0.385437	
-0.385315	
-0.384277	
-0.384338	
-0.384338	
-0.384277	
-0.384033	
-0.38385	
-0.384521	
-0.383789	
-0.383728	
-0.383728	
-0.383484	
-0.384277	
-0.381592	
-0.382385	
-0.383728	
-0.382935	
-0.383301	
-0.383911	
-0.384705	
-0.384216	
-0.384033	
-0.384521	
-0.383118	
-0.384277	
-0.385193	
-0.384094	
-0.384155	
-0.383362	
-0.384949	
-0.385132	
-0.384766	
-0.38446	
-0.384399	
-0.385071	
-0.385315	
-0.384583	
-0.385803	
-0.383484	
-0.384216	
-0.384094	
-0.383423	
-0.384277	
-0.384277	
-0.384399	
-0.384521	
-0.384705	
-0.384949	
-0.384033	
-0.385559	
-0.384277	
-0.384216	
-0.384705	
-0.384033	
-0.385925	
-0.385742	
-0.385986	
-0.385986	
-0.385437	
-0.385986	
-0.38501	
-0.385376	
-0.386597	
-0.384766	
-0.384644	
-0.384583	
-0.385132	
-0.385315	
-0.385132	
-0.385681	
-0.385559	
-0.386414	
-0.386292	
-0.384521	
-0.385925	
-0.384521	
-0.384705	
-0.385193	
-0.383606	
-0.384949	
-0.385498	
-0.385681	
-0.385986	
-0.385315	
-0.385132	
-0.384766	
-0.385437	
-0.385437	
-0.384644	
-0.384216	
-0.383972	
-0.385193	
-0.385132	
-0.384766	
-0.385925	
-0.385437	
-0.386047	
-0.385742	
-0.384949	
-0.386108	
-0.38562	
-0.385437	
-0.385559	
-0.384583	
-0.38623	
-0.385864	
-0.386169	
-0.386902	
-0.38739	
-0.38739	
-0.386597	
-0.387268	
-0.387817	
-0.386475	
-0.386902	
-0.386902	
-0.38678	
-0.387329	
-0.387146	
-0.38739	
-0.386597	
-0.387268	
-0.386902	
-0.385559	
-0.387268	
-0.386047	
-0.38623	
-0.385986	
-0.384705	
-0.386169	
-0.386169	
-0.38623	
-0.38678	
-0.386841	
-0.386902	
-0.385437	
-0.385498	
-0.385498	
-0.384949	
-0.385315	
-0.384583	
-0.384827	
-0.38501	
-0.385254	
-0.385376	
-0.384094	
-0.383484	
-0.383118	
-0.381775	
-0.382874	
-0.382019	
-0.381592	
-0.381348	
-0.379822	
-0.381714	
-0.381348	
-0.381653	
-0.381653	
-0.382019	
-0.382385	
-0.381775	
-0.381958	
-0.382935	
-0.382141	
-0.383301	
-0.382996	
-0.383728	
-0.384521	
-0.384216	
-0.385437	
-0.384949	
-0.385071	
-0.385132	
-0.385071	
-0.386108	
-0.385315	
-0.384766	
-0.384888	
-0.384338	
-0.385315	
-0.385559	
-0.386292	
-0.385681	
-0.385986	
-0.386169	
-0.384766	
-0.385315	
-0.38562	
-0.384766	
-0.385315	
-0.384644	
-0.38501	
-0.384827	
-0.385193	
-0.385803	
-0.385986	
-0.385193	
-0.385376	
-0.38501	
-0.384583	
-0.384766	
-0.384644	
-0.384094	
-0.384399	
-0.384705	
-0.385132	
-0.385437	
-0.384644	
-0.384277	
-0.38501	
-0.382874	
-0.384338	
-0.383362	
-0.381531	
-0.382385	
-0.382446	
-0.382874	
-0.382568	
-0.382629	
-0.382446	
-0.383423	
-0.382568	
-0.382446	
-0.382202	
-0.382813	
-0.382385	
-0.382263	
-0.381226	
-0.382874	
-0.383057	
-0.383301	
-0.383728	
-0.383606	
-0.382813	
-0.383179	
-0.38269	
-0.383484	
-0.383545	
-0.382446	
-0.382996	
-0.382263	
-0.383118	
-0.383484	
	
