E:\DOCUMENTS AND SETTINGS\JPOTAS\MEUS DOCUMENTOS\UFRJ\RSCI-BM 12 WK SERIES\070727-RSCI-BM-05\RSCI-BM-05-LEMG\070727-RSCI-BM-05-LEMG-0008.ACQ
0.025000 msec/sample
1 channel
Analog input
Volts
CH1	
2000	
-0.387146	
-0.385681	
-0.387573	
-0.386475	
-0.385193	
-0.385742	
-0.387268	
-0.386963	
-0.387695	
-0.386658	
-0.386719	
-0.386292	
-0.38739	
-0.385864	
-0.386597	
-0.386169	
-0.387146	
-0.386169	
-0.387329	
-0.386841	
-0.387451	
-0.387329	
-0.387329	
-0.387268	
-0.387268	
-0.387939	
-0.387329	
-0.38678	
-0.387268	
-0.387329	
-0.387939	
-0.388	
-0.387939	
-0.388855	
-0.388306	
-0.38855	
-0.388733	
-0.390137	
-0.388611	
-0.388	
-0.388855	
-0.390015	
-0.389587	
-0.388977	
-0.389099	
-0.389771	
-0.389526	
-0.390747	
-0.389648	
-0.390625	
-0.389771	
-0.390503	
-0.389038	
-0.389404	
-0.389648	
-0.389099	
-0.389038	
-0.388916	
-0.388672	
-0.389343	
-0.388428	
-0.38916	
-0.389221	
-0.389465	
-0.388367	
-0.390503	
-0.390747	
-0.390686	
-0.391235	
-0.391357	
-0.391296	
-0.392273	
-0.392578	
-0.391907	
-0.391113	
-0.391846	
-0.392151	
-0.392639	
-0.39325	
-0.392639	
-0.393738	
-0.393005	
-0.393921	
-0.393677	
-0.394104	
-0.392883	
-0.392761	
-0.393005	
-0.394287	
-0.393372	
-0.393616	
-0.393372	
-0.393982	
-0.393372	
-0.393616	
-0.39325	
-0.393372	
-0.392212	
-0.391602	
-0.39093	
-0.391907	
-0.391418	
-0.391357	
-0.390808	
-0.391052	
-0.391418	
-0.392029	
-0.390869	
-0.390625	
-0.390503	
-0.390015	
-0.389954	
-0.389343	
-0.389221	
-0.388489	
-0.387573	
-0.388123	
-0.387817	
-0.388062	
-0.387634	
-0.387268	
-0.386414	
-0.385437	
-0.38739	
-0.386963	
-0.386658	
-0.386475	
-0.388062	
-0.387146	
-0.387817	
-0.387695	
-0.38855	
-0.387573	
-0.387146	
-0.38678	
-0.387756	
-0.387207	
-0.387695	
-0.387512	
-0.387817	
-0.387451	
-0.388611	
-0.388	
-0.388123	
-0.387268	
-0.387512	
-0.387451	
-0.388	
-0.388306	
-0.38855	
-0.388123	
-0.388306	
-0.388916	
-0.389465	
-0.389038	
-0.388184	
-0.387878	
-0.387878	
-0.388611	
-0.388794	
-0.388733	
-0.388672	
-0.389221	
-0.388855	
-0.389465	
-0.390137	
-0.389954	
-0.389587	
-0.388733	
-0.388672	
-0.390503	
-0.389282	
-0.389404	
-0.389648	
-0.390198	
-0.389465	
-0.390015	
-0.389526	
-0.390503	
-0.38916	
-0.387573	
-0.387268	
-0.389526	
-0.388489	
-0.388489	
-0.388489	
-0.388672	
-0.388489	
-0.388733	
-0.388733	
-0.388367	
-0.388245	
-0.388062	
-0.388855	
-0.390259	
-0.390137	
-0.390564	
-0.386719	
-0.384155	
-0.383789	
-0.38501	
-0.38501	
-0.384399	
-0.388428	
-0.390808	
-0.391296	
-0.391907	
-0.391968	
-0.392029	
-0.390991	
-0.391907	
-0.391968	
-0.391785	
-0.393127	
-0.39209	
-0.391907	
-0.391479	
-0.392883	
-0.391418	
-0.390991	
-0.39093	
-0.392029	
-0.390381	
-0.391113	
-0.390625	
-0.391296	
-0.389832	
-0.389526	
-0.38916	
-0.389893	
-0.389954	
-0.39032	
-0.390198	
-0.389954	
-0.39032	
-0.391113	
-0.391174	
-0.386902	
-0.383484	
-0.382629	
-0.381958	
-0.383118	
-0.382874	
-0.386719	
-0.388855	
-0.389893	
-0.389526	
-0.390991	
-0.393005	
-0.392639	
-0.393494	
-0.395569	
-0.399841	
-0.401367	
-0.404419	
-0.407593	
-0.412231	
-0.415771	
-0.420349	
-0.423828	
-0.428528	
-0.431274	
-0.435303	
-0.439453	
-0.443237	
-0.447998	
-0.451965	
-0.456909	
-0.462097	
-0.468872	
-0.475037	
-0.483643	
-0.490723	
-0.497925	
-0.50415	
-0.510071	
-0.514648	
-0.517395	
-0.519409	
-0.52002	
-0.520447	
-0.519714	
-0.518982	
-0.516968	
-0.513611	
-0.511047	
-0.508728	
-0.504944	
-0.501587	
-0.497986	
-0.494507	
-0.48999	
-0.486267	
-0.480774	
-0.477661	
-0.471497	
-0.465393	
-0.460815	
-0.457275	
-0.452698	
-0.448792	
-0.445618	
-0.442688	
-0.440552	
-0.438477	
-0.435669	
-0.432922	
-0.429321	
-0.426941	
-0.424011	
-0.421265	
-0.418335	
-0.415466	
-0.413086	
-0.411194	
-0.409607	
-0.408386	
-0.407776	
-0.40741	
-0.40802	
-0.40863	
-0.411194	
-0.412781	
-0.414063	
-0.416809	
-0.419617	
-0.419861	
-0.422058	
-0.421814	
-0.423645	
-0.421753	
-0.421814	
-0.421448	
-0.420471	
-0.418457	
-0.416199	
-0.414856	
-0.411316	
-0.40863	
-0.40564	
-0.402405	
-0.397888	
-0.392944	
-0.388245	
-0.38446	
-0.379395	
-0.374451	
-0.368713	
-0.364197	
-0.358459	
-0.353943	
-0.348694	
-0.344666	
-0.34021	
-0.337463	
-0.334778	
-0.332764	
-0.331177	
-0.330261	
-0.32959	
-0.329956	
-0.330078	
-0.331116	
-0.332458	
-0.335022	
-0.335938	
-0.339111	
-0.342712	
-0.34552	
-0.348022	
-0.350769	
-0.353699	
-0.35437	
-0.35553	
-0.35498	
-0.353516	
-0.352539	
-0.352112	
-0.352356	
-0.35022	
-0.350525	
-0.35022	
-0.350464	
-0.350708	
-0.352173	
-0.353394	
-0.354126	
-0.355286	
-0.356995	
-0.359009	
-0.359924	
-0.363525	
-0.366028	
-0.367249	
-0.369873	
-0.37262	
-0.374512	
-0.375122	
-0.378235	
-0.378906	
-0.381104	
-0.383118	
-0.384033	
-0.385498	
-0.386169	
-0.388428	
-0.388306	
-0.389526	
-0.389587	
-0.389832	
-0.388062	
-0.388733	
-0.388855	
-0.387146	
-0.387695	
-0.386719	
-0.385803	
-0.384705	
-0.383911	
-0.382446	
-0.379883	
-0.379211	
-0.377258	
-0.376648	
-0.374084	
-0.373047	
-0.371399	
-0.36969	
-0.368347	
-0.366516	
-0.364502	
-0.360901	
-0.360168	
-0.355408	
-0.352844	
-0.350769	
-0.347168	
-0.343994	
-0.340149	
-0.33844	
-0.334534	
-0.331909	
-0.32843	
-0.326294	
-0.323425	
-0.321655	
-0.322571	
-0.320374	
-0.320679	
-0.320862	
-0.322571	
-0.323608	
-0.326538	
-0.328125	
-0.329224	
-0.332764	
-0.335388	
-0.339355	
-0.341064	
-0.344666	
-0.347107	
-0.350037	
-0.35321	
-0.355591	
-0.357849	
-0.359436	
-0.362183	
-0.362976	
-0.364868	
-0.36615	
-0.368164	
-0.369202	
-0.36969	
-0.370911	
-0.371338	
-0.371765	
-0.371643	
-0.37146	
-0.369751	
-0.369934	
-0.369568	
-0.369324	
-0.368225	
-0.367126	
-0.367493	
-0.366089	
-0.365173	
-0.365173	
-0.363892	
-0.362793	
-0.363037	
-0.363342	
-0.362793	
-0.363708	
-0.363586	
-0.365601	
-0.365845	
-0.366516	
-0.366943	
-0.366211	
-0.367615	
-0.368103	
-0.367432	
-0.368164	
-0.367493	
-0.367859	
-0.366699	
-0.368225	
-0.368835	
-0.367493	
-0.367371	
-0.367493	
-0.367737	
-0.366882	
-0.367737	
-0.366943	
-0.367065	
-0.366577	
-0.367249	
-0.366943	
-0.367004	
-0.366638	
-0.367371	
-0.368103	
-0.367249	
-0.367737	
-0.367859	
-0.368103	
-0.368225	
-0.368347	
-0.36908	
-0.368591	
-0.368835	
-0.369446	
-0.369446	
-0.369324	
-0.370361	
-0.369995	
-0.369568	
-0.370178	
-0.36969	
-0.370911	
-0.370667	
-0.37085	
-0.371704	
-0.371155	
-0.370667	
-0.37207	
-0.372437	
-0.372375	
-0.372253	
-0.372925	
-0.373535	
-0.374512	
-0.374512	
-0.37439	
-0.375	
-0.374878	
-0.374817	
-0.375854	
-0.376282	
-0.375427	
-0.376465	
-0.377747	
-0.377563	
-0.377563	
-0.378845	
-0.378235	
-0.377319	
-0.378662	
-0.37854	
-0.378418	
-0.378052	
-0.378357	
-0.379456	
-0.379272	
-0.380066	
-0.380371	
-0.379822	
-0.379822	
-0.379089	
-0.381775	
-0.378845	
-0.380005	
-0.380188	
-0.380676	
-0.380737	
-0.381287	
-0.382263	
-0.381165	
-0.38147	
-0.380066	
-0.382019	
-0.380981	
-0.380432	
-0.380981	
-0.381348	
-0.381531	
-0.381287	
-0.381531	
-0.381592	
-0.381836	
-0.38092	
-0.383179	
-0.381958	
-0.382568	
-0.382385	
-0.382507	
-0.383118	
-0.383728	
-0.383484	
-0.383362	
-0.383606	
-0.382629	
-0.385193	
-0.384094	
-0.384094	
-0.384216	
-0.383606	
-0.384399	
-0.384583	
-0.384827	
-0.384338	
-0.384583	
-0.383972	
-0.384827	
-0.383606	
-0.384338	
-0.383423	
-0.382629	
-0.383728	
-0.383362	
-0.383789	
-0.383301	
-0.384216	
-0.383423	
-0.382202	
-0.384583	
-0.382874	
-0.383179	
-0.38324	
-0.383667	
-0.383606	
-0.383484	
-0.384338	
-0.383728	
-0.384644	
-0.383728	
-0.385132	
-0.382874	
-0.384094	
-0.383972	
-0.382996	
-0.383972	
-0.38385	
-0.384521	
-0.382874	
-0.383301	
-0.382202	
-0.382751	
-0.382629	
-0.381042	
-0.382263	
-0.380798	
-0.382141	
-0.38208	
-0.382507	
-0.381348	
-0.382324	
-0.381592	
-0.382202	
-0.38324	
-0.38092	
-0.381409	
-0.381653	
-0.380859	
-0.381287	
-0.38147	
-0.38208	
-0.381714	
-0.382568	
-0.381592	
-0.382019	
-0.38208	
-0.382385	
-0.382263	
-0.380859	
-0.382507	
-0.38324	
-0.383545	
-0.383118	
-0.382996	
-0.382996	
-0.383423	
-0.384338	
-0.381653	
-0.383118	
-0.383179	
-0.383484	
-0.38385	
-0.384094	
-0.384094	
-0.384583	
-0.385315	
-0.384094	
-0.385254	
-0.383606	
-0.385071	
-0.38501	
-0.384033	
-0.385681	
-0.386169	
-0.386475	
-0.386536	
-0.387451	
-0.386719	
-0.387085	
-0.388062	
-0.38678	
-0.386536	
-0.386597	
-0.386658	
-0.386047	
-0.385742	
-0.386292	
-0.386108	
-0.385498	
-0.384644	
-0.387207	
-0.383606	
-0.386047	
-0.386292	
-0.38623	
-0.387634	
-0.387207	
-0.388367	
-0.387878	
-0.389221	
-0.387817	
-0.389526	
-0.388306	
-0.38916	
-0.388733	
-0.388428	
-0.390198	
-0.389587	
-0.390381	
-0.389954	
-0.391357	
-0.390137	
-0.390503	
-0.390686	
-0.388733	
-0.389771	
-0.389282	
-0.390381	
-0.390503	
-0.390625	
-0.390503	
-0.390564	
-0.389832	
-0.388611	
-0.389893	
-0.388184	
-0.38916	
-0.388855	
-0.387695	
-0.388794	
-0.388672	
-0.388733	
-0.388489	
-0.390076	
-0.388245	
-0.388245	
-0.388367	
-0.387939	
-0.387695	
-0.386292	
-0.387085	
-0.386536	
-0.385986	
-0.385315	
-0.385437	
-0.385376	
-0.383606	
-0.385254	
-0.382141	
-0.384277	
-0.383667	
-0.384399	
-0.384094	
-0.384338	
-0.384766	
-0.384399	
-0.38562	
-0.384521	
-0.384949	
-0.385376	
-0.384949	
-0.385071	
-0.383118	
-0.384949	
-0.385254	
-0.385742	
-0.385986	
-0.385681	
-0.386536	
-0.385254	
-0.386169	
-0.384216	
-0.384888	
-0.385071	
-0.384521	
-0.385986	
-0.385803	
-0.386841	
-0.386292	
-0.386963	
-0.385437	
-0.385986	
-0.385986	
-0.384827	
-0.385742	
-0.384888	
-0.386169	
-0.385986	
-0.386597	
-0.386658	
-0.387085	
-0.386963	
-0.385864	
-0.388	
-0.385437	
-0.38678	
-0.386658	
-0.386536	
-0.386902	
-0.386719	
-0.387756	
-0.386963	
-0.388062	
-0.387817	
-0.387268	
-0.387939	
-0.387024	
-0.387146	
-0.385376	
-0.386047	
-0.386292	
-0.386353	
-0.38623	
-0.385742	
-0.38623	
-0.384705	
-0.386841	
-0.384949	
-0.385437	
-0.385315	
-0.386169	
-0.386475	
-0.386902	
-0.388245	
-0.387695	
-0.388245	
-0.388428	
-0.389099	
-0.388733	
-0.387146	
-0.388306	
-0.38855	
-0.389038	
-0.388733	
-0.389587	
-0.389038	
-0.388794	
-0.389709	
-0.388306	
-0.389709	
-0.388306	
-0.388977	
-0.388855	
-0.387878	
-0.389221	
-0.388916	
-0.389526	
-0.388672	
-0.38916	
-0.388733	
-0.388611	
-0.388733	
-0.387085	
-0.387573	
-0.386597	
-0.388306	
-0.387634	
-0.387573	
-0.387695	
-0.387817	
-0.388062	
-0.386963	
-0.388306	
-0.387451	
-0.386841	
-0.387512	
-0.38623	
-0.387146	
-0.387146	
-0.387817	
-0.386902	
-0.386902	
-0.387146	
-0.387695	
-0.388184	
-0.385498	
-0.386169	
-0.386047	
-0.385254	
-0.38678	
-0.386902	
-0.386902	
-0.386658	
-0.387024	
-0.386719	
-0.386658	
-0.38739	
-0.385254	
-0.386169	
-0.385864	
-0.386536	
-0.38678	
-0.386597	
-0.386047	
-0.385864	
-0.386597	
-0.385498	
-0.386597	
-0.384766	
-0.383789	
-0.384094	
-0.383911	
-0.38385	
-0.383789	
-0.384094	
-0.383301	
-0.38385	
-0.382629	
-0.383789	
-0.383484	
-0.38269	
-0.381836	
-0.381958	
-0.382263	
-0.382385	
-0.382446	
-0.381775	
-0.382568	
-0.383301	
-0.382996	
-0.383118	
-0.382629	
-0.38269	
-0.382813	
-0.382141	
-0.383301	
-0.383423	
-0.38446	
-0.383911	
-0.384216	
-0.384399	
-0.384521	
-0.38562	
-0.382751	
-0.383789	
-0.384033	
-0.384705	
-0.384216	
-0.385254	
-0.385315	
-0.385498	
-0.386169	
-0.385132	
-0.385925	
-0.386047	
-0.386047	
-0.385864	
-0.38446	
-0.386169	
-0.386658	
-0.387634	
-0.387451	
-0.388489	
-0.388611	
-0.389221	
-0.389709	
-0.387756	
-0.388794	
-0.388977	
-0.38916	
-0.389587	
-0.389893	
-0.390625	
-0.389954	
-0.389954	
-0.389038	
-0.389648	
-0.389221	
-0.387878	
-0.388367	
-0.387268	
-0.389038	
-0.389343	
-0.390137	
-0.389221	
-0.389587	
-0.389587	
-0.389771	
-0.389526	
-0.388611	
-0.388611	
-0.388	
-0.386414	
-0.388184	
-0.388428	
-0.388916	
-0.388306	
-0.388489	
-0.388306	
-0.387817	
-0.388916	
-0.386902	
-0.387268	
-0.387878	
-0.388184	
-0.388	
-0.388	
-0.387695	
-0.387512	
-0.387512	
-0.38678	
-0.387695	
-0.386292	
-0.385864	
-0.386047	
-0.38385	
-0.385986	
-0.386353	
-0.387085	
-0.386353	
-0.386536	
-0.386047	
-0.387146	
-0.386902	
-0.385498	
-0.385864	
-0.386169	
-0.385193	
-0.386902	
-0.386902	
-0.387207	
-0.387268	
-0.387634	
-0.386963	
-0.386414	
-0.387817	
-0.384705	
-0.385315	
-0.384399	
-0.384949	
-0.384827	
-0.385132	
-0.384277	
-0.384216	
-0.384949	
-0.38446	
-0.384399	
-0.383301	
-0.383423	
-0.382935	
-0.380798	
-0.383118	
-0.382935	
-0.382813	
-0.382568	
-0.38269	
-0.382141	
-0.382751	
-0.382996	
-0.381104	
-0.38147	
-0.381714	
-0.381165	
-0.382385	
-0.382507	
-0.383057	
-0.382751	
-0.38385	
-0.38324	
-0.383545	
-0.383728	
-0.383423	
-0.383972	
-0.382751	
-0.384094	
-0.384338	
-0.385498	
-0.385132	
-0.385254	
-0.385925	
-0.385803	
-0.38623	
-0.385315	
-0.385925	
-0.386536	
-0.385925	
-0.387573	
-0.388489	
-0.388672	
-0.388733	
-0.389343	
-0.389282	
-0.38916	
-0.390503	
-0.389465	
-0.389099	
-0.389526	
-0.389587	
-0.390076	
-0.390442	
-0.389771	
-0.389648	
-0.389221	
-0.389343	
-0.389099	
-0.388245	
-0.387756	
-0.388245	
-0.387939	
-0.388733	
-0.389038	
-0.389282	
-0.388611	
-0.388794	
-0.388062	
-0.388733	
-0.389709	
-0.38678	
-0.387329	
-0.388	
-0.387451	
-0.387939	
-0.388855	
-0.387329	
-0.387085	
-0.387695	
-0.388367	
-0.387634	
-0.389038	
-0.387695	
-0.387756	
-0.387024	
-0.387573	
-0.387695	
-0.387756	
-0.38739	
-0.388245	
-0.387085	
-0.387024	
-0.387146	
-0.386292	
-0.385376	
-0.386658	
-0.385864	
-0.386658	
-0.386902	
-0.387024	
-0.387207	
-0.387024	
-0.385986	
-0.387085	
-0.388611	
-0.387878	
-0.386902	
-0.387268	
-0.38678	
-0.387817	
-0.388489	
-0.387817	
-0.388	
-0.388611	
-0.388489	
-0.387878	
-0.387817	
-0.387329	
-0.387146	
-0.385437	
-0.38623	
-0.386292	
-0.386597	
-0.385742	
-0.386292	
-0.384949	
-0.385376	
-0.385864	
-0.385132	
-0.384583	
-0.384521	
-0.383606	
-0.384705	
-0.385315	
-0.384521	
-0.38446	
-0.384888	
-0.384705	
-0.38501	
-0.385254	
-0.38385	
-0.383728	
-0.384094	
-0.384399	
-0.384583	
-0.385437	
-0.384888	
-0.385559	
-0.384705	
-0.386353	
-0.385925	
-0.386414	
-0.385437	
-0.385437	
-0.384521	
-0.385986	
-0.385986	
-0.385803	
-0.385986	
-0.386841	
-0.384705	
-0.385803	
-0.386658	
-0.385742	
-0.384949	
-0.386353	
-0.386292	
-0.386536	
-0.387329	
-0.387268	
-0.386414	
-0.386841	
-0.387024	
-0.387085	
-0.388306	
-0.387024	
-0.385864	
-0.386963	
-0.387268	
-0.387634	
-0.387756	
-0.38739	
-0.387756	
-0.386536	
-0.387817	
-0.387268	
-0.388184	
-0.386719	
-0.387085	
-0.385925	
-0.387634	
-0.387451	
-0.38739	
-0.387878	
-0.388367	
-0.388123	
-0.390137	
-0.390503	
-0.38916	
-0.389343	
-0.389343	
-0.390137	
-0.389893	
-0.390747	
-0.390076	
-0.39032	
-0.390808	
-0.390869	
-0.390503	
-0.390686	
-0.39032	
-0.389282	
-0.389954	
-0.39032	
-0.390686	
-0.390503	
-0.390381	
-0.390564	
-0.388916	
-0.390198	
-0.390259	
-0.389893	
-0.389526	
-0.389038	
-0.387512	
-0.389343	
-0.38916	
-0.38855	
-0.389221	
-0.388489	
-0.387573	
-0.389526	
-0.389832	
-0.388062	
-0.388062	
-0.38739	
-0.388062	
-0.388123	
-0.388611	
-0.387085	
-0.387207	
-0.387207	
-0.387573	
-0.387695	
-0.387024	
-0.386841	
-0.385864	
-0.385315	
-0.385742	
-0.38562	
-0.38446	
-0.384399	
-0.38446	
-0.38385	
-0.384705	
-0.384583	
-0.38385	
-0.383972	
-0.382507	
-0.382385	
-0.383911	
-0.38446	
-0.384521	
-0.384399	
-0.384521	
-0.382813	
-0.384338	
-0.384705	
-0.383972	
-0.384033	
-0.38208	
-0.383545	
-0.384216	
-0.384949	
-0.383728	
-0.385071	
-0.383972	
-0.384583	
-0.385376	
-0.385986	
-0.384705	
-0.384827	
-0.383606	
-0.384583	
-0.384644	
-0.385437	
-0.385071	
-0.384827	
-0.384766	
-0.385498	
-0.385925	
-0.385681	
-0.385559	
-0.385437	
-0.384766	
-0.38562	
-0.385864	
-0.386108	
-0.38678	
-0.386353	
-0.385132	
-0.386414	
-0.387939	
-0.386841	
-0.386414	
-0.386353	
-0.386597	
-0.388	
-0.388916	
-0.387878	
-0.38739	
-0.386902	
-0.38739	
-0.387329	
-0.387451	
-0.386353	
-0.386047	
-0.384705	
-0.386902	
-0.386169	
-0.38739	
-0.387756	
-0.387695	
-0.387817	
-0.388123	
-0.390381	
-0.388367	
-0.388306	
-0.388184	
-0.388245	
-0.389221	
-0.389954	
-0.389771	
-0.389771	
-0.389954	
-0.389038	
-0.388916	
-0.391235	
-0.390259	
-0.39032	
-0.388428	
-0.390503	
-0.39093	
-0.391663	
-0.391357	
-0.39093	
-0.390869	
-0.391113	
-0.391174	
-0.391968	
-0.390991	
-0.390442	
-0.389343	
-0.389893	
-0.390381	
-0.391174	
-0.390686	
-0.389893	
-0.38916	
-0.389526	
-0.390198	
-0.389099	
-0.389038	
-0.387451	
-0.387573	
-0.388489	
-0.388733	
-0.388794	
-0.387939	
-0.388	
-0.386658	
-0.387146	
-0.387695	
-0.385864	
-0.385132	
-0.384155	
-0.384949	
-0.384766	
-0.385315	
-0.38501	
-0.385132	
-0.384766	
-0.384888	
-0.384583	
-0.385132	
-0.384338	
-0.384033	
-0.38385	
-0.384888	
-0.384888	
-0.386047	
-0.386169	
-0.385437	
-0.384888	
-0.386047	
-0.386536	
-0.385437	
-0.385132	
-0.384338	
-0.384399	
-0.385498	
-0.385315	
-0.385254	
-0.386597	
-0.38562	
-0.38501	
-0.386475	
-0.387451	
-0.385803	
-0.38562	
-0.385559	
-0.386169	
-0.386108	
-0.38678	
-0.386597	
-0.386963	
-0.386169	
-0.386169	
-0.386108	
-0.386902	
-0.386047	
-0.38562	
-0.384644	
-0.386414	
-0.386841	
-0.387451	
-0.387573	
-0.387024	
-0.387268	
-0.387817	
-0.388977	
-0.387451	
-0.387207	
-0.387512	
-0.387268	
-0.387573	
-0.387634	
-0.38739	
-0.387817	
-0.386353	
-0.385559	
-0.387207	
-0.387634	
-0.386658	
-0.385864	
-0.385681	
-0.386536	
-0.386353	
-0.386658	
-0.386719	
-0.387268	
-0.387085	
-0.387451	
-0.387512	
-0.388611	
-0.387817	
-0.387207	
-0.386963	
-0.388855	
-0.389038	
-0.390015	
-0.390015	
-0.389343	
-0.388977	
-0.389709	
-0.39032	
-0.389526	
-0.389526	
-0.388916	
-0.389709	
-0.389771	
-0.390198	
-0.39032	
-0.390564	
-0.389587	
-0.389954	
-0.389832	
-0.390991	
-0.389587	
-0.388184	
-0.388855	
-0.388489	
-0.388611	
-0.389709	
-0.38916	
-0.388367	
-0.388611	
-0.388611	
-0.388428	
-0.388794	
-0.388245	
-0.388123	
-0.386414	
-0.388245	
-0.388428	
-0.388855	
-0.387695	
-0.387878	
-0.387146	
-0.388	
-0.388062	
-0.387634	
-0.386963	
-0.387024	
-0.387085	
-0.387451	
-0.387207	
-0.386841	
-0.387451	
-0.386841	
-0.387085	
-0.38678	
-0.38855	
-0.386902	
-0.386414	
-0.386902	
-0.38678	
-0.387451	
-0.387939	
-0.387634	
-0.387573	
-0.387085	
-0.387329	
-0.387268	
-0.38678	
-0.386169	
-0.385803	
-0.385742	
-0.386108	
-0.386108	
-0.385925	
-0.385437	
-0.384766	
-0.383789	
-0.384155	
-0.38446	
-0.383972	
-0.38269	
-0.383545	
-0.382874	
-0.384216	
-0.383484	
-0.383301	
-0.383789	
-0.383301	
-0.383362	
-0.382874	
-0.384705	
-0.383423	
-0.382996	
-0.38324	
-0.383911	
-0.384033	
-0.384583	
-0.38446	
-0.384644	
-0.384521	
-0.384644	
-0.385071	
-0.384949	
-0.384888	
-0.384888	
-0.384644	
-0.385681	
-0.385986	
-0.386597	
-0.385864	
-0.385925	
-0.386108	
-0.386292	
-0.385559	
-0.386108	
-0.386108	
-0.386047	
-0.385803	
-0.387512	
-0.38739	
-0.387939	
-0.388062	
-0.387878	
-0.388794	
-0.388977	
-0.390259	
-0.389282	
-0.390137	
-0.389587	
-0.390442	
-0.391235	
-0.391296	
-0.391174	
-0.391907	
-0.391174	
-0.391724	
-0.391113	
-0.391724	
-0.390259	
-0.389465	
-0.389893	
-0.390381	
-0.390381	
-0.390808	
-0.390625	
-0.390808	
-0.391663	
-0.391296	
-0.39093	
-0.390625	
-0.389648	
-0.389954	
-0.39032	
-0.39032	
-0.39032	
-0.390442	
-0.39032	
-0.389832	
-0.389832	
-0.389893	
-0.389954	
-0.389404	
-0.388672	
-0.389526	
-0.389648	
-0.389832	
-0.390137	
-0.389648	
-0.390137	
-0.388855	
-0.389954	
-0.388672	
-0.389282	
-0.387451	
-0.387939	
-0.387878	
-0.387939	
-0.387817	
-0.388672	
-0.387634	
-0.388245	
-0.387756	
-0.388916	
-0.38739	
-0.388428	
-0.386841	
-0.387512	
-0.387634	
-0.388123	
-0.388672	
-0.388794	
-0.389832	
-0.388062	
-0.387573	
-0.389221	
-0.389343	
-0.389038	
-0.387756	
-0.388306	
-0.387512	
-0.387268	
-0.387512	
-0.386292	
-0.386902	
-0.386292	
-0.386475	
-0.385925	
-0.386414	
-0.385498	
-0.385803	
-0.385681	
-0.384766	
-0.384888	
-0.384766	
-0.384827	
-0.385193	
-0.384216	
-0.384521	
-0.383606	
-0.38446	
-0.382874	
-0.384216	
-0.383545	
-0.384216	
-0.384827	
-0.384155	
-0.384949	
-0.384583	
-0.384705	
-0.384521	
-0.385681	
-0.385315	
-0.383972	
-0.385132	
-0.385925	
-0.386292	
-0.386902	
-0.386353	
-0.387085	
-0.38623	
-0.387878	
-0.386902	
-0.387085	
-0.387024	
-0.387451	
-0.38678	
-0.387695	
-0.389038	
-0.389465	
-0.389771	
-0.390198	
-0.390808	
-0.391235	
-0.390442	
-0.391052	
-0.390015	
-0.391418	
-0.39032	
-0.392029	
-0.392334	
-0.391846	
-0.392273	
-0.391418	
-0.392151	
-0.391235	
-0.391052	
-0.390747	
-0.389648	
-0.390198	
-0.391235	
-0.390564	
-0.390747	
-0.391052	
-0.390747	
-0.389709	
-0.391541	
-0.391357	
-0.390747	
-0.390015	
-0.39032	
-0.389832	
-0.39032	
-0.391052	
-0.390015	
-0.390198	
-0.390076	
-0.390259	
-0.391052	
-0.389832	
-0.389893	
-0.389343	
-0.389832	
-0.390076	
-0.390198	
-0.390259	
-0.389954	
-0.389832	
-0.389648	
-0.390259	
-0.389526	
-0.388672	
-0.388977	
-0.388062	
-0.387756	
-0.389282	
-0.389587	
-0.389343	
-0.389282	
-0.390259	
-0.388977	
-0.390686	
-0.389526	
-0.389038	
-0.389404	
-0.389709	
-0.389282	
-0.39032	
-0.391602	
-0.390381	
-0.390991	
-0.389893	
-0.390259	
-0.392212	
-0.390259	
-0.390259	
-0.39032	
-0.389771	
-0.390137	
-0.389404	
-0.389954	
-0.388611	
-0.389038	
-0.38855	
-0.389099	
-0.389282	
-0.387573	
-0.387817	
-0.386169	
-0.38678	
-0.387695	
-0.388184	
-0.387573	
-0.387634	
-0.388245	
-0.38739	
-0.388855	
-0.387695	
-0.387512	
-0.387024	
-0.385498	
-0.386475	
-0.387512	
-0.388123	
-0.387695	
-0.387756	
-0.387512	
-0.387878	
-0.389343	
-0.388245	
-0.388672	
-0.388184	
-0.387878	
-0.388367	
-0.388977	
-0.389099	
-0.38855	
-0.389709	
-0.388245	
-0.388977	
-0.388977	
-0.38916	
-0.38855	
-0.387085	
-0.38855	
-0.389587	
-0.389954	
-0.389404	
-0.389954	
-0.390137	
-0.389343	
-0.390137	
-0.389832	
-0.390015	
-0.389465	
-0.388245	
-0.389282	
-0.390015	
-0.390076	
-0.391296	
-0.391113	
-0.390259	
-0.390686	
-0.391785	
-0.390686	
-0.390564	
-0.389832	
-0.389893	
-0.389832	
-0.390747	
-0.390564	
-0.390198	
-0.391418	
-0.390137	
-0.391479	
-0.391296	
-0.392883	
-0.391968	
-0.390503	
-0.392578	
-0.393005	
-0.393433	
-0.39325	
-0.393616	
-0.393127	
-0.39325	
-0.39502	
-0.392883	
-0.394348	
-0.393127	
-0.393433	
-0.393921	
-0.394226	
-0.393982	
-0.393799	
-0.39447	
-0.393188	
-0.394104	
-0.394226	
-0.393677	
-0.393372	
-0.391663	
-0.393311	
-0.391785	
-0.393066	
-0.392578	
-0.392639	
-0.393066	
-0.392334	
-0.393127	
-0.391785	
-0.392151	
-0.391357	
-0.391235	
-0.391541	
-0.390747	
-0.391785	
-0.391602	
-0.391418	
-0.39032	
-0.391235	
-0.392273	
-0.390137	
-0.391357	
-0.389893	
-0.390015	
-0.389954	
-0.389954	
-0.389648	
-0.388672	
-0.388855	
-0.38739	
-0.388489	
-0.388123	
-0.387878	
-0.387268	
-0.38678	
-0.387207	
-0.386719	
	
