E:\DOCUMENTS AND SETTINGS\JPOTAS\MEUS DOCUMENTOS\UFRJ\RSCI-BM 12 WK SERIES\070727-RSCI-BM-05\RSCI-BM-05-LEMG\070727-RSCI-BM-05-LEMG-0021.ACQ
0.025000 msec/sample
1 channel
Analog input
Volts
CH1	
2000	
-0.386597	
-0.388428	
-0.387268	
-0.38739	
-0.385681	
-0.387695	
-0.387878	
-0.387146	
-0.387756	
-0.388245	
-0.389221	
-0.387939	
-0.390564	
-0.388794	
-0.388611	
-0.388977	
-0.388794	
-0.389038	
-0.388184	
-0.389465	
-0.388672	
-0.389221	
-0.388794	
-0.388977	
-0.387512	
-0.387695	
-0.387939	
-0.386536	
-0.385864	
-0.386353	
-0.386597	
-0.386658	
-0.38623	
-0.385986	
-0.385437	
-0.384521	
-0.384827	
-0.384399	
-0.382141	
-0.38269	
-0.383728	
-0.383301	
-0.383362	
-0.383484	
-0.383362	
-0.38324	
-0.384094	
-0.382446	
-0.382751	
-0.382019	
-0.382874	
-0.382874	
-0.382507	
-0.384216	
-0.38385	
-0.384888	
-0.384949	
-0.387085	
-0.385803	
-0.386414	
-0.387329	
-0.387329	
-0.388367	
-0.387634	
-0.389038	
-0.388672	
-0.390381	
-0.389954	
-0.390503	
-0.389587	
-0.390076	
-0.390564	
-0.389954	
-0.389343	
-0.389954	
-0.390991	
-0.390259	
-0.390686	
-0.390442	
-0.390808	
-0.39032	
-0.389526	
-0.389893	
-0.389099	
-0.388855	
-0.390686	
-0.389343	
-0.390381	
-0.390808	
-0.390503	
-0.389832	
-0.391296	
-0.390015	
-0.389648	
-0.38916	
-0.389648	
-0.390015	
-0.388794	
-0.388855	
-0.388489	
-0.388672	
-0.387634	
-0.388428	
-0.387634	
-0.387268	
-0.38678	
-0.386353	
-0.38623	
-0.386536	
-0.386536	
-0.386353	
-0.386536	
-0.386597	
-0.386841	
-0.385681	
-0.385864	
-0.386108	
-0.385437	
-0.386719	
-0.386841	
-0.385864	
-0.38678	
-0.387024	
-0.386658	
-0.387756	
-0.387207	
-0.386902	
-0.387207	
-0.387329	
-0.387207	
-0.387329	
-0.387573	
-0.387634	
-0.387573	
-0.387207	
-0.387268	
-0.388062	
-0.387024	
-0.387024	
-0.386902	
-0.386414	
-0.386536	
-0.386353	
-0.386536	
-0.38678	
-0.387207	
-0.387512	
-0.387634	
-0.38678	
-0.386475	
-0.386169	
-0.386475	
-0.386963	
-0.386902	
-0.386353	
-0.387085	
-0.387695	
-0.387573	
-0.387939	
-0.388184	
-0.388	
-0.387146	
-0.387329	
-0.388123	
-0.388733	
-0.387817	
-0.388489	
-0.389893	
-0.389893	
-0.389771	
-0.389343	
-0.388977	
-0.388794	
-0.38855	
-0.388245	
-0.38855	
-0.388	
-0.388123	
-0.38855	
-0.388245	
-0.388245	
-0.388794	
-0.387634	
-0.386658	
-0.386963	
-0.385803	
-0.386597	
-0.386047	
-0.385315	
-0.386719	
-0.38623	
-0.386353	
-0.386963	
-0.386108	
-0.386108	
-0.385864	
-0.386414	
-0.38269	
-0.383118	
-0.385254	
-0.385681	
-0.385315	
-0.385498	
-0.38623	
-0.384644	
-0.385376	
-0.384949	
-0.386108	
-0.386353	
-0.387085	
-0.387878	
-0.388794	
-0.389648	
-0.390137	
-0.390564	
-0.390808	
-0.390564	
-0.390808	
-0.390259	
-0.391418	
-0.391357	
-0.390991	
-0.390808	
-0.392334	
-0.392151	
-0.392578	
-0.3927	
-0.392212	
-0.391724	
-0.391663	
-0.392029	
-0.392273	
-0.391907	
-0.391968	
-0.392029	
-0.391663	
-0.392151	
-0.392883	
-0.392334	
-0.391235	
-0.390381	
-0.392151	
-0.391602	
-0.391235	
-0.391479	
-0.391785	
-0.391846	
-0.390564	
-0.39093	
-0.390076	
-0.389954	
-0.389709	
-0.389099	
-0.390686	
-0.392151	
-0.393555	
-0.395325	
-0.398987	
-0.400574	
-0.404297	
-0.407349	
-0.410645	
-0.414673	
-0.418396	
-0.423706	
-0.427124	
-0.431274	
-0.435852	
-0.440369	
-0.444641	
-0.450989	
-0.455627	
-0.462158	
-0.466919	
-0.475952	
-0.48468	
-0.494751	
-0.503967	
-0.513977	
-0.523193	
-0.530701	
-0.537659	
-0.541565	
-0.545288	
-0.54718	
-0.550415	
-0.55072	
-0.550964	
-0.550354	
-0.55011	
-0.548828	
-0.547546	
-0.546997	
-0.543823	
-0.542542	
-0.539124	
-0.537476	
-0.533875	
-0.529602	
-0.526367	
-0.522156	
-0.51886	
-0.514893	
-0.512512	
-0.507263	
-0.504211	
-0.500488	
-0.497253	
-0.494507	
-0.491455	
-0.487305	
-0.483215	
-0.481323	
-0.476257	
-0.473633	
-0.468933	
-0.465759	
-0.462036	
-0.45874	
-0.456299	
-0.454529	
-0.452148	
-0.44928	
-0.449463	
-0.447388	
-0.44812	
-0.447083	
-0.446838	
-0.445374	
-0.444031	
-0.442261	
-0.441406	
-0.438965	
-0.436279	
-0.435059	
-0.432434	
-0.430847	
-0.428467	
-0.425293	
-0.42157	
-0.418213	
-0.415039	
-0.410217	
-0.406067	
-0.401001	
-0.395569	
-0.389404	
-0.384399	
-0.377991	
-0.369568	
-0.362732	
-0.354309	
-0.347656	
-0.340637	
-0.333374	
-0.326721	
-0.320984	
-0.315857	
-0.309692	
-0.305725	
-0.300476	
-0.296204	
-0.292969	
-0.290588	
-0.289734	
-0.289124	
-0.289795	
-0.289612	
-0.293152	
-0.294312	
-0.297424	
-0.299805	
-0.303162	
-0.304443	
-0.30835	
-0.31073	
-0.312073	
-0.313904	
-0.315552	
-0.3172	
-0.31781	
-0.318726	
-0.319153	
-0.320007	
-0.319946	
-0.321289	
-0.322388	
-0.323486	
-0.324707	
-0.32666	
-0.327942	
-0.329834	
-0.332642	
-0.333557	
-0.335388	
-0.336426	
-0.338623	
-0.340515	
-0.342346	
-0.343567	
-0.345459	
-0.345825	
-0.347717	
-0.347961	
-0.348328	
-0.349365	
-0.349304	
-0.351685	
-0.35144	
-0.351868	
-0.352356	
-0.353333	
-0.354431	
-0.355896	
-0.354858	
-0.355347	
-0.355774	
-0.356323	
-0.357788	
-0.358093	
-0.358398	
-0.358459	
-0.360168	
-0.361084	
-0.362671	
-0.362305	
-0.362366	
-0.361511	
-0.362305	
-0.364197	
-0.36438	
-0.36499	
-0.365906	
-0.365906	
-0.366455	
-0.367798	
-0.367371	
-0.36731	
-0.36731	
-0.368469	
-0.36908	
-0.368591	
-0.369263	
-0.36908	
-0.36908	
-0.369507	
-0.370056	
-0.369263	
-0.370056	
-0.368225	
-0.3703	
-0.369629	
-0.369873	
-0.36969	
-0.371277	
-0.370239	
-0.370544	
-0.370605	
-0.369019	
-0.369202	
-0.368713	
-0.369873	
-0.369751	
-0.369385	
-0.368591	
-0.370239	
-0.369446	
-0.370728	
-0.370178	
-0.369324	
-0.369568	
-0.369507	
-0.371094	
-0.37085	
-0.3703	
-0.369446	
-0.371704	
-0.371033	
-0.371704	
-0.371704	
-0.371216	
-0.37146	
-0.370728	
-0.372131	
-0.371948	
-0.372314	
-0.371399	
-0.372925	
-0.372131	
-0.372681	
-0.372742	
-0.372437	
-0.372131	
-0.371765	
-0.373169	
-0.372864	
-0.372192	
-0.372559	
-0.373291	
-0.372925	
-0.372925	
-0.372253	
-0.371643	
-0.372498	
-0.372192	
-0.372559	
-0.372803	
-0.372864	
-0.373291	
-0.374329	
-0.374817	
-0.374817	
-0.373413	
-0.373962	
-0.374817	
-0.375671	
-0.375793	
-0.376221	
-0.374817	
-0.37677	
-0.377563	
-0.377319	
-0.378479	
-0.376221	
-0.377197	
-0.376892	
-0.377502	
-0.377747	
-0.377441	
-0.377075	
-0.378601	
-0.379517	
-0.378967	
-0.380615	
-0.378052	
-0.379578	
-0.379089	
-0.380005	
-0.3797	
-0.379517	
-0.379456	
-0.379578	
-0.379333	
-0.378235	
-0.378357	
-0.375488	
-0.376343	
-0.375366	
-0.375671	
-0.375305	
-0.375122	
-0.375183	
-0.376038	
-0.375793	
-0.374878	
-0.375549	
-0.373779	
-0.374512	
-0.37384	
-0.374878	
-0.374695	
-0.374634	
-0.37384	
-0.375061	
-0.376099	
-0.375061	
-0.375427	
-0.375061	
-0.375244	
-0.374451	
-0.376282	
-0.375916	
-0.37616	
-0.375488	
-0.376587	
-0.376709	
-0.375977	
-0.376709	
-0.376526	
-0.376465	
-0.376587	
-0.378967	
-0.378967	
-0.378967	
-0.378784	
-0.379578	
-0.380432	
-0.380371	
-0.380493	
-0.379944	
-0.37915	
-0.379578	
-0.381104	
-0.381287	
-0.381287	
-0.381531	
-0.38208	
-0.383057	
-0.382629	
-0.383179	
-0.382019	
-0.381714	
-0.380798	
-0.382385	
-0.382141	
-0.381836	
-0.381775	
-0.382019	
-0.382507	
-0.381775	
-0.381104	
-0.379639	
-0.379333	
-0.379211	
-0.381226	
-0.380188	
-0.379639	
-0.380127	
-0.380127	
-0.380859	
-0.379822	
-0.380554	
-0.378967	
-0.379395	
-0.379517	
-0.380371	
-0.379272	
-0.379517	
-0.378906	
-0.380127	
-0.380066	
-0.380615	
-0.380188	
-0.378357	
-0.379395	
-0.379333	
-0.380188	
-0.3797	
-0.3797	
-0.379272	
-0.380798	
-0.381104	
-0.380554	
-0.381104	
-0.380127	
-0.381042	
-0.38092	
-0.381897	
-0.381226	
-0.380737	
-0.380493	
-0.38147	
-0.381409	
-0.381775	
-0.381653	
-0.380249	
-0.380798	
-0.380859	
-0.381714	
-0.381287	
-0.38147	
-0.380859	
-0.382813	
-0.381958	
-0.383057	
-0.382935	
-0.381226	
-0.381897	
-0.382568	
-0.383789	
-0.383545	
-0.383057	
-0.383484	
-0.384094	
-0.383789	
-0.384888	
-0.384583	
-0.383118	
-0.383667	
-0.384338	
-0.385254	
-0.384888	
-0.384949	
-0.384949	
-0.385803	
-0.385986	
-0.385864	
-0.385559	
-0.383118	
-0.383972	
-0.384399	
-0.384766	
-0.384399	
-0.383667	
-0.383423	
-0.383423	
-0.383606	
-0.383545	
-0.383057	
-0.380615	
-0.381653	
-0.381409	
-0.382629	
-0.38092	
-0.380676	
-0.380127	
-0.380798	
-0.380676	
-0.380676	
-0.3797	
-0.378845	
-0.37915	
-0.379456	
-0.38031	
-0.379517	
-0.379578	
-0.38031	
-0.380554	
-0.381531	
-0.381165	
-0.381348	
-0.380554	
-0.380981	
-0.381775	
-0.381897	
-0.382996	
-0.383362	
-0.384705	
-0.384521	
-0.386353	
-0.386719	
-0.386658	
-0.386169	
-0.386658	
-0.387329	
-0.386536	
-0.387451	
-0.387756	
-0.387634	
-0.387451	
-0.388916	
-0.388611	
-0.387878	
-0.386841	
-0.387756	
-0.388	
-0.387207	
-0.388123	
-0.388123	
-0.388306	
-0.387268	
-0.389099	
-0.388733	
-0.387695	
-0.386841	
-0.387695	
-0.387573	
-0.387146	
-0.387451	
-0.387878	
-0.38739	
-0.387329	
-0.388123	
-0.387878	
-0.386902	
-0.386597	
-0.386414	
-0.385864	
-0.385193	
-0.38446	
-0.385132	
-0.384766	
-0.383911	
-0.385315	
-0.385681	
-0.384399	
-0.384094	
-0.384399	
-0.384216	
-0.384338	
-0.383911	
-0.383423	
-0.384583	
-0.384216	
-0.385437	
-0.385071	
-0.38446	
-0.383545	
-0.385071	
-0.38446	
-0.38501	
-0.385254	
-0.385742	
-0.385437	
-0.384888	
-0.386536	
-0.38678	
-0.385986	
-0.385742	
-0.385925	
-0.385864	
-0.385559	
-0.384705	
-0.385681	
-0.385681	
-0.384827	
-0.386597	
-0.386658	
-0.385681	
-0.385376	
-0.385437	
-0.385681	
-0.385437	
-0.38562	
-0.385559	
-0.385925	
-0.385437	
-0.386597	
-0.385986	
-0.385132	
-0.38562	
-0.386475	
-0.385986	
-0.385925	
-0.386597	
-0.38623	
-0.386169	
-0.387207	
-0.387695	
-0.387268	
-0.387268	
-0.387207	
-0.388245	
-0.388	
-0.387634	
-0.387939	
-0.388	
-0.387634	
-0.388062	
-0.388062	
-0.387756	
-0.387207	
-0.387024	
-0.387146	
-0.386902	
-0.38739	
-0.386719	
-0.386658	
-0.386658	
-0.38678	
-0.386169	
-0.385681	
-0.385437	
-0.385681	
-0.385742	
-0.385132	
-0.385132	
-0.38562	
-0.385376	
-0.385986	
-0.385559	
-0.385376	
-0.386047	
-0.385254	
-0.384888	
-0.384521	
-0.384094	
-0.384399	
-0.384521	
-0.383972	
-0.384583	
-0.384644	
-0.383972	
-0.385193	
-0.385559	
-0.38562	
-0.385742	
-0.386414	
-0.387939	
-0.388733	
-0.388672	
-0.389709	
-0.390076	
-0.389343	
-0.390198	
-0.391052	
-0.389832	
-0.389526	
-0.390686	
-0.391235	
-0.391296	
-0.391541	
-0.391418	
-0.391724	
-0.391785	
-0.392578	
-0.392212	
-0.390686	
-0.391418	
-0.391418	
-0.391724	
-0.391907	
-0.392151	
-0.391174	
-0.391663	
-0.391907	
-0.392395	
-0.392578	
-0.390015	
-0.390808	
-0.391846	
-0.391541	
-0.391052	
-0.390564	
-0.389893	
-0.390015	
-0.389893	
-0.390564	
-0.390503	
-0.388367	
-0.388672	
-0.388977	
-0.388428	
-0.388977	
-0.389038	
-0.388428	
-0.388306	
-0.388855	
-0.388489	
-0.388489	
-0.386475	
-0.387085	
-0.387146	
-0.387756	
-0.387634	
-0.388	
-0.387695	
-0.387695	
-0.388672	
-0.388367	
-0.388184	
-0.388123	
-0.389404	
-0.389465	
-0.389282	
-0.389587	
-0.389771	
-0.389221	
-0.390198	
-0.390686	
-0.389954	
-0.391052	
-0.389465	
-0.389893	
-0.389709	
-0.390869	
-0.39093	
-0.390991	
-0.390808	
-0.391602	
-0.391968	
-0.391052	
-0.392029	
-0.391235	
-0.391541	
-0.390198	
-0.392151	
-0.391968	
-0.391663	
-0.391602	
-0.391968	
-0.392517	
-0.391602	
-0.393005	
-0.392334	
-0.391541	
-0.391113	
-0.391602	
-0.391174	
-0.390991	
-0.391235	
-0.390503	
-0.391235	
-0.389526	
-0.391541	
-0.391235	
-0.390869	
-0.39093	
-0.391235	
-0.39093	
-0.391052	
-0.39093	
-0.39032	
-0.390991	
-0.389832	
-0.390869	
-0.390808	
-0.390198	
-0.389832	
-0.390198	
-0.389832	
-0.389343	
-0.390198	
-0.388794	
-0.389648	
-0.388062	
-0.389343	
-0.38916	
-0.388855	
-0.388489	
-0.388184	
-0.388123	
-0.38855	
-0.388611	
-0.387451	
-0.388	
-0.387085	
-0.388	
-0.387756	
-0.387878	
-0.388062	
-0.387024	
-0.388611	
-0.389465	
-0.389465	
-0.388977	
-0.389954	
-0.388977	
-0.389893	
-0.390808	
-0.390442	
-0.39032	
-0.389893	
-0.391296	
-0.391785	
-0.392761	
-0.39209	
-0.392761	
-0.392944	
-0.392944	
-0.394287	
-0.394104	
-0.393433	
-0.39386	
-0.394104	
-0.393921	
-0.394348	
-0.393494	
-0.393677	
-0.39386	
-0.393494	
-0.39386	
-0.393127	
-0.393066	
-0.392578	
-0.392822	
-0.392029	
-0.392273	
-0.391296	
-0.390503	
-0.390808	
-0.38916	
-0.389343	
-0.387695	
-0.387878	
-0.38739	
-0.386841	
-0.387329	
-0.386902	
-0.386963	
-0.385803	
-0.387695	
-0.385864	
-0.387451	
-0.386169	
-0.38623	
-0.386169	
-0.386292	
-0.386902	
-0.386963	
-0.38739	
-0.386475	
-0.387695	
-0.386108	
-0.387146	
-0.386841	
-0.386353	
-0.386536	
-0.386841	
-0.387146	
-0.388184	
-0.388306	
-0.387756	
-0.388794	
-0.388245	
-0.388794	
-0.388611	
-0.38855	
-0.388489	
-0.387756	
-0.389343	
-0.390686	
-0.390503	
-0.390076	
-0.39093	
-0.39032	
-0.390625	
-0.391541	
-0.391724	
-0.391418	
-0.390808	
-0.391785	
-0.391418	
-0.391479	
-0.390869	
-0.391541	
-0.391479	
-0.391357	
-0.392212	
-0.392334	
-0.392273	
-0.391602	
-0.39209	
-0.391479	
-0.391724	
-0.390747	
-0.390259	
-0.390442	
-0.390198	
-0.390991	
-0.39032	
-0.390564	
-0.390381	
-0.391235	
-0.390381	
-0.390808	
-0.390259	
-0.390564	
-0.391174	
-0.39093	
-0.391357	
-0.390564	
-0.391479	
-0.390808	
-0.390198	
-0.390991	
-0.391541	
-0.390991	
-0.390869	
-0.391846	
-0.391113	
-0.391174	
-0.390625	
-0.390747	
-0.390625	
-0.389832	
-0.389526	
-0.390381	
-0.390137	
-0.389099	
-0.390564	
-0.389221	
-0.389893	
-0.390076	
-0.389771	
-0.389038	
-0.389038	
-0.388245	
-0.389099	
-0.389893	
-0.387939	
-0.389099	
-0.389099	
-0.389221	
-0.39032	
-0.389954	
-0.389465	
-0.389771	
-0.390625	
-0.389771	
-0.391113	
-0.390076	
-0.390991	
-0.390747	
-0.39093	
-0.391846	
-0.391663	
-0.391602	
-0.391541	
-0.392212	
-0.391785	
-0.392334	
-0.391541	
-0.391785	
-0.391602	
-0.391479	
-0.39209	
-0.391418	
-0.392883	
-0.392578	
-0.393372	
-0.393066	
-0.393188	
-0.392456	
-0.393127	
-0.393372	
-0.391357	
-0.392578	
-0.391724	
-0.39093	
-0.390076	
-0.390198	
-0.38916	
-0.388367	
-0.388245	
-0.388184	
-0.388489	
-0.386292	
-0.387512	
-0.387085	
-0.387024	
-0.386475	
-0.385193	
-0.385498	
-0.386047	
-0.387146	
-0.385193	
-0.386292	
-0.385132	
-0.386108	
-0.385864	
-0.385742	
-0.385498	
-0.384766	
-0.385254	
-0.386169	
-0.386719	
-0.385132	
-0.386963	
-0.386353	
-0.386169	
-0.386658	
-0.386719	
-0.386536	
-0.385498	
-0.386658	
-0.387146	
-0.388123	
-0.387512	
-0.388489	
-0.388	
-0.388428	
-0.389832	
-0.390198	
-0.38916	
-0.388794	
-0.390137	
-0.389893	
-0.390076	
-0.389221	
-0.390259	
-0.389832	
-0.390198	
-0.391357	
-0.392151	
-0.391113	
-0.390503	
-0.39093	
-0.391357	
-0.390991	
-0.390564	
-0.390381	
-0.390381	
-0.389221	
-0.390503	
-0.39032	
-0.389343	
-0.388428	
-0.388428	
-0.388	
-0.388123	
-0.388184	
-0.387634	
-0.388123	
-0.387695	
-0.388245	
-0.387085	
-0.387329	
-0.386963	
-0.386658	
-0.387207	
-0.38739	
-0.387817	
-0.385986	
-0.387451	
-0.38678	
-0.386536	
-0.385742	
-0.386353	
-0.386047	
-0.385498	
-0.386536	
-0.386292	
-0.386597	
-0.386047	
-0.388428	
-0.386902	
-0.386597	
-0.386902	
-0.386414	
-0.386292	
-0.385681	
-0.387146	
-0.387512	
-0.388123	
-0.386841	
-0.388489	
-0.387268	
-0.387268	
-0.387634	
-0.387268	
-0.387207	
-0.385925	
-0.387268	
-0.386902	
-0.387451	
-0.387085	
-0.388184	
-0.387268	
-0.386719	
-0.388245	
-0.388489	
-0.388123	
-0.387512	
-0.388672	
-0.388855	
-0.388977	
-0.38855	
-0.38916	
-0.388977	
-0.388123	
-0.390137	
-0.389709	
-0.389954	
-0.389832	
-0.390625	
-0.390259	
-0.390015	
-0.390747	
-0.390076	
-0.390259	
-0.389709	
-0.390747	
-0.389648	
-0.389893	
-0.389343	
-0.389343	
-0.389648	
-0.389099	
-0.389343	
-0.387695	
-0.389343	
-0.387878	
-0.388672	
-0.387634	
-0.387695	
-0.387024	
-0.386597	
-0.38678	
-0.386047	
-0.386414	
-0.384949	
-0.385681	
-0.384827	
-0.385132	
-0.38446	
-0.384949	
-0.384033	
-0.383972	
-0.385071	
-0.384705	
-0.384644	
-0.383911	
-0.385315	
-0.385193	
-0.384888	
-0.385071	
-0.385559	
-0.385864	
-0.385498	
-0.386108	
-0.38678	
-0.387878	
-0.38739	
-0.389099	
-0.389404	
-0.390259	
-0.390259	
-0.390808	
-0.390808	
-0.389893	
-0.390808	
-0.391052	
-0.391174	
-0.391296	
-0.391541	
-0.391724	
-0.39209	
-0.392273	
-0.391663	
-0.391541	
-0.391052	
-0.391724	
-0.391968	
-0.391724	
-0.392334	
-0.39093	
-0.392456	
-0.391235	
-0.392944	
-0.39209	
-0.391113	
-0.390869	
-0.391479	
-0.392395	
-0.391235	
-0.391663	
-0.391357	
-0.392395	
-0.389893	
-0.391235	
-0.390564	
-0.390442	
-0.389771	
-0.389038	
-0.389038	
-0.388977	
-0.389038	
-0.388245	
-0.389221	
-0.387695	
-0.388245	
-0.388306	
-0.388245	
-0.388	
-0.387573	
-0.388184	
-0.387756	
-0.38855	
-0.387146	
-0.388062	
-0.388062	
-0.387817	
-0.387817	
-0.388	
-0.387573	
-0.387573	
-0.388245	
-0.389404	
-0.389038	
-0.388428	
-0.388184	
-0.388733	
-0.388977	
-0.388977	
-0.389038	
-0.389038	
-0.388306	
-0.387817	
-0.388672	
-0.388367	
-0.388794	
-0.388	
-0.388367	
-0.388977	
-0.388489	
-0.389099	
-0.387939	
-0.387146	
-0.387451	
-0.389099	
-0.388672	
-0.388306	
-0.388367	
-0.388306	
-0.388489	
-0.388977	
-0.389404	
-0.388977	
-0.388123	
-0.388489	
-0.389221	
-0.389526	
-0.389832	
-0.389832	
-0.389587	
-0.389038	
-0.390991	
-0.390076	
-0.390442	
-0.389771	
-0.390747	
-0.391235	
-0.390808	
-0.391418	
-0.390442	
-0.390198	
-0.389893	
-0.391113	
-0.389282	
-0.389709	
-0.389465	
-0.389465	
-0.389648	
-0.389221	
-0.390076	
-0.388855	
-0.388123	
-0.388245	
-0.388611	
-0.387451	
-0.387695	
-0.38739	
-0.387878	
-0.388	
-0.38855	
-0.388489	
-0.387817	
-0.388	
-0.387939	
-0.387573	
-0.386719	
-0.386902	
-0.386902	
-0.385254	
-0.385925	
-0.38739	
-0.387634	
-0.387024	
-0.387573	
-0.387268	
-0.388245	
-0.389282	
-0.390198	
-0.389832	
-0.390564	
-0.390747	
-0.391785	
-0.392029	
-0.392273	
-0.393127	
-0.392029	
-0.392151	
-0.393738	
-0.394226	
-0.393127	
-0.393311	
-0.392761	
-0.394165	
-0.393982	
-0.393799	
-0.394104	
-0.393799	
-0.392761	
-0.394348	
-0.394409	
-0.393738	
-0.393494	
-0.393494	
-0.393982	
-0.394226	
-0.394043	
-0.394043	
-0.392273	
-0.392883	
-0.393982	
-0.393616	
-0.393372	
-0.392944	
-0.391174	
-0.392395	
-0.393005	
-0.392639	
-0.391479	
-0.390564	
-0.390442	
-0.391418	
-0.390442	
-0.391174	
-0.390869	
-0.389893	
-0.389709	
-0.391541	
-0.390503	
-0.390076	
-0.390015	
-0.388184	
-0.389404	
-0.388794	
-0.389954	
-0.389099	
-0.389709	
-0.389526	
-0.389709	
-0.389771	
-0.389709	
-0.39032	
-0.388733	
-0.390625	
-0.390686	
-0.392334	
-0.391846	
-0.391174	
-0.391174	
-0.391785	
-0.392456	
-0.391846	
-0.392456	
-0.390137	
-0.392029	
-0.392578	
-0.393066	
-0.392212	
-0.392456	
-0.392639	
-0.392578	
-0.394287	
-0.393127	
-0.393555	
-0.392334	
-0.393066	
-0.393677	
-0.393555	
-0.39386	
-0.392883	
-0.392883	
-0.392517	
-0.39502	
-0.393311	
-0.393555	
-0.393188	
-0.393921	
-0.393616	
-0.39325	
-0.393921	
-0.392883	
-0.391357	
-0.392273	
-0.392944	
-0.392212	
-0.392456	
-0.392212	
-0.391541	
-0.392395	
-0.393677	
-0.393433	
-0.392395	
-0.392456	
-0.392517	
-0.392456	
-0.392151	
-0.392151	
-0.391296	
-0.390686	
-0.391541	
-0.391296	
-0.391602	
-0.391052	
-0.391113	
-0.390869	
-0.390808	
-0.391296	
-0.390442	
-0.390259	
-0.389771	
-0.390015	
-0.389832	
-0.390198	
-0.389832	
-0.389648	
-0.389099	
-0.388672	
-0.390503	
-0.389282	
-0.389832	
-0.388428	
-0.389099	
-0.388916	
-0.389893	
-0.39032	
-0.390259	
-0.389832	
-0.390198	
-0.391418	
-0.39093	
-0.391785	
-0.39032	
-0.391418	
-0.391907	
-0.392578	
-0.393494	
-0.392944	
-0.392212	
-0.393677	
-0.394348	
-0.393677	
-0.394958	
-0.393311	
-0.393799	
-0.394653	
-0.395569	
-0.395752	
-0.394958	
-0.394348	
-0.394958	
-0.395386	
-0.39563	
-0.394531	
-0.393677	
-0.393677	
-0.393738	
-0.394104	
-0.393799	
-0.393127	
-0.392151	
-0.391541	
-0.392151	
-0.391052	
-0.39032	
-0.389954	
-0.389038	
-0.388611	
-0.387329	
-0.388306	
-0.387756	
-0.387512	
-0.387756	
-0.388184	
-0.388123	
-0.387451	
-0.387634	
-0.386963	
-0.38739	
-0.38739	
-0.388062	
-0.387695	
-0.386963	
-0.387146	
-0.387146	
-0.387756	
-0.387207	
-0.388	
-0.387695	
-0.38678	
-0.388	
-0.388306	
-0.388794	
-0.387939	
-0.38739	
-0.388062	
-0.388916	
-0.389587	
-0.389282	
-0.387878	
-0.388733	
-0.389709	
-0.390503	
-0.391174	
-0.390808	
-0.390198	
-0.391174	
-0.391968	
-0.392212	
-0.391479	
-0.390869	
-0.391724	
-0.391602	
-0.391663	
-0.393066	
-0.392029	
-0.391479	
-0.391846	
-0.393005	
-0.392578	
-0.392334	
-0.3927	
-0.392212	
-0.39209	
-0.392029	
-0.392517	
-0.391479	
-0.391296	
-0.390625	
-0.391602	
-0.391479	
-0.390442	
-0.391602	
-0.39093	
-0.390991	
-0.391602	
-0.391724	
-0.390686	
-0.39032	
-0.389893	
-0.391663	
-0.391663	
-0.391174	
-0.391602	
-0.391418	
-0.390625	
-0.391541	
-0.391907	
-0.391418	
-0.391479	
-0.39032	
-0.390442	
-0.391357	
-0.392151	
-0.391235	
-0.391052	
-0.390808	
-0.390991	
-0.390198	
-0.391479	
-0.390564	
-0.390198	
-0.390198	
-0.390564	
-0.390686	
-0.389771	
-0.390381	
-0.389587	
-0.389709	
-0.388977	
-0.390137	
-0.389343	
-0.389099	
-0.38916	
-0.389587	
-0.390137	
-0.389343	
-0.389282	
-0.389465	
-0.389893	
-0.389893	
-0.390808	
-0.390259	
-0.390259	
-0.390015	
-0.391418	
-0.39093	
-0.391174	
-0.391357	
-0.391357	
-0.390808	
-0.392029	
-0.392578	
-0.392151	
-0.391785	
-0.39093	
-0.391602	
-0.391663	
-0.392822	
-0.3927	
-0.392822	
-0.392029	
-0.393433	
-0.394409	
-0.393433	
-0.393066	
-0.3927	
-0.392822	
-0.392456	
-0.393433	
-0.391907	
-0.391418	
-0.39093	
-0.390015	
-0.389282	
-0.389709	
-0.388855	
-0.387756	
-0.388	
-0.387756	
-0.387573	
-0.387085	
-0.387512	
-0.386353	
-0.386414	
-0.385803	
-0.386169	
-0.385742	
-0.385803	
-0.385193	
-0.385193	
-0.385315	
-0.385803	
-0.385498	
-0.38562	
-0.385193	
-0.386108	
-0.386169	
-0.386108	
-0.385925	
-0.384827	
-0.386047	
-0.386536	
-0.385864	
-0.385986	
-0.386353	
-0.384766	
-0.386108	
-0.387512	
-0.387573	
-0.386841	
-0.386047	
-0.388062	
-0.388306	
-0.388611	
-0.388855	
-0.388977	
-0.388672	
-0.388977	
-0.389465	
-0.389893	
-0.389893	
-0.388611	
-0.389771	
-0.389709	
-0.390625	
-0.390686	
-0.390747	
-0.390503	
-0.390625	
-0.390137	
-0.390686	
-0.390137	
-0.390198	
-0.390625	
-0.389404	
-0.390137	
-0.389709	
-0.389221	
-0.388855	
-0.388	
-0.388611	
-0.388428	
-0.387817	
-0.387207	
-0.387756	
-0.386963	
-0.387878	
-0.387085	
-0.386963	
-0.386597	
-0.385925	
-0.386658	
-0.386902	
-0.386658	
-0.386353	
-0.386414	
-0.386658	
-0.386414	
-0.386658	
-0.38623	
-0.386292	
-0.385559	
-0.385437	
-0.386169	
-0.386658	
-0.385681	
-0.385376	
-0.385864	
-0.386169	
-0.387146	
-0.386719	
-0.38623	
-0.386047	
-0.386475	
-0.387817	
-0.388184	
-0.386597	
-0.386414	
-0.386597	
-0.387024	
-0.386414	
-0.386658	
-0.386047	
-0.386169	
-0.386108	
-0.38678	
-0.387573	
-0.386414	
-0.386169	
-0.386902	
-0.38739	
-0.387329	
-0.387207	
-0.387512	
-0.387756	
	
