E:\DOCUMENTS AND SETTINGS\JPOTAS\MEUS DOCUMENTOS\UFRJ\RSCI-BM 12 WK SERIES\070727-RSCI-BM-05\RSCI-BM-05-LEMG\070727-RSCI-BM-05-LEMG-0006.ACQ
0.025000 msec/sample
1 channel
Analog input
Volts
CH1	
2000	
-0.390137	
-0.391235	
-0.390137	
-0.391235	
-0.390259	
-0.391296	
-0.390381	
-0.390625	
-0.390686	
-0.390869	
-0.389893	
-0.390259	
-0.389648	
-0.390625	
-0.390503	
-0.390808	
-0.388916	
-0.390381	
-0.389893	
-0.390442	
-0.390747	
-0.390381	
-0.390015	
-0.390381	
-0.390747	
-0.390076	
-0.389893	
-0.39032	
-0.388794	
-0.390015	
-0.389404	
-0.389771	
-0.390198	
-0.390137	
-0.390015	
-0.389954	
-0.391357	
-0.390686	
-0.391052	
-0.389709	
-0.390137	
-0.389893	
-0.389038	
-0.390442	
-0.390503	
-0.390198	
-0.390198	
-0.390015	
-0.391602	
-0.390564	
-0.390259	
-0.389832	
-0.388733	
-0.389954	
-0.389038	
-0.389771	
-0.388733	
-0.389832	
-0.389526	
-0.388916	
-0.390625	
-0.389282	
-0.389893	
-0.388428	
-0.389221	
-0.388916	
-0.387878	
-0.388245	
-0.388489	
-0.387878	
-0.387939	
-0.387695	
-0.388916	
-0.386841	
-0.387573	
-0.386658	
-0.387634	
-0.386841	
-0.386841	
-0.388367	
-0.387939	
-0.388855	
-0.388245	
-0.388306	
-0.389771	
-0.388977	
-0.389648	
-0.387695	
-0.389526	
-0.388977	
-0.389099	
-0.389343	
-0.389832	
-0.389648	
-0.390137	
-0.389893	
-0.390686	
-0.39032	
-0.391174	
-0.388733	
-0.390869	
-0.390198	
-0.390259	
-0.390808	
-0.389954	
-0.390503	
-0.390381	
-0.390686	
-0.390137	
-0.390747	
-0.391113	
-0.389893	
-0.390686	
-0.390015	
-0.389771	
-0.390869	
-0.390503	
-0.39032	
-0.390503	
-0.391663	
-0.390747	
-0.390625	
-0.39093	
-0.390503	
-0.390686	
-0.389465	
-0.390259	
-0.390381	
-0.391113	
-0.39032	
-0.390137	
-0.391541	
-0.390625	
-0.390503	
-0.389771	
-0.390869	
-0.390747	
-0.389343	
-0.389709	
-0.388306	
-0.389465	
-0.389404	
-0.389221	
-0.391174	
-0.389526	
-0.390442	
-0.388916	
-0.390747	
-0.389709	
-0.389709	
-0.390503	
-0.391235	
-0.390137	
-0.389893	
-0.389771	
-0.390259	
-0.390259	
-0.390625	
-0.389099	
-0.391174	
-0.390381	
-0.389648	
-0.390747	
-0.390137	
-0.390198	
-0.389832	
-0.389832	
-0.390747	
-0.390503	
-0.39093	
-0.389099	
-0.390869	
-0.390259	
-0.390076	
-0.389893	
-0.390198	
-0.389954	
-0.389587	
-0.389954	
-0.389893	
-0.389465	
-0.390259	
-0.388977	
-0.389832	
-0.389771	
-0.389709	
-0.390076	
-0.389465	
-0.389587	
-0.390137	
-0.39093	
-0.389893	
-0.390137	
-0.391113	
-0.389343	
-0.390076	
-0.389526	
-0.386902	
-0.383972	
-0.383545	
-0.383118	
-0.382935	
-0.384216	
-0.387268	
-0.389221	
-0.390259	
-0.389771	
-0.389282	
-0.38916	
-0.38916	
-0.389404	
-0.388306	
-0.388062	
-0.388306	
-0.390015	
-0.387878	
-0.388306	
-0.388123	
-0.387024	
-0.387573	
-0.387268	
-0.383545	
-0.381226	
-0.381226	
-0.380615	
-0.380676	
-0.381592	
-0.384949	
-0.387207	
-0.386902	
-0.388977	
-0.388	
-0.387329	
-0.387878	
-0.388977	
-0.388	
-0.387573	
-0.388489	
-0.389038	
-0.388672	
-0.388733	
-0.388184	
-0.388672	
-0.388306	
-0.387634	
-0.388428	
-0.389099	
-0.389893	
-0.391113	
-0.392151	
-0.395508	
-0.397156	
-0.400146	
-0.401917	
-0.405457	
-0.409058	
-0.412231	
-0.416199	
-0.420654	
-0.424866	
-0.429321	
-0.432739	
-0.435791	
-0.439575	
-0.443176	
-0.447144	
-0.450989	
-0.4552	
-0.460999	
-0.467102	
-0.473755	
-0.481567	
-0.488953	
-0.496155	
-0.501099	
-0.506348	
-0.510132	
-0.512329	
-0.512634	
-0.512634	
-0.513	
-0.511414	
-0.50946	
-0.506531	
-0.50531	
-0.50116	
-0.497742	
-0.493347	
-0.490601	
-0.486206	
-0.480896	
-0.476624	
-0.472534	
-0.467041	
-0.461731	
-0.457092	
-0.452637	
-0.447205	
-0.442322	
-0.437744	
-0.434082	
-0.430969	
-0.427307	
-0.425659	
-0.424011	
-0.422119	
-0.419373	
-0.416443	
-0.413513	
-0.411316	
-0.40918	
-0.406494	
-0.404297	
-0.402405	
-0.400513	
-0.398804	
-0.398071	
-0.397949	
-0.398315	
-0.399902	
-0.399109	
-0.400757	
-0.401306	
-0.404175	
-0.405396	
-0.406494	
-0.407837	
-0.409729	
-0.40979	
-0.410034	
-0.411133	
-0.410034	
-0.409546	
-0.408447	
-0.406921	
-0.40564	
-0.403015	
-0.400208	
-0.399963	
-0.39624	
-0.393494	
-0.389343	
-0.38623	
-0.381165	
-0.37677	
-0.371094	
-0.366638	
-0.360474	
-0.353882	
-0.347229	
-0.342468	
-0.336426	
-0.331299	
-0.326294	
-0.32312	
-0.318359	
-0.315186	
-0.312805	
-0.310791	
-0.309204	
-0.308533	
-0.308899	
-0.310974	
-0.312561	
-0.314819	
-0.318237	
-0.320435	
-0.324158	
-0.327454	
-0.330811	
-0.332581	
-0.334412	
-0.336792	
-0.339966	
-0.339844	
-0.340515	
-0.341858	
-0.341431	
-0.341309	
-0.342163	
-0.342346	
-0.342224	
-0.343323	
-0.343933	
-0.346069	
-0.346375	
-0.348083	
-0.349487	
-0.352417	
-0.352783	
-0.355042	
-0.357056	
-0.358643	
-0.360901	
-0.362244	
-0.36377	
-0.365906	
-0.368042	
-0.369568	
-0.371948	
-0.373291	
-0.373413	
-0.374756	
-0.375305	
-0.377075	
-0.377441	
-0.376892	
-0.379211	
-0.37854	
-0.378784	
-0.378784	
-0.37854	
-0.376099	
-0.375122	
-0.375427	
-0.372803	
-0.371521	
-0.370422	
-0.370422	
-0.36908	
-0.368347	
-0.367249	
-0.367126	
-0.364929	
-0.363892	
-0.363525	
-0.362122	
-0.360596	
-0.359802	
-0.358582	
-0.358154	
-0.356384	
-0.355042	
-0.353394	
-0.351074	
-0.349182	
-0.346558	
-0.344299	
-0.341858	
-0.339661	
-0.335876	
-0.334534	
-0.332092	
-0.330017	
-0.326843	
-0.326355	
-0.324707	
-0.323486	
-0.323059	
-0.322937	
-0.323181	
-0.324646	
-0.32666	
-0.328552	
-0.332092	
-0.335938	
-0.339905	
-0.343384	
-0.347656	
-0.351196	
-0.356262	
-0.359985	
-0.363647	
-0.365845	
-0.370789	
-0.373352	
-0.376404	
-0.377319	
-0.379395	
-0.379883	
-0.381165	
-0.384094	
-0.383606	
-0.383911	
-0.382446	
-0.383728	
-0.383362	
-0.382751	
-0.382263	
-0.381348	
-0.381226	
-0.381165	
-0.381348	
-0.380005	
-0.379639	
-0.379456	
-0.380188	
-0.380676	
-0.380737	
-0.380554	
-0.38092	
-0.380432	
-0.379883	
-0.379395	
-0.380432	
-0.380371	
-0.380554	
-0.380188	
-0.381897	
-0.38147	
-0.382202	
-0.382996	
-0.381287	
-0.381714	
-0.381775	
-0.382202	
-0.381653	
-0.381714	
-0.38092	
-0.381531	
-0.381226	
-0.380676	
-0.381714	
-0.379211	
-0.379456	
-0.378845	
-0.378784	
-0.378845	
-0.377808	
-0.37677	
-0.375854	
-0.377197	
-0.375977	
-0.375305	
-0.375061	
-0.374084	
-0.374023	
-0.373779	
-0.374207	
-0.373474	
-0.373047	
-0.372742	
-0.372559	
-0.373718	
-0.372681	
-0.372986	
-0.37207	
-0.372131	
-0.372192	
-0.369507	
-0.372375	
-0.371033	
-0.370483	
-0.371521	
-0.371765	
-0.371826	
-0.371887	
-0.373169	
-0.370972	
-0.371704	
-0.371887	
-0.371521	
-0.37207	
-0.37207	
-0.371887	
-0.371399	
-0.372986	
-0.373291	
-0.37384	
-0.373291	
-0.372864	
-0.373291	
-0.373779	
-0.374329	
-0.373657	
-0.372986	
-0.373718	
-0.37439	
-0.375122	
-0.375	
-0.375916	
-0.37561	
-0.374939	
-0.374939	
-0.375916	
-0.377563	
-0.376709	
-0.376404	
-0.377808	
-0.378723	
-0.378479	
-0.378845	
-0.378296	
-0.377869	
-0.377808	
-0.377502	
-0.379028	
-0.378662	
-0.378418	
-0.378662	
-0.379822	
-0.380127	
-0.379944	
-0.38031	
-0.379822	
-0.378235	
-0.379639	
-0.378906	
-0.380554	
-0.380432	
-0.380005	
-0.379517	
-0.379944	
-0.381348	
-0.380981	
-0.381104	
-0.379822	
-0.380188	
-0.38092	
-0.380737	
-0.380188	
-0.380371	
-0.380554	
-0.380676	
-0.381531	
-0.380859	
-0.381714	
-0.380554	
-0.380432	
-0.380737	
-0.380371	
-0.381042	
-0.381775	
-0.381287	
-0.381165	
-0.383057	
-0.383179	
-0.382629	
-0.384583	
-0.383179	
-0.383667	
-0.384155	
-0.385864	
-0.384399	
-0.384155	
-0.383789	
-0.383911	
-0.383972	
-0.383789	
-0.38385	
-0.38446	
-0.382568	
-0.384033	
-0.382874	
-0.383606	
-0.383179	
-0.383606	
-0.383484	
-0.383667	
-0.384277	
-0.383606	
-0.384827	
-0.383179	
-0.383789	
-0.384033	
-0.384216	
-0.385071	
-0.385498	
-0.38385	
-0.38562	
-0.385437	
-0.385803	
-0.387024	
-0.386597	
-0.385437	
-0.386047	
-0.38739	
-0.385681	
-0.385986	
-0.385376	
-0.385559	
-0.386047	
-0.386719	
-0.385742	
-0.386047	
-0.385925	
-0.385681	
-0.386169	
-0.386047	
-0.385864	
-0.385742	
-0.384644	
-0.385864	
-0.385925	
-0.385803	
-0.386475	
-0.385498	
-0.385315	
-0.385193	
-0.386108	
-0.383972	
-0.385376	
-0.385498	
-0.384399	
-0.385498	
-0.38562	
-0.385803	
-0.38562	
-0.385559	
-0.385559	
-0.385315	
-0.386414	
-0.386169	
-0.38623	
-0.384827	
-0.386597	
-0.387024	
-0.386414	
-0.387024	
-0.386475	
-0.386841	
-0.38623	
-0.388428	
-0.386353	
-0.386353	
-0.386475	
-0.386597	
-0.387024	
-0.387573	
-0.387207	
-0.386414	
-0.386353	
-0.386597	
-0.385681	
-0.387024	
-0.385193	
-0.386047	
-0.38501	
-0.386719	
-0.386292	
-0.386353	
-0.386475	
-0.385803	
-0.386414	
-0.385315	
-0.386292	
-0.385254	
-0.38501	
-0.384216	
-0.384521	
-0.384521	
-0.384216	
-0.383972	
-0.384033	
-0.383484	
-0.385864	
-0.385071	
-0.385437	
-0.385376	
-0.385925	
-0.383728	
-0.386292	
-0.386047	
-0.386719	
-0.386658	
-0.386353	
-0.386169	
-0.385864	
-0.388367	
-0.386475	
-0.386902	
-0.386963	
-0.386047	
-0.387085	
-0.387512	
-0.387634	
-0.388	
-0.387329	
-0.388	
-0.387512	
-0.389221	
-0.387756	
-0.387024	
-0.386963	
-0.387817	
-0.388489	
-0.387634	
-0.388184	
-0.388062	
-0.388184	
-0.387817	
-0.388977	
-0.388	
-0.387085	
-0.387512	
-0.388306	
-0.388367	
-0.389343	
-0.388794	
-0.388306	
-0.387939	
-0.38916	
-0.388672	
-0.389404	
-0.387817	
-0.388367	
-0.387329	
-0.387939	
-0.388428	
-0.388794	
-0.389648	
-0.388367	
-0.387878	
-0.388184	
-0.388	
-0.387939	
-0.387085	
-0.387085	
-0.385681	
-0.387634	
-0.388062	
-0.388428	
-0.387695	
-0.386292	
-0.388062	
-0.388489	
-0.390015	
-0.388306	
-0.387207	
-0.387939	
-0.38855	
-0.388977	
-0.38855	
-0.388428	
-0.388306	
-0.387939	
-0.388428	
-0.389099	
-0.389404	
-0.388306	
-0.388367	
-0.388184	
-0.388611	
-0.389343	
-0.388306	
-0.387939	
-0.388672	
-0.38855	
-0.389404	
-0.388672	
-0.388733	
-0.387878	
-0.387756	
-0.386047	
-0.388428	
-0.387756	
-0.388367	
-0.388	
-0.387085	
-0.387268	
-0.387939	
-0.389587	
-0.388245	
-0.386719	
-0.387634	
-0.387939	
-0.388916	
-0.389343	
-0.388062	
-0.387878	
-0.387878	
-0.389404	
-0.388306	
-0.389526	
-0.388062	
-0.387817	
-0.387451	
-0.387878	
-0.388428	
-0.387634	
-0.387451	
-0.387146	
-0.387085	
-0.388611	
-0.387451	
-0.386902	
-0.386719	
-0.386902	
-0.384094	
-0.386963	
-0.386047	
-0.38623	
-0.386169	
-0.385376	
-0.384888	
-0.386597	
-0.387451	
-0.385681	
-0.384949	
-0.385132	
-0.385254	
-0.38562	
-0.386108	
-0.385437	
-0.385254	
-0.384399	
-0.386353	
-0.386292	
-0.388245	
-0.386353	
-0.385376	
-0.385803	
-0.386658	
-0.387451	
-0.387207	
-0.386719	
-0.386963	
-0.386963	
-0.387756	
-0.388	
-0.386963	
-0.386902	
-0.386414	
-0.385681	
-0.387634	
-0.388245	
-0.388367	
-0.388977	
-0.387878	
-0.388062	
-0.38916	
-0.39032	
-0.388733	
-0.387512	
-0.38855	
-0.388428	
-0.389404	
-0.389893	
-0.389099	
-0.388977	
-0.387939	
-0.389282	
-0.388672	
-0.389343	
-0.38855	
-0.388123	
-0.387512	
-0.388	
-0.388855	
-0.388977	
-0.387756	
-0.387512	
-0.387512	
-0.388123	
-0.388062	
-0.387207	
-0.386292	
-0.386353	
-0.385498	
-0.386902	
-0.386902	
-0.386475	
-0.386169	
-0.385986	
-0.385437	
-0.386902	
-0.387024	
-0.385498	
-0.384338	
-0.385559	
-0.385681	
-0.385986	
-0.385864	
-0.385437	
-0.385437	
-0.384827	
-0.385376	
-0.38562	
-0.386902	
-0.385498	
-0.384644	
-0.385132	
-0.385986	
-0.386963	
-0.387024	
-0.385681	
-0.385559	
-0.385254	
-0.386597	
-0.385742	
-0.385986	
-0.385986	
-0.385864	
-0.384216	
-0.386292	
-0.386963	
-0.386719	
-0.386047	
-0.385681	
-0.385559	
-0.386475	
-0.38739	
-0.385864	
-0.384949	
-0.385559	
-0.384949	
-0.387146	
-0.386536	
-0.385864	
-0.385803	
-0.385925	
-0.386536	
-0.386169	
-0.387512	
-0.385681	
-0.385315	
-0.38623	
-0.386536	
-0.387146	
-0.38623	
-0.386963	
-0.386353	
-0.385803	
-0.386353	
-0.386841	
-0.386169	
-0.38623	
-0.386841	
-0.385071	
-0.386658	
-0.38739	
-0.387695	
-0.386658	
-0.385986	
-0.386719	
-0.386841	
-0.388	
-0.386108	
-0.385498	
-0.385986	
-0.385193	
-0.386719	
-0.386719	
-0.386963	
-0.385986	
-0.385681	
-0.386108	
-0.386353	
-0.386475	
-0.385742	
-0.384521	
-0.385193	
-0.386169	
-0.387146	
-0.386475	
-0.386353	
-0.385986	
-0.38623	
-0.38678	
-0.387512	
-0.386047	
-0.386108	
-0.386292	
-0.385925	
-0.386536	
-0.387634	
-0.387573	
-0.386597	
-0.387085	
-0.387207	
-0.387329	
-0.387451	
-0.387207	
-0.386902	
-0.387146	
-0.386475	
-0.387878	
-0.387878	
-0.388916	
-0.388123	
-0.387573	
-0.388733	
-0.389587	
-0.390442	
-0.388916	
-0.388367	
-0.388489	
-0.389465	
-0.389587	
-0.389038	
-0.388123	
-0.388	
-0.387146	
-0.387207	
-0.387634	
-0.387695	
-0.38678	
-0.386597	
-0.38562	
-0.386536	
-0.387268	
-0.386169	
-0.386353	
-0.385498	
-0.385925	
-0.38562	
-0.387268	
-0.386414	
-0.385803	
-0.384766	
-0.384827	
-0.385986	
-0.385376	
-0.38623	
-0.385376	
-0.385437	
-0.386108	
-0.386841	
-0.387207	
-0.385559	
-0.385132	
-0.38446	
-0.385986	
-0.38678	
-0.38623	
-0.385376	
-0.385254	
-0.385254	
-0.385193	
-0.386475	
-0.386169	
-0.385376	
-0.38446	
-0.384644	
-0.386536	
-0.386292	
-0.385681	
-0.386169	
-0.385315	
-0.386414	
-0.38562	
-0.387268	
-0.38623	
-0.385986	
-0.386169	
-0.385803	
-0.38739	
-0.387451	
-0.388184	
-0.387085	
-0.386536	
-0.386963	
-0.388489	
-0.388184	
-0.387268	
-0.386475	
-0.385681	
-0.38623	
-0.386597	
-0.385925	
-0.386658	
-0.386169	
-0.385132	
-0.385681	
-0.386597	
-0.387207	
-0.385986	
-0.38562	
-0.384155	
-0.386169	
-0.387024	
-0.386047	
-0.386047	
-0.385986	
-0.386047	
-0.385376	
-0.386902	
-0.385864	
-0.385925	
-0.385132	
-0.385193	
-0.386353	
-0.38623	
-0.38678	
-0.38623	
-0.386169	
-0.386414	
-0.387512	
-0.387634	
-0.386414	
-0.386536	
-0.385498	
-0.386169	
-0.386902	
-0.386963	
-0.38739	
-0.386353	
-0.385376	
-0.386536	
-0.38739	
-0.387329	
-0.386292	
-0.385742	
-0.385132	
-0.385986	
-0.386841	
-0.386597	
-0.38623	
-0.386414	
-0.386108	
-0.386475	
-0.387634	
-0.38678	
-0.386597	
-0.385559	
-0.385681	
-0.387207	
-0.387695	
-0.387146	
-0.387329	
-0.386902	
-0.387573	
-0.387695	
-0.388428	
-0.387695	
-0.387695	
-0.386414	
-0.388184	
-0.388489	
-0.38855	
-0.388428	
-0.388672	
-0.387512	
-0.388672	
-0.38916	
-0.389343	
-0.388794	
-0.388428	
-0.386902	
-0.388	
-0.389282	
-0.387939	
-0.38916	
-0.387634	
-0.387756	
-0.387573	
-0.389221	
-0.387695	
-0.387268	
-0.386475	
-0.385925	
-0.387085	
-0.388	
-0.387817	
-0.388	
-0.387024	
-0.386902	
-0.387024	
-0.387451	
-0.385559	
-0.385254	
-0.384705	
-0.384033	
-0.385315	
-0.385498	
-0.385803	
-0.385681	
-0.384338	
-0.385437	
-0.384949	
-0.385986	
-0.385254	
-0.385132	
-0.384399	
-0.385925	
-0.386414	
-0.385986	
-0.386414	
-0.386169	
-0.385498	
-0.386597	
-0.387268	
-0.386963	
-0.386597	
-0.386597	
-0.385498	
-0.387512	
-0.388428	
-0.387695	
-0.388	
-0.387695	
-0.387695	
-0.387878	
-0.389954	
-0.388611	
-0.388306	
-0.388123	
-0.387695	
-0.388916	
-0.388611	
-0.388916	
-0.38916	
-0.388123	
-0.389282	
-0.389282	
-0.391418	
-0.389526	
-0.39032	
-0.389282	
-0.390625	
-0.390381	
-0.390381	
-0.390991	
-0.390503	
-0.389954	
-0.390015	
-0.390442	
-0.390686	
-0.390076	
-0.390015	
-0.389099	
-0.389771	
-0.39093	
-0.389648	
-0.39032	
-0.388794	
-0.38855	
-0.388855	
-0.390564	
-0.389526	
-0.388916	
-0.388733	
-0.387512	
-0.388855	
-0.388733	
-0.389343	
-0.388916	
-0.388	
-0.388794	
-0.388672	
-0.390869	
-0.388916	
-0.389038	
-0.387939	
-0.388489	
-0.389526	
-0.389038	
-0.389587	
-0.388916	
-0.387939	
-0.388916	
-0.389587	
-0.390686	
-0.388916	
-0.388611	
-0.387817	
-0.388916	
-0.390259	
-0.389038	
-0.389709	
-0.388672	
-0.388855	
-0.388672	
-0.389465	
-0.389099	
-0.388794	
-0.388245	
-0.387268	
-0.388977	
-0.388489	
-0.38855	
-0.388428	
-0.388123	
-0.388123	
-0.388367	
-0.390015	
-0.389954	
-0.388794	
-0.388611	
-0.388123	
-0.390137	
-0.389465	
-0.389404	
-0.389648	
-0.387878	
-0.38916	
-0.388794	
-0.389893	
-0.388855	
-0.389099	
-0.387695	
-0.388184	
-0.389771	
-0.389343	
-0.389893	
-0.388489	
-0.388855	
-0.389038	
-0.389282	
-0.389709	
-0.388489	
-0.388306	
-0.387634	
-0.387756	
-0.388306	
-0.388062	
-0.388123	
-0.386719	
-0.387695	
-0.387207	
-0.388123	
-0.388611	
-0.386597	
-0.386536	
-0.386169	
-0.386292	
-0.385681	
-0.385681	
-0.385437	
-0.384705	
-0.385132	
-0.385376	
-0.387146	
-0.386841	
-0.386597	
-0.387024	
-0.386047	
-0.387939	
-0.387573	
-0.388672	
-0.387695	
-0.387817	
-0.387817	
-0.388611	
-0.388733	
-0.388306	
-0.388489	
-0.387695	
-0.386963	
-0.389404	
-0.388672	
-0.389709	
-0.389099	
-0.389587	
-0.389038	
-0.389771	
-0.390686	
-0.389587	
-0.388672	
-0.387695	
-0.38855	
-0.389404	
-0.389343	
-0.389587	
-0.388428	
-0.388977	
-0.389099	
-0.390015	
-0.390686	
-0.389282	
-0.389282	
-0.388855	
-0.389587	
-0.389954	
-0.390137	
-0.389099	
-0.389282	
-0.389343	
-0.389099	
-0.389954	
-0.391113	
-0.389526	
-0.389465	
-0.389221	
-0.389893	
-0.389526	
-0.389832	
-0.389343	
-0.389404	
-0.389038	
-0.389099	
-0.390015	
-0.389404	
-0.388123	
-0.388367	
-0.387634	
-0.388611	
-0.388489	
-0.389526	
-0.388672	
-0.389038	
-0.388733	
-0.389832	
-0.389648	
-0.389954	
-0.389587	
-0.388367	
-0.388062	
-0.389343	
-0.389587	
-0.389099	
-0.389282	
-0.389893	
-0.388733	
-0.390381	
-0.390442	
-0.389465	
-0.389343	
-0.387878	
-0.389282	
-0.389526	
-0.390198	
-0.389221	
-0.389343	
-0.389221	
-0.389282	
-0.390076	
-0.390381	
-0.388977	
-0.388794	
-0.389343	
-0.387756	
-0.388672	
-0.389099	
-0.388733	
-0.389526	
-0.388367	
-0.389465	
-0.389526	
-0.390686	
-0.38916	
-0.388672	
-0.388977	
-0.388977	
-0.389709	
-0.389221	
-0.389221	
-0.389038	
-0.388611	
-0.389282	
-0.390076	
-0.389648	
-0.388977	
-0.388	
-0.388306	
-0.388916	
-0.38916	
-0.388733	
-0.388489	
-0.388062	
-0.388672	
-0.388916	
-0.388367	
-0.387939	
-0.387939	
-0.387512	
-0.385742	
-0.387878	
-0.387085	
-0.387085	
-0.387024	
-0.386597	
-0.387024	
-0.387817	
-0.387817	
-0.386658	
-0.386719	
-0.386292	
-0.38562	
-0.386841	
-0.38678	
-0.386536	
-0.386963	
-0.386475	
-0.387207	
-0.388489	
-0.388306	
-0.387085	
-0.387329	
-0.387146	
-0.387268	
-0.387817	
-0.387329	
-0.388611	
-0.388428	
-0.387695	
-0.388306	
-0.388367	
-0.388428	
-0.387939	
-0.387878	
-0.387146	
-0.388916	
-0.389954	
-0.389343	
-0.390015	
-0.389771	
-0.389893	
-0.390442	
-0.391174	
-0.390076	
-0.390015	
-0.389526	
-0.389893	
-0.39032	
-0.390808	
-0.389771	
-0.390015	
-0.389465	
-0.389771	
-0.389893	
-0.390015	
-0.389282	
-0.389709	
-0.389343	
-0.388062	
-0.389526	
-0.388611	
-0.388733	
-0.388184	
-0.387146	
-0.387878	
-0.389404	
-0.389404	
-0.388245	
-0.388123	
-0.387085	
-0.387878	
-0.388062	
-0.38678	
-0.38739	
-0.387329	
-0.385986	
-0.387756	
-0.388794	
-0.388062	
-0.38678	
-0.386475	
-0.38623	
-0.38678	
-0.38739	
-0.385864	
-0.386353	
-0.38678	
-0.387146	
-0.387512	
-0.387939	
-0.387634	
-0.387695	
-0.386597	
-0.386353	
-0.387634	
-0.387329	
-0.38678	
-0.386169	
-0.386536	
-0.387207	
-0.387451	
-0.388916	
-0.388	
-0.387634	
-0.385437	
-0.385986	
-0.387817	
-0.387268	
-0.387451	
-0.388	
-0.387024	
-0.387756	
-0.388794	
-0.388245	
-0.386902	
-0.387268	
-0.386414	
-0.387756	
-0.387756	
-0.387573	
-0.387329	
-0.388	
-0.386658	
-0.387756	
-0.388489	
-0.388489	
-0.387817	
-0.387878	
-0.386414	
-0.387695	
-0.387512	
-0.387329	
-0.387573	
-0.38739	
-0.38678	
-0.387634	
-0.38855	
-0.387634	
-0.387939	
-0.386902	
-0.387085	
-0.387146	
-0.387756	
-0.387573	
-0.387024	
-0.387207	
-0.388062	
-0.38855	
-0.38855	
-0.387695	
-0.387695	
-0.386719	
-0.386841	
-0.387085	
-0.38739	
-0.386963	
-0.386597	
-0.386475	
-0.386902	
-0.387878	
-0.388062	
-0.386963	
-0.387146	
-0.385803	
-0.387085	
-0.386841	
-0.387451	
-0.387024	
-0.387085	
-0.386292	
-0.387146	
-0.388062	
-0.387451	
-0.38739	
-0.387634	
-0.386292	
-0.387268	
-0.387634	
-0.387817	
-0.387756	
-0.387512	
-0.387024	
-0.388489	
-0.388611	
-0.388184	
-0.388672	
-0.386841	
-0.387146	
-0.38855	
-0.388794	
-0.389038	
-0.389709	
-0.389526	
-0.389404	
-0.390503	
-0.391479	
-0.389832	
-0.390015	
-0.387817	
-0.388062	
-0.388489	
-0.387878	
-0.387573	
-0.388062	
-0.387573	
-0.388123	
-0.388306	
-0.388916	
-0.387573	
-0.387817	
-0.38678	
-0.386963	
-0.387024	
-0.387024	
-0.386536	
-0.386475	
-0.386047	
-0.386658	
-0.387146	
-0.387207	
-0.386414	
-0.386292	
-0.385559	
-0.386108	
-0.386169	
-0.38678	
-0.38678	
-0.386475	
-0.385193	
-0.386841	
-0.386658	
-0.387268	
-0.386475	
-0.386292	
-0.385498	
-0.386719	
-0.386475	
-0.386292	
-0.385925	
-0.385925	
-0.386353	
-0.387695	
-0.387146	
-0.385986	
-0.387146	
-0.386169	
-0.385376	
-0.386597	
-0.387573	
-0.38678	
-0.386597	
-0.386719	
-0.387207	
-0.387939	
-0.388367	
-0.387329	
-0.388245	
-0.387939	
-0.386841	
-0.387817	
-0.387695	
-0.388062	
-0.387756	
-0.386536	
-0.387329	
-0.387024	
-0.388733	
-0.386841	
-0.386719	
-0.386169	
-0.386597	
-0.38678	
-0.386719	
-0.386475	
-0.386475	
-0.385864	
-0.387634	
-0.386963	
-0.387024	
-0.386536	
-0.386414	
-0.385376	
-0.386414	
-0.386658	
-0.387085	
-0.387146	
-0.386719	
-0.386536	
-0.387451	
-0.387512	
-0.387085	
-0.387268	
-0.386658	
-0.384949	
-0.387329	
-0.387268	
-0.387512	
-0.387207	
-0.387207	
-0.387878	
-0.387634	
-0.388367	
-0.387268	
-0.387207	
-0.386719	
-0.386292	
-0.387024	
-0.387817	
-0.387146	
-0.387268	
-0.386963	
-0.387634	
-0.387451	
-0.387756	
-0.386841	
-0.387695	
-0.385986	
-0.386963	
-0.386963	
-0.387512	
-0.387329	
-0.387268	
-0.386169	
-0.388672	
-0.388306	
-0.388367	
-0.387207	
-0.38855	
-0.386353	
-0.388123	
-0.388855	
-0.388794	
-0.388611	
-0.388672	
-0.389038	
-0.388855	
-0.389832	
-0.389343	
-0.389832	
-0.388977	
-0.38855	
-0.389832	
-0.388916	
-0.389893	
-0.390198	
-0.390137	
-0.390015	
-0.389771	
-0.390869	
-0.389404	
-0.389221	
-0.388794	
-0.387512	
-0.388916	
-0.38855	
-0.38916	
-0.388489	
-0.388306	
-0.389465	
-0.388123	
-0.389587	
-0.388367	
-0.389587	
-0.388245	
-0.388733	
-0.388855	
-0.388367	
-0.388123	
-0.387573	
-0.387085	
-0.38678	
-0.387207	
-0.387329	
-0.386353	
-0.386963	
-0.385681	
-0.386536	
-0.386658	
-0.386902	
-0.386658	
-0.386597	
-0.386475	
-0.386963	
-0.387451	
-0.387817	
-0.386963	
-0.388	
-0.386475	
-0.388245	
-0.387634	
-0.388	
-0.388306	
-0.388428	
-0.388977	
-0.388367	
-0.389954	
-0.389221	
-0.390015	
-0.38916	
-0.389282	
-0.389526	
-0.390564	
-0.389832	
-0.389893	
-0.389832	
-0.390564	
-0.391113	
-0.391968	
-0.390564	
-0.391479	
-0.390564	
-0.389771	
-0.391602	
-0.391785	
-0.391479	
-0.391724	
-0.391235	
-0.391968	
-0.392517	
-0.394165	
-0.391785	
-0.392517	
-0.391846	
-0.39209	
-0.391296	
-0.392151	
-0.392273	
-0.392395	
-0.39325	
-0.39209	
-0.3927	
-0.3927	
-0.392944	
-0.391663	
-0.391174	
-0.391357	
-0.391052	
-0.391357	
-0.391296	
-0.390991	
-0.391846	
-0.391235	
-0.391846	
-0.392151	
-0.392029	
-0.391174	
-0.390747	
-0.391235	
-0.391907	
-0.391663	
-0.391602	
-0.391479	
-0.391418	
	
