E:\DOCUMENTS AND SETTINGS\JPOTAS\MEUS DOCUMENTOS\UFRJ\RSCI-BM 12 WK SERIES\070727-RSCI-BM-05\RSCI-BM-05-LEMG\070727-RSCI-BM-05-LEMG-0012.ACQ
0.025000 msec/sample
1 channel
Analog input
Volts
CH1	
2000	
-0.391357	
-0.391052	
-0.391174	
-0.390564	
-0.391296	
-0.391846	
-0.393005	
-0.393005	
-0.392944	
-0.392944	
-0.393066	
-0.39386	
-0.394775	
-0.392944	
-0.393555	
-0.392151	
-0.394104	
-0.394836	
-0.395325	
-0.394409	
-0.39447	
-0.39447	
-0.39386	
-0.394592	
-0.395142	
-0.395264	
-0.394775	
-0.393738	
-0.39447	
-0.394714	
-0.394897	
-0.393494	
-0.393616	
-0.393127	
-0.393555	
-0.393433	
-0.391907	
-0.392761	
-0.392334	
-0.393372	
-0.393311	
-0.393677	
-0.393127	
-0.392395	
-0.391968	
-0.391174	
-0.392822	
-0.392944	
-0.390686	
-0.39093	
-0.390198	
-0.39093	
-0.390686	
-0.391174	
-0.390625	
-0.390869	
-0.390198	
-0.390747	
-0.390259	
-0.390381	
-0.390625	
-0.389709	
-0.39032	
-0.391479	
-0.392395	
-0.390747	
-0.391052	
-0.391418	
-0.391235	
-0.391602	
-0.390564	
-0.390442	
-0.39032	
-0.390808	
-0.390564	
-0.390991	
-0.391113	
-0.391052	
-0.390503	
-0.390259	
-0.390564	
-0.390381	
-0.390381	
-0.390686	
-0.389832	
-0.389893	
-0.390564	
-0.391541	
-0.390869	
-0.390747	
-0.390198	
-0.389893	
-0.391479	
-0.390869	
-0.389954	
-0.390076	
-0.390442	
-0.389526	
-0.391418	
-0.391296	
-0.391113	
-0.390503	
-0.390442	
-0.390747	
-0.39093	
-0.390564	
-0.390198	
-0.390015	
-0.390137	
-0.39032	
-0.391235	
-0.389832	
-0.389954	
-0.389771	
-0.389648	
-0.38916	
-0.389526	
-0.388123	
-0.387512	
-0.387939	
-0.38855	
-0.388489	
-0.389221	
-0.387939	
-0.388184	
-0.387756	
-0.388184	
-0.388428	
-0.388733	
-0.387817	
-0.387024	
-0.386963	
-0.38739	
-0.38855	
-0.387634	
-0.387512	
-0.388	
-0.387085	
-0.388733	
-0.388184	
-0.387146	
-0.387756	
-0.388123	
-0.388367	
-0.389709	
-0.390137	
-0.389343	
-0.389526	
-0.390015	
-0.390564	
-0.390381	
-0.390076	
-0.389954	
-0.390869	
-0.390015	
-0.391113	
-0.392151	
-0.392151	
-0.391357	
-0.390991	
-0.390625	
-0.391418	
-0.390686	
-0.389221	
-0.389221	
-0.389832	
-0.388672	
-0.390015	
-0.390137	
-0.389343	
-0.389343	
-0.388428	
-0.389404	
-0.389465	
-0.390015	
-0.38916	
-0.387817	
-0.388245	
-0.388367	
-0.389771	
-0.388794	
-0.388794	
-0.388428	
-0.388306	
-0.389709	
-0.389526	
-0.387939	
-0.388733	
-0.388672	
-0.388916	
-0.389404	
-0.389832	
-0.38855	
-0.38855	
-0.388489	
-0.389038	
-0.390259	
-0.385742	
-0.382324	
-0.382202	
-0.381958	
-0.382568	
-0.382996	
-0.386658	
-0.388977	
-0.389709	
-0.39032	
-0.390259	
-0.389648	
-0.389526	
-0.389465	
-0.390076	
-0.388855	
-0.390625	
-0.391357	
-0.390442	
-0.390137	
-0.388794	
-0.390686	
-0.391296	
-0.392151	
-0.389954	
-0.389343	
-0.390198	
-0.390869	
-0.391174	
-0.389771	
-0.389771	
-0.389709	
-0.389648	
-0.389709	
-0.389221	
-0.388916	
-0.388794	
-0.388184	
-0.388855	
-0.389465	
-0.389954	
-0.38916	
-0.388611	
-0.388977	
-0.389465	
-0.389221	
-0.389038	
-0.388062	
-0.388062	
-0.388428	
-0.389404	
-0.391052	
-0.391724	
-0.393127	
-0.394775	
-0.397705	
-0.40094	
-0.403564	
-0.406799	
-0.410645	
-0.414795	
-0.419006	
-0.423889	
-0.427185	
-0.430603	
-0.434082	
-0.439331	
-0.443848	
-0.448059	
-0.451233	
-0.45752	
-0.464111	
-0.471619	
-0.481262	
-0.489197	
-0.497681	
-0.506592	
-0.514343	
-0.522034	
-0.527039	
-0.52655	
-0.527161	
-0.528687	
-0.529907	
-0.530579	
-0.530212	
-0.532288	
-0.533447	
-0.532654	
-0.53009	
-0.527588	
-0.523254	
-0.521362	
-0.516541	
-0.51355	
-0.509949	
-0.506165	
-0.500366	
-0.496033	
-0.490967	
-0.48822	
-0.484253	
-0.479004	
-0.474731	
-0.471375	
-0.467712	
-0.466309	
-0.463379	
-0.460205	
-0.457458	
-0.454529	
-0.450317	
-0.447815	
-0.444275	
-0.43988	
-0.435547	
-0.432922	
-0.430115	
-0.42749	
-0.426331	
-0.423889	
-0.422852	
-0.421509	
-0.422119	
-0.422974	
-0.423157	
-0.422302	
-0.42395	
-0.423645	
-0.424683	
-0.424561	
-0.423828	
-0.421326	
-0.419189	
-0.418213	
-0.417175	
-0.414551	
-0.41156	
-0.408447	
-0.405823	
-0.403687	
-0.401123	
-0.398438	
-0.394287	
-0.390625	
-0.386169	
-0.383423	
-0.379761	
-0.375671	
-0.370667	
-0.365967	
-0.361389	
-0.358459	
-0.356079	
-0.352173	
-0.349976	
-0.347107	
-0.346619	
-0.345947	
-0.345093	
-0.343018	
-0.342529	
-0.343201	
-0.345032	
-0.346863	
-0.349121	
-0.351379	
-0.355469	
-0.359558	
-0.36499	
-0.369629	
-0.374268	
-0.377869	
-0.383667	
-0.389343	
-0.394775	
-0.397644	
-0.399841	
-0.402527	
-0.405029	
-0.408142	
-0.407776	
-0.407288	
-0.40802	
-0.408264	
-0.408569	
-0.408264	
-0.407898	
-0.40741	
-0.406433	
-0.405762	
-0.405334	
-0.408325	
-0.407349	
-0.408142	
-0.40741	
-0.408081	
-0.409607	
-0.410706	
-0.409912	
-0.409058	
-0.408203	
-0.407227	
-0.407959	
-0.405945	
-0.404114	
-0.402649	
-0.401245	
-0.399536	
-0.398682	
-0.397461	
-0.395569	
-0.394165	
-0.392456	
-0.390747	
-0.390808	
-0.389038	
-0.387085	
-0.385071	
-0.382996	
-0.382324	
-0.380737	
-0.380127	
-0.377991	
-0.376526	
-0.375305	
-0.374512	
-0.37085	
-0.368225	
-0.364441	
-0.361084	
-0.358459	
-0.35498	
-0.351257	
-0.344849	
-0.339111	
-0.333557	
-0.329346	
-0.322083	
-0.314026	
-0.306396	
-0.2995	
-0.292358	
-0.286194	
-0.280029	
-0.274841	
-0.269653	
-0.266357	
-0.264893	
-0.263	
-0.262085	
-0.262024	
-0.261475	
-0.263123	
-0.266418	
-0.269104	
-0.270691	
-0.274597	
-0.277527	
-0.28363	
-0.286377	
-0.290894	
-0.295471	
-0.300049	
-0.304749	
-0.311584	
-0.314636	
-0.318909	
-0.323059	
-0.325256	
-0.328796	
-0.331299	
-0.332642	
-0.334106	
-0.334717	
-0.33728	
-0.34021	
-0.340149	
-0.341919	
-0.342407	
-0.343445	
-0.344971	
-0.346802	
-0.345825	
-0.346558	
-0.346558	
-0.348206	
-0.348694	
-0.348694	
-0.349182	
-0.3479	
-0.348511	
-0.348999	
-0.34967	
-0.348816	
-0.349426	
-0.348511	
-0.351379	
-0.351501	
-0.352844	
-0.352844	
-0.352112	
-0.354248	
-0.354919	
-0.355774	
-0.355164	
-0.356873	
-0.355652	
-0.358459	
-0.358459	
-0.359924	
-0.359985	
-0.360657	
-0.361206	
-0.362	
-0.361755	
-0.362183	
-0.362305	
-0.362488	
-0.363342	
-0.363464	
-0.364136	
-0.363098	
-0.36377	
-0.36377	
-0.364685	
-0.364014	
-0.364441	
-0.36438	
-0.365051	
-0.365662	
-0.365234	
-0.366028	
-0.36615	
-0.366516	
-0.365845	
-0.367798	
-0.366455	
-0.367371	
-0.365601	
-0.368164	
-0.367554	
-0.36731	
-0.367859	
-0.36731	
-0.366699	
-0.367249	
-0.368835	
-0.367004	
-0.366333	
-0.367126	
-0.368408	
-0.368469	
-0.369934	
-0.369629	
-0.368225	
-0.368103	
-0.369812	
-0.370544	
-0.369324	
-0.369446	
-0.370117	
-0.36969	
-0.371033	
-0.371643	
-0.372498	
-0.372559	
-0.372742	
-0.373535	
-0.373596	
-0.373962	
-0.373474	
-0.37323	
-0.37439	
-0.374451	
-0.37561	
-0.375549	
-0.375854	
-0.37561	
-0.376831	
-0.375793	
-0.377258	
-0.376648	
-0.376953	
-0.376526	
-0.378052	
-0.378967	
-0.378052	
-0.378052	
-0.378113	
-0.378967	
-0.378723	
-0.378357	
-0.377625	
-0.377991	
-0.377625	
-0.379211	
-0.380005	
-0.380249	
-0.379822	
-0.379089	
-0.380371	
-0.381836	
-0.381348	
-0.380127	
-0.380615	
-0.381042	
-0.381897	
-0.381836	
-0.382385	
-0.381836	
-0.382568	
-0.382263	
-0.383423	
-0.382324	
-0.381897	
-0.381531	
-0.382629	
-0.383301	
-0.382568	
-0.383057	
-0.382446	
-0.382507	
-0.381653	
-0.383484	
-0.382507	
-0.382385	
-0.381104	
-0.382874	
-0.382813	
-0.382263	
-0.38208	
-0.382019	
-0.382507	
-0.382324	
-0.381714	
-0.381104	
-0.380554	
-0.379456	
-0.380493	
-0.381104	
-0.38092	
-0.380737	
-0.380005	
-0.38147	
-0.381226	
-0.380798	
-0.380066	
-0.381592	
-0.381104	
-0.381287	
-0.381714	
-0.381409	
-0.38031	
-0.379883	
-0.380554	
-0.381104	
-0.38031	
-0.379578	
-0.380615	
-0.380676	
-0.381226	
-0.382141	
-0.38208	
-0.381714	
-0.382751	
-0.383057	
-0.383606	
-0.383728	
-0.38446	
-0.384705	
-0.38446	
-0.385193	
-0.386047	
-0.386658	
-0.386169	
-0.386475	
-0.385437	
-0.387817	
-0.388733	
-0.387085	
-0.388245	
-0.388123	
-0.388794	
-0.388977	
-0.39032	
-0.388977	
-0.389404	
-0.388	
-0.390076	
-0.39032	
-0.389465	
-0.389648	
-0.389404	
-0.389648	
-0.390808	
-0.391357	
-0.390137	
-0.389954	
-0.389832	
-0.39032	
-0.391235	
-0.389526	
-0.389771	
-0.38916	
-0.388672	
-0.389587	
-0.390259	
-0.388916	
-0.388977	
-0.389465	
-0.389038	
-0.389526	
-0.388794	
-0.388733	
-0.388184	
-0.387756	
-0.387695	
-0.387207	
-0.386536	
-0.386475	
-0.387634	
-0.386169	
-0.387512	
-0.386292	
-0.386658	
-0.386658	
-0.386658	
-0.387329	
-0.386719	
-0.387024	
-0.387512	
-0.388489	
-0.387329	
-0.389099	
-0.387329	
-0.387878	
-0.387451	
-0.386841	
-0.388367	
-0.388611	
-0.388123	
-0.388184	
-0.387573	
-0.387817	
-0.388733	
-0.387451	
-0.388	
-0.386902	
-0.387695	
-0.387817	
-0.388428	
-0.388672	
-0.388367	
-0.387024	
-0.388245	
-0.388794	
-0.388489	
-0.388306	
-0.387146	
-0.388	
-0.387695	
-0.389771	
-0.387878	
-0.389099	
-0.38739	
-0.388367	
-0.38855	
-0.388672	
-0.38855	
-0.388	
-0.388428	
-0.387146	
-0.388733	
-0.387817	
-0.388184	
-0.387329	
-0.388306	
-0.388	
-0.387756	
-0.388245	
-0.387451	
-0.386108	
-0.386719	
-0.387207	
-0.387451	
-0.386719	
-0.385986	
-0.384644	
-0.386658	
-0.386169	
-0.386658	
-0.385986	
-0.386292	
-0.386108	
-0.385681	
-0.387146	
-0.386414	
-0.386658	
-0.384277	
-0.385681	
-0.386292	
-0.385559	
-0.386536	
-0.385376	
-0.385376	
-0.38562	
-0.387573	
-0.385681	
-0.386353	
-0.385986	
-0.386536	
-0.38739	
-0.387207	
-0.388184	
-0.387451	
-0.387451	
-0.388062	
-0.388916	
-0.387878	
-0.388672	
-0.388184	
-0.388245	
-0.389282	
-0.389709	
-0.390442	
-0.389282	
-0.388855	
-0.390137	
-0.390747	
-0.389648	
-0.389465	
-0.388672	
-0.38855	
-0.388611	
-0.389221	
-0.388794	
-0.388428	
-0.388245	
-0.388245	
-0.388428	
-0.388062	
-0.38855	
-0.387817	
-0.387756	
-0.38739	
-0.387146	
-0.387085	
-0.388367	
-0.387024	
-0.387695	
-0.387878	
-0.388	
-0.38739	
-0.388306	
-0.386841	
-0.387939	
-0.387634	
-0.388062	
-0.388977	
-0.387817	
-0.387329	
-0.387939	
-0.388306	
-0.387756	
-0.387878	
-0.387634	
-0.388	
-0.387878	
-0.38739	
-0.388123	
-0.387756	
-0.387207	
-0.387878	
-0.388062	
-0.388245	
-0.388306	
-0.387085	
-0.387512	
-0.387634	
-0.388855	
-0.388733	
-0.388916	
-0.388184	
-0.388428	
-0.38916	
-0.388672	
-0.388672	
-0.389404	
-0.389771	
-0.389709	
-0.389099	
-0.388916	
-0.388916	
-0.388489	
-0.388245	
-0.388977	
-0.387146	
-0.388245	
-0.387451	
-0.387817	
-0.387024	
-0.387451	
-0.387634	
-0.388184	
-0.388672	
-0.386292	
-0.387756	
-0.387024	
-0.387512	
-0.386902	
-0.387634	
-0.387024	
-0.387756	
-0.387878	
-0.387268	
-0.388062	
-0.387085	
-0.387512	
-0.38739	
-0.386902	
-0.387573	
-0.387146	
-0.387146	
-0.38678	
-0.387634	
-0.387024	
-0.387085	
-0.38739	
-0.386047	
-0.38678	
-0.384827	
-0.386108	
-0.385559	
-0.386292	
-0.385803	
-0.385498	
-0.385132	
-0.385864	
-0.386047	
-0.384583	
-0.385498	
-0.384583	
-0.384705	
-0.383911	
-0.384888	
-0.384216	
-0.384155	
-0.384766	
-0.384033	
-0.384338	
-0.383606	
-0.384521	
-0.383362	
-0.383606	
-0.384338	
-0.383057	
-0.383484	
-0.383972	
-0.385132	
-0.384094	
-0.38446	
-0.384583	
-0.385254	
-0.385559	
-0.384827	
-0.385925	
-0.385376	
-0.386475	
-0.386597	
-0.388184	
-0.386475	
-0.388123	
-0.388	
-0.388245	
-0.388062	
-0.387695	
-0.388367	
-0.388367	
-0.388	
-0.388184	
-0.388062	
-0.387695	
-0.388611	
-0.389404	
-0.388306	
-0.389832	
-0.389648	
-0.389343	
-0.388428	
-0.389343	
-0.389709	
-0.389771	
-0.389832	
-0.388245	
-0.389038	
-0.388733	
-0.38855	
-0.388672	
-0.386475	
-0.386963	
-0.385864	
-0.386353	
-0.385559	
-0.385559	
-0.384277	
-0.384338	
-0.384277	
-0.384644	
-0.384338	
-0.382874	
-0.383789	
-0.382019	
-0.382996	
-0.382446	
-0.383179	
-0.38269	
-0.38269	
-0.382446	
-0.382385	
-0.38324	
-0.381897	
-0.382263	
-0.381287	
-0.382751	
-0.382568	
-0.382263	
-0.382202	
-0.382385	
-0.383118	
-0.382202	
-0.38324	
-0.382141	
-0.382568	
-0.382324	
-0.382813	
-0.383118	
-0.383606	
-0.383911	
-0.382446	
-0.383667	
-0.384033	
-0.384338	
-0.384277	
-0.383728	
-0.384583	
-0.384155	
-0.384827	
-0.384827	
-0.385864	
-0.385742	
-0.386108	
-0.386169	
-0.386047	
-0.387207	
-0.386047	
-0.386169	
-0.386292	
-0.386414	
-0.38562	
-0.386658	
-0.385803	
-0.38623	
-0.387329	
-0.385254	
-0.386963	
-0.38623	
-0.386047	
-0.385193	
-0.385742	
-0.385559	
-0.385559	
-0.385864	
-0.383972	
-0.386169	
-0.384766	
-0.386108	
-0.385681	
-0.386719	
-0.385559	
-0.386047	
-0.386658	
-0.385864	
-0.386597	
-0.385864	
-0.385315	
-0.386108	
-0.384521	
-0.38623	
-0.385681	
-0.385742	
-0.385681	
-0.386292	
-0.385254	
-0.38623	
-0.386597	
-0.385193	
-0.38623	
-0.385437	
-0.385925	
-0.385376	
-0.386292	
-0.385132	
-0.385437	
-0.385986	
-0.385437	
-0.386536	
-0.385498	
-0.386047	
-0.38562	
-0.385925	
-0.385437	
-0.386169	
-0.385864	
-0.385559	
-0.38678	
-0.386475	
-0.387146	
-0.386658	
-0.387085	
-0.387085	
-0.387512	
-0.387268	
-0.386658	
-0.387817	
-0.386475	
-0.387146	
-0.386597	
-0.388123	
-0.38739	
-0.386841	
-0.388611	
-0.386841	
-0.388489	
-0.387573	
-0.389221	
-0.388062	
-0.388611	
-0.388794	
-0.388733	
-0.389282	
-0.388245	
-0.388	
-0.38739	
-0.387634	
-0.387878	
-0.38562	
-0.387085	
-0.385498	
-0.386902	
-0.385376	
-0.38623	
-0.385803	
-0.385742	
-0.386169	
-0.38562	
-0.385925	
-0.384644	
-0.385559	
-0.383911	
-0.383789	
-0.38385	
-0.384949	
-0.384888	
-0.383606	
-0.386169	
-0.385925	
-0.386475	
-0.386169	
-0.386902	
-0.385864	
-0.385803	
-0.386047	
-0.386353	
-0.386047	
-0.386047	
-0.38623	
-0.385986	
-0.387024	
-0.387146	
-0.386414	
-0.386719	
-0.38678	
-0.386597	
-0.386536	
-0.387207	
-0.386536	
-0.38623	
-0.387695	
-0.38623	
-0.387024	
-0.386536	
-0.387268	
-0.38678	
-0.387024	
-0.387451	
-0.38678	
-0.386658	
-0.386597	
-0.386841	
-0.385681	
-0.386169	
-0.387085	
-0.386719	
-0.386658	
-0.386047	
-0.387634	
-0.386292	
-0.387085	
-0.386353	
-0.386597	
-0.386108	
-0.386963	
-0.387207	
-0.386597	
-0.38623	
-0.38678	
-0.386902	
-0.385986	
-0.387512	
-0.38678	
-0.386047	
-0.386353	
-0.386169	
-0.385803	
-0.385376	
-0.38739	
-0.386536	
-0.385498	
-0.386719	
-0.386841	
-0.386719	
-0.387024	
-0.387573	
-0.386414	
-0.38739	
-0.387634	
-0.386841	
-0.386658	
-0.386902	
-0.388306	
-0.386841	
-0.387695	
-0.387451	
-0.387451	
-0.386597	
-0.387146	
-0.387756	
-0.386108	
-0.388489	
-0.387207	
-0.388245	
-0.387573	
-0.388184	
-0.387451	
-0.388	
-0.387878	
-0.387756	
-0.387512	
-0.387756	
-0.388	
-0.387512	
-0.387146	
-0.388123	
-0.388733	
-0.389099	
-0.387207	
-0.389893	
-0.387939	
-0.388977	
-0.388977	
-0.389221	
-0.390137	
-0.389832	
-0.389709	
-0.389465	
-0.390137	
-0.390015	
-0.390808	
-0.390808	
-0.390442	
-0.390625	
-0.390625	
-0.39093	
-0.390686	
-0.39032	
-0.391357	
-0.391296	
-0.39093	
-0.389893	
-0.391602	
-0.389832	
-0.390564	
-0.390747	
-0.390747	
-0.390137	
-0.389282	
-0.390747	
-0.389099	
-0.389954	
-0.388245	
-0.38916	
-0.387756	
-0.387573	
-0.388184	
-0.387207	
-0.387573	
-0.386963	
-0.38739	
-0.385864	
-0.387024	
-0.386169	
-0.386841	
-0.387207	
-0.385925	
-0.387451	
-0.387634	
-0.387451	
-0.386719	
-0.385803	
-0.385559	
-0.385315	
-0.386658	
-0.384277	
-0.385681	
-0.385742	
-0.385864	
-0.385803	
-0.384705	
-0.386902	
-0.386658	
-0.387817	
-0.387146	
-0.388245	
-0.388428	
-0.389343	
-0.390198	
-0.389893	
-0.390259	
-0.390564	
-0.391785	
-0.391479	
-0.390808	
-0.391296	
-0.391724	
-0.392334	
-0.392761	
-0.393188	
-0.392029	
-0.392395	
-0.393433	
-0.393005	
-0.39325	
-0.393127	
-0.393127	
-0.392639	
-0.39447	
-0.392395	
-0.39325	
-0.393616	
-0.392761	
-0.394104	
-0.393921	
-0.394653	
-0.393738	
-0.39325	
-0.393555	
-0.393555	
-0.393188	
-0.392639	
-0.392517	
-0.392273	
-0.392639	
-0.392273	
-0.391602	
-0.393066	
-0.391602	
-0.391846	
-0.391663	
-0.393005	
-0.390503	
-0.391357	
-0.390808	
-0.391296	
-0.391174	
-0.389282	
-0.390076	
-0.389832	
-0.390808	
-0.388916	
-0.389648	
-0.389465	
-0.390564	
-0.390564	
-0.389099	
-0.390686	
-0.389954	
-0.390442	
-0.389893	
-0.390564	
-0.390137	
-0.390564	
-0.390381	
-0.390442	
-0.390686	
-0.390869	
-0.389648	
-0.390869	
-0.389954	
-0.390076	
-0.390198	
-0.389832	
-0.388916	
-0.390076	
-0.389893	
-0.389709	
-0.390686	
-0.389404	
-0.390503	
-0.390076	
-0.391296	
-0.390015	
-0.390808	
-0.389709	
-0.389832	
-0.389771	
-0.389709	
-0.390076	
-0.389526	
-0.389771	
-0.39032	
-0.389343	
-0.389893	
-0.389954	
-0.390198	
-0.390137	
-0.390137	
-0.390259	
-0.390137	
-0.390503	
-0.390198	
-0.389954	
-0.389832	
-0.389832	
-0.390198	
-0.388245	
-0.389832	
-0.389404	
-0.390015	
-0.389221	
-0.388977	
-0.388733	
-0.38855	
-0.388611	
-0.387695	
-0.388489	
-0.388428	
-0.387085	
-0.387756	
-0.388	
-0.388184	
-0.387756	
-0.388733	
-0.386841	
-0.388367	
-0.387085	
-0.387329	
-0.387268	
-0.386902	
-0.386658	
-0.386719	
-0.386414	
-0.386963	
-0.387512	
-0.387329	
-0.38739	
-0.387756	
-0.386963	
-0.387939	
-0.387817	
-0.387512	
-0.388916	
-0.388123	
-0.390259	
-0.388916	
-0.389648	
-0.388916	
-0.390198	
-0.390503	
-0.390015	
-0.391052	
-0.39032	
-0.390869	
-0.390991	
-0.391663	
-0.390381	
-0.390869	
-0.39032	
-0.389648	
-0.389465	
-0.389526	
-0.389404	
-0.38916	
-0.388611	
-0.389526	
-0.389404	
-0.389343	
-0.389221	
-0.388611	
-0.388123	
-0.38855	
-0.387817	
-0.388123	
-0.388	
-0.388062	
-0.387878	
-0.388062	
-0.388489	
-0.388611	
-0.388672	
-0.388306	
-0.389343	
-0.388916	
-0.388245	
-0.388855	
-0.388	
-0.388245	
-0.388306	
-0.387817	
-0.388489	
-0.388611	
-0.38916	
-0.387878	
-0.389709	
-0.388428	
-0.388123	
-0.388794	
-0.387756	
-0.388855	
-0.388672	
-0.389954	
-0.388977	
-0.389893	
-0.388245	
-0.390381	
-0.389038	
-0.389526	
-0.389282	
-0.389587	
-0.389221	
-0.389465	
-0.38916	
-0.389709	
-0.389954	
-0.390442	
-0.39093	
-0.390198	
-0.38916	
-0.389954	
-0.390686	
-0.390015	
-0.390198	
-0.389465	
-0.389771	
-0.389282	
-0.389282	
-0.389221	
-0.38855	
-0.388733	
-0.388977	
-0.38916	
-0.388184	
-0.388794	
-0.388306	
-0.388672	
-0.388245	
-0.388306	
-0.38855	
-0.389771	
-0.389343	
-0.387329	
-0.388184	
-0.388794	
-0.388245	
-0.388062	
-0.388184	
-0.388	
-0.38855	
-0.388672	
-0.38855	
-0.388489	
-0.387573	
-0.388123	
-0.388245	
-0.388062	
-0.388184	
-0.387451	
-0.387451	
-0.387268	
-0.38739	
-0.387512	
-0.386292	
-0.387024	
-0.385986	
-0.386902	
-0.385681	
-0.38562	
-0.386169	
-0.385193	
-0.386841	
-0.385803	
-0.38678	
-0.385132	
-0.385742	
-0.385132	
-0.384155	
-0.385437	
-0.385071	
-0.385437	
-0.384277	
-0.385681	
-0.385376	
-0.385437	
-0.385681	
-0.386169	
-0.385254	
-0.385071	
-0.385864	
-0.386108	
-0.385437	
-0.385742	
-0.385437	
-0.387085	
-0.387268	
-0.38739	
-0.388367	
-0.388489	
-0.387329	
-0.38739	
-0.389954	
-0.38916	
-0.389099	
-0.388977	
-0.389343	
-0.389465	
-0.389893	
-0.390015	
-0.388916	
-0.388916	
-0.388123	
-0.389832	
-0.389587	
-0.390198	
-0.390137	
-0.390747	
-0.390564	
-0.391113	
-0.391724	
-0.390259	
-0.390625	
-0.389343	
-0.390625	
-0.39032	
-0.389893	
-0.389526	
-0.389343	
-0.389038	
-0.387878	
-0.388	
-0.386719	
-0.386963	
-0.384888	
-0.385559	
-0.385376	
-0.385193	
-0.384766	
-0.384888	
-0.384338	
-0.384705	
-0.384521	
-0.383972	
-0.383057	
-0.383911	
-0.382813	
-0.383057	
-0.382568	
-0.383362	
-0.383484	
-0.381653	
-0.383545	
-0.383728	
-0.385559	
-0.383423	
-0.384277	
-0.383545	
-0.383362	
-0.383606	
-0.383179	
-0.383179	
-0.383728	
-0.385132	
-0.384277	
-0.385071	
-0.384583	
-0.385559	
-0.384216	
-0.384094	
-0.384766	
-0.385803	
-0.385193	
-0.385193	
-0.385559	
-0.385437	
-0.385986	
-0.385742	
-0.386963	
-0.386414	
-0.385864	
-0.385986	
-0.387573	
-0.387146	
-0.387329	
-0.387512	
-0.388672	
-0.388123	
-0.388794	
-0.388062	
-0.388794	
-0.387573	
-0.386475	
-0.387756	
-0.387878	
-0.387573	
-0.387146	
-0.385559	
-0.387268	
-0.387268	
-0.387512	
-0.386841	
-0.387024	
-0.38501	
-0.387451	
-0.387573	
-0.387268	
-0.387512	
-0.387451	
-0.387451	
-0.387573	
-0.388672	
-0.386414	
-0.387268	
-0.385559	
-0.387329	
-0.386047	
-0.387573	
-0.386902	
-0.387817	
-0.38739	
-0.387695	
-0.388245	
-0.387939	
-0.388306	
-0.387024	
-0.387451	
-0.387268	
-0.388428	
-0.387268	
-0.387329	
-0.387085	
-0.387634	
-0.387817	
-0.388123	
-0.386414	
-0.387268	
-0.386169	
-0.387024	
-0.387024	
-0.387024	
-0.387695	
-0.387268	
-0.387268	
-0.387512	
-0.38916	
-0.387878	
-0.389221	
-0.387939	
-0.388428	
-0.389099	
-0.389282	
-0.389343	
-0.389648	
-0.389709	
-0.388855	
-0.390198	
-0.389404	
-0.389526	
-0.38855	
-0.388794	
-0.389832	
-0.388916	
-0.389893	
-0.389954	
-0.390076	
-0.388733	
-0.39032	
-0.390137	
-0.388916	
-0.390198	
-0.388367	
-0.38855	
-0.389587	
-0.389465	
-0.38855	
-0.388306	
-0.388306	
-0.388367	
-0.388489	
-0.387939	
-0.388245	
-0.388245	
-0.385986	
-0.387268	
-0.385803	
-0.386841	
-0.38623	
-0.386169	
-0.384766	
-0.385986	
-0.387878	
-0.385864	
-0.387207	
-0.385864	
-0.387695	
-0.386963	
-0.388245	
-0.387756	
-0.387939	
-0.387878	
-0.387451	
-0.389099	
-0.387695	
-0.388489	
-0.387634	
-0.387817	
-0.388428	
-0.388	
-0.388245	
-0.388489	
-0.388855	
-0.389343	
-0.389465	
-0.389587	
-0.387512	
-0.389099	
-0.387268	
-0.388428	
-0.388306	
-0.388428	
-0.388733	
-0.388794	
-0.388428	
-0.388977	
-0.389099	
-0.388611	
-0.38916	
-0.388123	
-0.388306	
-0.388611	
-0.389099	
-0.389038	
-0.388184	
-0.388916	
-0.388794	
-0.388916	
-0.388916	
-0.388428	
-0.389038	
-0.387878	
-0.388245	
-0.388123	
-0.389099	
-0.388367	
-0.388916	
-0.387573	
-0.388977	
-0.389221	
-0.387573	
-0.388672	
-0.387756	
-0.387634	
-0.388428	
-0.387512	
-0.388184	
-0.389282	
-0.388367	
-0.389038	
-0.388855	
-0.389709	
-0.389099	
-0.389832	
-0.388489	
-0.389343	
-0.389648	
-0.389404	
-0.389465	
-0.388977	
-0.389282	
-0.389343	
-0.390564	
-0.388367	
-0.390015	
-0.38855	
-0.389465	
-0.389587	
-0.390686	
-0.389954	
-0.390381	
-0.39032	
-0.389954	
-0.390869	
-0.389954	
-0.390808	
-0.389648	
-0.389221	
-0.389526	
-0.390015	
-0.390137	
-0.390076	
-0.390137	
-0.390808	
-0.391174	
-0.391052	
-0.391052	
-0.391296	
-0.390808	
-0.390808	
-0.391663	
-0.391113	
-0.391785	
-0.391968	
-0.392761	
-0.392273	
-0.393372	
-0.392273	
-0.392578	
-0.392944	
-0.391846	
-0.39386	
-0.39209	
-0.39386	
-0.393066	
-0.3927	
-0.393494	
-0.394043	
-0.393982	
-0.393311	
-0.39447	
-0.392029	
-0.393372	
-0.393738	
-0.393494	
-0.392212	
-0.392761	
-0.3927	
-0.392639	
-0.392456	
-0.390747	
-0.391479	
-0.390747	
-0.389832	
-0.390503	
-0.389038	
-0.389343	
-0.38916	
-0.389404	
-0.389099	
-0.389465	
-0.390442	
-0.38916	
-0.389832	
-0.388489	
-0.389709	
-0.389282	
-0.38916	
-0.388855	
-0.387817	
-0.388733	
-0.387939	
-0.389282	
-0.386597	
-0.388794	
-0.387695	
-0.388428	
-0.38855	
-0.388611	
-0.388733	
-0.388672	
-0.389709	
-0.389832	
-0.39093	
-0.390869	
-0.391785	
-0.391479	
	
