E:\DOCUMENTS AND SETTINGS\JPOTAS\MEUS DOCUMENTOS\UFRJ\RSCI-BM 12 WK SERIES\070727-RSCI-BM-05\RSCI-BM-05-LEMG\070727-RSCI-BM-05-LEMG-0017.ACQ
0.025000 msec/sample
1 channel
Analog input
Volts
CH1	
2000	
-0.388489	
-0.388855	
-0.388184	
-0.388916	
-0.388306	
-0.387878	
-0.387085	
-0.38739	
-0.387634	
-0.387756	
-0.389343	
-0.388428	
-0.389404	
-0.388245	
-0.388916	
-0.388672	
-0.389038	
-0.388245	
-0.38678	
-0.388672	
-0.388611	
-0.388367	
-0.388123	
-0.388672	
-0.388367	
-0.386414	
-0.389038	
-0.386536	
-0.387207	
-0.387695	
-0.387817	
-0.387146	
-0.387695	
-0.389038	
-0.387268	
-0.387817	
-0.386963	
-0.387268	
-0.386169	
-0.386108	
-0.38678	
-0.385986	
-0.386047	
-0.385986	
-0.387329	
-0.385986	
-0.386414	
-0.386047	
-0.385193	
-0.385803	
-0.385437	
-0.385071	
-0.384705	
-0.38501	
-0.384888	
-0.385803	
-0.385803	
-0.385742	
-0.385498	
-0.384094	
-0.385498	
-0.384277	
-0.384583	
-0.385559	
-0.385803	
-0.386475	
-0.386719	
-0.387451	
-0.386475	
-0.386597	
-0.385437	
-0.386108	
-0.384888	
-0.385437	
-0.385437	
-0.384888	
-0.385803	
-0.385376	
-0.386475	
-0.386108	
-0.386658	
-0.38623	
-0.385742	
-0.386597	
-0.384827	
-0.384949	
-0.385681	
-0.38623	
-0.385742	
-0.386353	
-0.386597	
-0.385986	
-0.386475	
-0.386047	
-0.386658	
-0.385559	
-0.385437	
-0.385193	
-0.38562	
-0.386108	
-0.386536	
-0.387207	
-0.386475	
-0.387512	
-0.385742	
-0.386963	
-0.386169	
-0.386414	
-0.385254	
-0.385742	
-0.385864	
-0.385498	
-0.387512	
-0.386353	
-0.386536	
-0.386108	
-0.386047	
-0.386902	
-0.385437	
-0.385986	
-0.385803	
-0.386475	
-0.386475	
-0.386597	
-0.387451	
-0.386292	
-0.386841	
-0.38562	
-0.386902	
-0.385559	
-0.385742	
-0.385559	
-0.385437	
-0.385681	
-0.386047	
-0.386414	
-0.385803	
-0.386108	
-0.385925	
-0.386536	
-0.385986	
-0.385925	
-0.385742	
-0.385254	
-0.386536	
-0.386658	
-0.387024	
-0.38739	
-0.387573	
-0.387573	
-0.387329	
-0.388245	
-0.386658	
-0.387024	
-0.387024	
-0.386841	
-0.387756	
-0.387268	
-0.388123	
-0.387024	
-0.387268	
-0.386597	
-0.387634	
-0.387207	
-0.387573	
-0.38678	
-0.387085	
-0.387085	
-0.388123	
-0.389099	
-0.388672	
-0.38916	
-0.388428	
-0.388367	
-0.388977	
-0.387085	
-0.387451	
-0.387329	
-0.387695	
-0.387756	
-0.388245	
-0.387939	
-0.387268	
-0.388062	
-0.387573	
-0.387451	
-0.386475	
-0.386169	
-0.386047	
-0.38678	
-0.386841	
-0.387451	
-0.387024	
-0.387207	
-0.387451	
-0.385986	
-0.386536	
-0.382935	
-0.379089	
-0.378357	
-0.378418	
-0.379944	
-0.379761	
-0.385193	
-0.387756	
-0.387451	
-0.38739	
-0.388062	
-0.387695	
-0.386658	
-0.386536	
-0.386597	
-0.38623	
-0.387329	
-0.386841	
-0.387573	
-0.387085	
-0.387634	
-0.386658	
-0.387329	
-0.38678	
-0.386658	
-0.386719	
-0.386353	
-0.387024	
-0.38678	
-0.387817	
-0.387878	
-0.387634	
-0.386719	
-0.387146	
-0.387817	
-0.386719	
-0.386475	
-0.386475	
-0.388123	
-0.387878	
-0.388794	
-0.388733	
-0.388428	
-0.38855	
-0.388123	
-0.387634	
-0.386475	
-0.386536	
-0.386658	
-0.387024	
-0.388123	
-0.389343	
-0.39032	
-0.392334	
-0.394409	
-0.397339	
-0.397827	
-0.402283	
-0.406006	
-0.409973	
-0.414734	
-0.419006	
-0.423523	
-0.427673	
-0.431396	
-0.435852	
-0.440247	
-0.444763	
-0.448669	
-0.454956	
-0.460815	
-0.468567	
-0.476563	
-0.486694	
-0.49585	
-0.505737	
-0.515015	
-0.523926	
-0.530457	
-0.537109	
-0.541687	
-0.545105	
-0.547363	
-0.549194	
-0.55011	
-0.549561	
-0.547668	
-0.547363	
-0.545166	
-0.542236	
-0.539673	
-0.536987	
-0.534973	
-0.531433	
-0.527588	
-0.52417	
-0.520325	
-0.516479	
-0.511292	
-0.507141	
-0.503052	
-0.498779	
-0.493958	
-0.490662	
-0.486572	
-0.48468	
-0.481506	
-0.479614	
-0.476013	
-0.471985	
-0.468323	
-0.464783	
-0.461426	
-0.45636	
-0.453186	
-0.449463	
-0.446533	
-0.443237	
-0.440369	
-0.4375	
-0.435974	
-0.43457	
-0.433777	
-0.432556	
-0.431763	
-0.432129	
-0.432617	
-0.432922	
-0.432068	
-0.431641	
-0.43042	
-0.429016	
-0.427673	
-0.425293	
-0.423157	
-0.420959	
-0.417419	
-0.414185	
-0.410278	
-0.407288	
-0.403748	
-0.399902	
-0.395325	
-0.388123	
-0.382751	
-0.375793	
-0.369873	
-0.360596	
-0.352783	
-0.345886	
-0.338989	
-0.331665	
-0.325195	
-0.319763	
-0.31366	
-0.308533	
-0.302124	
-0.298096	
-0.294739	
-0.290833	
-0.289063	
-0.286987	
-0.286621	
-0.286194	
-0.287048	
-0.28772	
-0.289673	
-0.290955	
-0.293274	
-0.295837	
-0.299194	
-0.302673	
-0.305847	
-0.308533	
-0.310974	
-0.313293	
-0.314636	
-0.315369	
-0.315613	
-0.316711	
-0.317078	
-0.317993	
-0.319214	
-0.320679	
-0.321777	
-0.324219	
-0.325867	
-0.327759	
-0.329895	
-0.33136	
-0.332458	
-0.334412	
-0.337097	
-0.339478	
-0.342957	
-0.345642	
-0.3479	
-0.348999	
-0.350098	
-0.351318	
-0.352173	
-0.352112	
-0.351746	
-0.353577	
-0.353699	
-0.354675	
-0.356079	
-0.356934	
-0.3573	
-0.357971	
-0.358276	
-0.358826	
-0.358459	
-0.358093	
-0.359253	
-0.360413	
-0.360413	
-0.361206	
-0.362549	
-0.362549	
-0.362915	
-0.36322	
-0.36377	
-0.363647	
-0.363831	
-0.364563	
-0.36438	
-0.365601	
-0.365295	
-0.366577	
-0.366821	
-0.36731	
-0.366882	
-0.367676	
-0.366821	
-0.367126	
-0.367432	
-0.367554	
-0.36676	
-0.367493	
-0.367798	
-0.368408	
-0.368408	
-0.367737	
-0.369202	
-0.368469	
-0.368347	
-0.369446	
-0.369446	
-0.36908	
-0.369446	
-0.369934	
-0.370605	
-0.369873	
-0.369568	
-0.369873	
-0.369751	
-0.369812	
-0.36969	
-0.370422	
-0.370605	
-0.370483	
-0.371216	
-0.372009	
-0.371216	
-0.3703	
-0.371643	
-0.371216	
-0.370789	
-0.37146	
-0.372314	
-0.372009	
-0.372742	
-0.37262	
-0.372498	
-0.37262	
-0.371826	
-0.372375	
-0.372559	
-0.370728	
-0.370544	
-0.36615	
-0.365601	
-0.365784	
-0.366455	
-0.366211	
-0.369385	
-0.373535	
-0.373108	
-0.373169	
-0.371643	
-0.373108	
-0.37323	
-0.373352	
-0.373718	
-0.374573	
-0.374084	
-0.374207	
-0.374695	
-0.373474	
-0.373291	
-0.371521	
-0.373535	
-0.37384	
-0.373901	
-0.373657	
-0.374023	
-0.37384	
-0.373047	
-0.372986	
-0.372925	
-0.37323	
-0.371521	
-0.37439	
-0.37439	
-0.374817	
-0.375488	
-0.37561	
-0.375671	
-0.376038	
-0.375122	
-0.375	
-0.375061	
-0.374939	
-0.376038	
-0.375732	
-0.376099	
-0.376465	
-0.377197	
-0.37738	
-0.378357	
-0.378967	
-0.380493	
-0.382813	
-0.385376	
-0.389465	
-0.392395	
-0.396179	
-0.400696	
-0.405396	
-0.410034	
-0.415466	
-0.418335	
-0.422485	
-0.427063	
-0.432495	
-0.437988	
-0.443115	
-0.448242	
-0.455017	
-0.460876	
-0.469421	
-0.47821	
-0.485962	
-0.493286	
-0.503235	
-0.510864	
-0.518738	
-0.525269	
-0.530701	
-0.534241	
-0.535767	
-0.538147	
-0.540161	
-0.538635	
-0.537903	
-0.536865	
-0.535522	
-0.533997	
-0.531799	
-0.528687	
-0.52594	
-0.521362	
-0.517273	
-0.513489	
-0.508789	
-0.504822	
-0.501282	
-0.494568	
-0.493103	
-0.489136	
-0.485657	
-0.482239	
-0.478638	
-0.474182	
-0.470398	
-0.465759	
-0.460388	
-0.456299	
-0.450745	
-0.447876	
-0.442749	
-0.439209	
-0.435974	
-0.434021	
-0.431396	
-0.430298	
-0.430969	
-0.428345	
-0.427673	
-0.426514	
-0.426208	
-0.424316	
-0.423279	
-0.421448	
-0.419861	
-0.417419	
-0.415833	
-0.412903	
-0.408752	
-0.404663	
-0.40155	
-0.396851	
-0.393738	
-0.389526	
-0.383606	
-0.378357	
-0.371033	
-0.364502	
-0.356934	
-0.348206	
-0.338867	
-0.33136	
-0.321655	
-0.315002	
-0.307434	
-0.300903	
-0.294495	
-0.289734	
-0.285034	
-0.280334	
-0.277466	
-0.273376	
-0.271484	
-0.270447	
-0.271423	
-0.272705	
-0.274536	
-0.277771	
-0.28186	
-0.284851	
-0.28833	
-0.291626	
-0.293152	
-0.295837	
-0.298096	
-0.300659	
-0.302124	
-0.303833	
-0.304504	
-0.305847	
-0.307556	
-0.309082	
-0.309631	
-0.309692	
-0.311951	
-0.312927	
-0.316345	
-0.317688	
-0.320557	
-0.322876	
-0.325623	
-0.328186	
-0.330688	
-0.333313	
-0.33429	
-0.33551	
-0.336853	
-0.339844	
-0.341248	
-0.343201	
-0.344421	
-0.346008	
-0.346741	
-0.347107	
-0.347534	
-0.348328	
-0.348999	
-0.348938	
-0.351501	
-0.352417	
-0.353577	
-0.355408	
-0.357727	
-0.3573	
-0.358276	
-0.357605	
-0.358887	
-0.359375	
-0.358765	
-0.360229	
-0.360596	
-0.361877	
-0.362915	
-0.362854	
-0.363403	
-0.363647	
-0.362793	
-0.363831	
-0.363708	
-0.364258	
-0.364563	
-0.364807	
-0.365234	
-0.365906	
-0.365417	
-0.365784	
-0.36615	
-0.364014	
-0.364807	
-0.364685	
-0.365601	
-0.366028	
-0.36615	
-0.36615	
-0.36676	
-0.366089	
-0.366882	
-0.366821	
-0.364502	
-0.365723	
-0.366028	
-0.366882	
-0.366638	
-0.367126	
-0.368164	
-0.367798	
-0.367371	
-0.368469	
-0.368713	
-0.366577	
-0.368103	
-0.367493	
-0.368408	
-0.368286	
-0.36969	
-0.369568	
-0.370422	
-0.370361	
-0.370483	
-0.370239	
-0.368408	
-0.369385	
-0.36908	
-0.370239	
-0.370117	
-0.371033	
-0.370117	
-0.371704	
-0.371521	
-0.371826	
-0.372131	
-0.370544	
-0.37146	
-0.371643	
-0.371948	
-0.371521	
-0.371887	
-0.372253	
-0.37323	
-0.372681	
-0.372742	
-0.372986	
-0.372437	
-0.37146	
-0.371155	
-0.372864	
-0.372559	
-0.373535	
-0.373962	
-0.374817	
-0.374023	
-0.374207	
-0.373779	
-0.374573	
-0.374329	
-0.37384	
-0.374573	
-0.374573	
-0.374634	
-0.375671	
-0.37561	
-0.37561	
-0.376465	
-0.374695	
-0.375122	
-0.374756	
-0.375793	
-0.376099	
-0.375916	
-0.376648	
-0.37677	
-0.376404	
-0.376709	
-0.376892	
-0.375366	
-0.375854	
-0.374817	
-0.376892	
-0.376526	
-0.376892	
-0.376526	
-0.376526	
-0.376465	
-0.377747	
-0.37738	
-0.376892	
-0.37616	
-0.377563	
-0.377686	
-0.378296	
-0.378723	
-0.378479	
-0.378723	
-0.37915	
-0.3797	
-0.37915	
-0.378906	
-0.37854	
-0.378662	
-0.380371	
-0.379944	
-0.379822	
-0.38031	
-0.38031	
-0.380676	
-0.380859	
-0.380249	
-0.380371	
-0.379211	
-0.379822	
-0.381531	
-0.380981	
-0.380859	
-0.381287	
-0.381897	
-0.38147	
-0.382446	
-0.381897	
-0.381104	
-0.381165	
-0.382568	
-0.383667	
-0.38269	
-0.382996	
-0.382751	
-0.382507	
-0.382141	
-0.382751	
-0.381226	
-0.380676	
-0.38031	
-0.381958	
-0.382385	
-0.381958	
-0.381897	
-0.381958	
-0.382874	
-0.382324	
-0.383301	
-0.381592	
-0.38147	
-0.380432	
-0.382141	
-0.381958	
-0.382263	
-0.382385	
-0.38208	
-0.382446	
-0.382751	
-0.383179	
-0.381775	
-0.381714	
-0.381287	
-0.382996	
-0.382629	
-0.382996	
-0.382935	
-0.382935	
-0.383423	
-0.383301	
-0.383545	
-0.38208	
-0.382263	
-0.381531	
-0.382751	
-0.383118	
-0.383118	
-0.383362	
-0.383667	
-0.384277	
-0.383545	
-0.384277	
-0.381958	
-0.383423	
-0.383179	
-0.383789	
-0.384583	
-0.384277	
-0.384155	
-0.384399	
-0.384949	
-0.384827	
-0.385132	
-0.38501	
-0.385193	
-0.384766	
-0.385742	
-0.385315	
-0.384705	
-0.384949	
-0.385376	
-0.385254	
-0.38623	
-0.384949	
-0.38446	
-0.384521	
-0.38385	
-0.385071	
-0.384583	
-0.384766	
-0.384949	
-0.386047	
-0.386047	
-0.386169	
-0.385193	
-0.385742	
-0.385376	
-0.384277	
-0.385559	
-0.38501	
-0.385132	
-0.385498	
-0.38623	
-0.38623	
-0.386414	
-0.385742	
-0.385376	
-0.38501	
-0.385315	
-0.385925	
-0.385742	
-0.385864	
-0.38623	
-0.387024	
-0.387207	
-0.38739	
-0.385559	
-0.386841	
-0.385193	
-0.385986	
-0.386841	
-0.386719	
-0.38678	
-0.386963	
-0.387573	
-0.387573	
-0.387024	
-0.386169	
-0.386414	
-0.385803	
-0.386292	
-0.386658	
-0.386292	
-0.38739	
-0.387024	
-0.388184	
-0.38855	
-0.388611	
-0.387268	
-0.387939	
-0.387512	
-0.386841	
-0.388306	
-0.387634	
-0.388245	
-0.388367	
-0.389709	
-0.389893	
-0.389648	
-0.388855	
-0.389343	
-0.389282	
-0.388062	
-0.389404	
-0.389526	
-0.389038	
-0.389343	
-0.390381	
-0.390381	
-0.390686	
-0.390503	
-0.389343	
-0.389648	
-0.388794	
-0.389893	
-0.389404	
-0.389099	
-0.38916	
-0.389465	
-0.389282	
-0.389648	
-0.389771	
-0.387451	
-0.387634	
-0.387512	
-0.387451	
-0.387695	
-0.388733	
-0.388611	
-0.38855	
-0.388855	
-0.388245	
-0.388611	
-0.387146	
-0.38739	
-0.386475	
-0.386597	
-0.387146	
-0.38739	
-0.387268	
-0.387573	
-0.387939	
-0.387878	
-0.388184	
-0.387512	
-0.387939	
-0.387573	
-0.387939	
-0.388184	
-0.388306	
-0.388245	
-0.388733	
-0.389221	
-0.389099	
-0.389771	
-0.388306	
-0.389465	
-0.388855	
-0.390442	
-0.389893	
-0.389465	
-0.389465	
-0.390442	
-0.390869	
-0.39093	
-0.391541	
-0.389343	
-0.390015	
-0.390625	
-0.391724	
-0.391357	
-0.390137	
-0.39093	
-0.391357	
-0.392334	
-0.392029	
-0.392822	
-0.390808	
-0.39093	
-0.391418	
-0.392761	
-0.392151	
-0.391602	
-0.392273	
-0.393005	
-0.394409	
-0.393494	
-0.394104	
-0.391357	
-0.390869	
-0.391357	
-0.392273	
-0.392822	
-0.391968	
-0.392334	
-0.392212	
-0.393494	
-0.392395	
-0.393616	
-0.391785	
-0.391357	
-0.392395	
-0.391235	
-0.391052	
-0.391479	
-0.391113	
-0.391296	
-0.392029	
-0.392273	
-0.393127	
-0.391663	
-0.39032	
-0.39093	
-0.391479	
-0.391541	
-0.391663	
-0.391541	
-0.392212	
-0.391541	
-0.393127	
-0.392578	
-0.391602	
-0.389954	
-0.391113	
-0.390015	
-0.391113	
-0.39093	
-0.390503	
-0.391296	
-0.390808	
-0.393372	
-0.39209	
-0.391968	
-0.390747	
-0.391113	
-0.390747	
-0.391052	
-0.391418	
-0.390564	
-0.391113	
-0.391174	
-0.392639	
-0.391724	
-0.391785	
-0.390869	
-0.391296	
-0.391846	
-0.391235	
-0.391174	
-0.390991	
-0.391357	
-0.391235	
-0.392212	
-0.391479	
-0.392151	
-0.391174	
-0.391663	
-0.39093	
-0.391785	
-0.391235	
-0.390991	
-0.391479	
-0.391418	
-0.391846	
-0.391357	
-0.392334	
-0.390564	
-0.39032	
-0.389771	
-0.389832	
-0.390259	
-0.389832	
-0.389954	
-0.390076	
-0.390442	
-0.390076	
-0.390747	
-0.390076	
-0.388672	
-0.389832	
-0.38916	
-0.390076	
-0.389954	
-0.388428	
-0.389282	
-0.389709	
-0.390076	
-0.389648	
-0.389832	
-0.387024	
-0.388916	
-0.389465	
-0.388794	
-0.388428	
-0.388184	
-0.38855	
-0.388916	
-0.390076	
-0.389648	
-0.390381	
-0.387878	
-0.389282	
-0.389832	
-0.389526	
-0.389709	
-0.389282	
-0.389648	
-0.390137	
-0.391235	
-0.389771	
-0.391724	
-0.389648	
-0.390198	
-0.389282	
-0.389954	
-0.390564	
-0.389648	
-0.390442	
-0.39032	
-0.391296	
-0.390869	
-0.391357	
-0.390198	
-0.390503	
-0.39032	
-0.389893	
-0.390015	
-0.389709	
-0.388611	
-0.389648	
-0.391174	
-0.390442	
-0.390808	
-0.389771	
-0.390808	
-0.390625	
-0.389282	
-0.389771	
-0.390259	
-0.389526	
-0.390259	
-0.390625	
-0.390442	
-0.390808	
-0.391296	
-0.389648	
-0.389709	
-0.38916	
-0.390076	
-0.389648	
-0.38916	
-0.390015	
-0.391663	
-0.391479	
-0.390442	
-0.391113	
-0.388916	
-0.389709	
-0.389709	
-0.389343	
-0.388916	
-0.389282	
-0.389893	
-0.389648	
-0.390381	
-0.389709	
-0.39032	
-0.388672	
-0.390076	
-0.390198	
-0.389404	
-0.389221	
-0.389832	
-0.390015	
-0.390076	
-0.39093	
-0.389648	
-0.389771	
-0.388794	
-0.390076	
-0.389404	
-0.38739	
-0.389404	
-0.389404	
-0.389832	
-0.389954	
-0.390869	
-0.389099	
-0.389465	
-0.390564	
-0.389038	
-0.389282	
-0.388123	
-0.389526	
-0.389038	
-0.388	
-0.388733	
-0.389771	
-0.388916	
-0.388855	
-0.39032	
-0.387268	
-0.388611	
-0.388672	
-0.388672	
-0.388489	
-0.388	
-0.388428	
-0.388855	
-0.389465	
-0.388855	
-0.389648	
-0.387939	
-0.388184	
-0.388794	
-0.388184	
-0.387451	
-0.387207	
-0.388	
-0.387939	
-0.388184	
-0.388123	
-0.388	
-0.386658	
-0.387573	
-0.388367	
-0.38501	
-0.387024	
-0.386902	
-0.386658	
-0.386963	
-0.387634	
-0.386414	
-0.386658	
-0.386292	
-0.386536	
-0.386536	
-0.384216	
-0.386475	
-0.385925	
-0.385803	
-0.38562	
-0.387268	
-0.385803	
-0.38562	
-0.387695	
-0.38501	
-0.385803	
-0.385803	
-0.386353	
-0.385925	
-0.386658	
-0.387085	
-0.386963	
-0.387756	
-0.388123	
-0.389221	
-0.38739	
-0.388245	
-0.388367	
-0.387817	
-0.387024	
-0.38678	
-0.387817	
-0.387756	
-0.38855	
-0.388733	
-0.388672	
-0.38739	
-0.388733	
-0.388977	
-0.387634	
-0.387939	
-0.387695	
-0.387878	
-0.388428	
-0.388611	
-0.388062	
-0.387695	
-0.387146	
-0.388062	
-0.388245	
-0.385986	
-0.387451	
-0.387146	
-0.38739	
-0.387451	
-0.388367	
-0.387329	
-0.387878	
-0.388489	
-0.386963	
-0.387085	
-0.385864	
-0.38623	
-0.386169	
-0.386414	
-0.386597	
-0.38678	
-0.386047	
-0.386292	
-0.386963	
-0.384094	
-0.385681	
-0.384949	
-0.384521	
-0.384949	
-0.384766	
-0.385315	
-0.385071	
-0.386169	
-0.385681	
-0.385437	
-0.38324	
-0.385864	
-0.385071	
-0.383972	
-0.384766	
-0.384094	
-0.385681	
-0.386047	
-0.388	
-0.385925	
-0.385925	
-0.384644	
-0.38562	
-0.386353	
-0.383179	
-0.385437	
-0.384888	
-0.385803	
-0.385559	
-0.386597	
-0.384949	
-0.385681	
-0.386597	
-0.386108	
-0.386841	
-0.384644	
-0.385864	
-0.385376	
-0.385864	
-0.385681	
-0.38623	
-0.385437	
-0.386047	
-0.386902	
-0.386047	
-0.387024	
-0.385498	
-0.385742	
-0.385559	
-0.385864	
-0.385986	
-0.385681	
-0.385986	
-0.386108	
-0.386841	
-0.384888	
-0.386597	
-0.385437	
-0.384766	
-0.386047	
-0.385925	
-0.386292	
-0.385803	
-0.387451	
-0.386047	
-0.38739	
-0.386475	
-0.386658	
-0.385803	
-0.385925	
-0.386475	
-0.385437	
-0.386475	
-0.386292	
-0.387573	
-0.386292	
-0.386719	
-0.387329	
-0.385986	
-0.386169	
-0.385925	
-0.38678	
-0.385559	
-0.386108	
-0.386353	
-0.387329	
-0.385742	
-0.386047	
-0.386353	
-0.385071	
-0.386963	
-0.386475	
-0.386292	
-0.386414	
-0.386841	
-0.386841	
-0.387329	
-0.387634	
-0.387268	
-0.387329	
-0.386536	
-0.38739	
-0.386353	
-0.386658	
-0.387329	
-0.38739	
-0.387573	
-0.388	
-0.388672	
-0.387817	
-0.38855	
-0.387634	
-0.388	
-0.388062	
-0.387817	
-0.388733	
-0.388	
-0.388184	
-0.388794	
-0.389465	
-0.388367	
-0.389404	
-0.389893	
-0.389038	
-0.390259	
-0.389587	
-0.389709	
-0.389038	
-0.389038	
-0.388367	
-0.38916	
-0.388306	
-0.388977	
-0.388123	
-0.387268	
-0.388	
-0.387756	
-0.387634	
-0.388	
-0.387451	
-0.387573	
-0.387634	
-0.388794	
-0.387817	
-0.387939	
-0.387146	
-0.388184	
-0.386841	
-0.387085	
-0.387268	
-0.386719	
-0.388062	
-0.388	
-0.388428	
-0.388245	
-0.388672	
-0.387878	
-0.388245	
-0.388733	
-0.388	
-0.387817	
-0.387695	
-0.387878	
-0.387817	
-0.388916	
-0.387756	
-0.388184	
-0.38855	
-0.388062	
-0.388184	
-0.387756	
-0.388245	
-0.387756	
-0.387634	
-0.387756	
-0.388184	
-0.389099	
-0.388611	
-0.38855	
-0.387512	
-0.388489	
-0.388184	
-0.387634	
-0.388977	
-0.388	
-0.388672	
-0.389343	
-0.390015	
-0.389587	
-0.389648	
-0.387878	
-0.389465	
-0.389832	
-0.387634	
-0.388977	
-0.388428	
-0.388428	
-0.388245	
-0.389343	
-0.38855	
-0.388733	
-0.38855	
-0.388245	
-0.387634	
-0.387939	
-0.388367	
-0.38855	
-0.388733	
-0.388977	
-0.390015	
-0.388916	
-0.389465	
-0.389099	
-0.388306	
-0.387695	
-0.388123	
-0.388428	
-0.388489	
-0.387573	
-0.388855	
-0.389099	
-0.389771	
-0.389893	
-0.388733	
-0.388184	
-0.389282	
-0.389648	
-0.388855	
-0.389282	
-0.389038	
-0.389343	
-0.388916	
-0.390625	
-0.39032	
-0.389954	
-0.388489	
-0.388977	
-0.390442	
-0.388367	
-0.389832	
-0.388794	
-0.389587	
-0.389526	
-0.39093	
-0.390015	
-0.389832	
-0.389832	
-0.389465	
-0.389709	
-0.389587	
-0.390442	
-0.389954	
-0.389221	
-0.390625	
-0.390686	
-0.390686	
-0.390808	
-0.390991	
-0.389343	
-0.390137	
-0.391907	
-0.391113	
-0.390625	
-0.391235	
-0.391479	
-0.391235	
-0.392395	
-0.392456	
-0.391968	
-0.39032	
-0.391724	
-0.392212	
-0.391724	
-0.391785	
-0.39209	
-0.391663	
-0.39209	
-0.393188	
-0.392029	
-0.391846	
-0.391174	
-0.391296	
-0.390747	
-0.39093	
-0.390442	
-0.389832	
-0.388367	
-0.389648	
-0.389954	
-0.389709	
-0.390442	
-0.390442	
-0.389404	
-0.388672	
-0.390137	
-0.389832	
-0.389465	
-0.388977	
-0.389404	
-0.389099	
-0.389221	
-0.389465	
-0.389343	
-0.386597	
-0.389465	
-0.388794	
-0.389404	
-0.389648	
-0.389587	
-0.389893	
-0.389526	
-0.391602	
-0.390991	
-0.390564	
-0.388672	
-0.390198	
-0.389893	
-0.390564	
-0.39032	
-0.390564	
-0.390137	
-0.391174	
-0.392578	
-0.391724	
-0.391968	
-0.391052	
-0.39209	
-0.390381	
-0.39209	
-0.391357	
-0.391602	
-0.392029	
-0.392517	
-0.393005	
-0.392273	
-0.39386	
-0.392029	
-0.392639	
-0.391296	
-0.393311	
-0.392517	
-0.393127	
-0.392822	
-0.393494	
-0.393982	
-0.393738	
-0.394348	
-0.39325	
-0.391907	
-0.393433	
-0.393066	
-0.392578	
-0.3927	
-0.3927	
-0.392029	
-0.393494	
-0.394348	
-0.393677	
-0.392456	
-0.391418	
-0.392639	
-0.39209	
-0.392944	
-0.392273	
-0.391968	
-0.391174	
-0.391602	
-0.393188	
-0.391846	
-0.393433	
-0.391418	
-0.391663	
-0.391479	
-0.393066	
-0.392517	
-0.391418	
-0.390991	
-0.391785	
-0.392883	
-0.392456	
-0.393677	
-0.391907	
-0.391296	
-0.391724	
-0.392029	
-0.391907	
-0.391541	
-0.391174	
-0.390869	
-0.391846	
-0.392578	
-0.392334	
-0.391052	
-0.391235	
-0.391357	
-0.391968	
-0.392273	
-0.391663	
-0.391907	
-0.391357	
-0.392029	
-0.391479	
-0.392395	
-0.391479	
-0.390686	
-0.391235	
-0.389526	
-0.392639	
-0.39209	
-0.391846	
-0.391296	
-0.391479	
-0.392151	
-0.392273	
-0.3927	
-0.39032	
-0.390686	
-0.390869	
-0.392395	
-0.391968	
-0.391541	
-0.391296	
-0.390869	
-0.392212	
-0.392151	
-0.392273	
-0.39093	
-0.390869	
-0.390808	
-0.391418	
-0.391724	
-0.390747	
-0.390564	
-0.390137	
-0.391418	
-0.390564	
-0.390686	
-0.389832	
-0.389709	
-0.390137	
-0.388733	
-0.390564	
-0.390381	
-0.390137	
-0.389893	
-0.390259	
-0.389832	
-0.389954	
-0.390747	
-0.388672	
-0.387756	
-0.388489	
-0.389465	
-0.388977	
-0.389221	
-0.388306	
-0.388306	
-0.388428	
-0.388733	
-0.389587	
-0.387756	
-0.388123	
-0.388428	
-0.389648	
-0.389282	
-0.389526	
-0.388977	
-0.388855	
-0.390137	
-0.390869	
-0.390198	
-0.389648	
-0.389709	
-0.389526	
-0.388916	
-0.390747	
-0.390198	
-0.389954	
-0.389648	
-0.390625	
-0.39032	
-0.390564	
-0.391846	
-0.390503	
-0.390442	
-0.389709	
-0.390991	
-0.390442	
-0.390198	
-0.389587	
-0.389954	
-0.390137	
-0.390076	
-0.391418	
-0.389954	
-0.389771	
-0.389709	
-0.390625	
-0.390564	
-0.390625	
-0.39032	
-0.390076	
-0.390686	
-0.391113	
-0.391113	
-0.389954	
-0.390442	
-0.389893	
-0.389099	
-0.390503	
-0.389709	
-0.390015	
-0.389526	
-0.391174	
-0.391113	
-0.391052	
-0.39093	
-0.390503	
-0.390137	
-0.388916	
-0.390503	
-0.389465	
-0.389648	
-0.38855	
-0.389526	
-0.39032	
-0.39032	
-0.390625	
-0.389404	
-0.389099	
-0.389404	
-0.39093	
-0.389709	
-0.389893	
-0.389954	
-0.390076	
-0.390259	
-0.390625	
-0.390259	
-0.390137	
-0.389038	
-0.389221	
-0.389099	
-0.389648	
-0.390259	
-0.389893	
-0.390076	
-0.390259	
-0.390259	
-0.390198	
-0.389709	
-0.389709	
-0.389648	
-0.388367	
-0.389343	
-0.389893	
-0.389893	
-0.390259	
-0.390747	
-0.389404	
-0.389832	
-0.391357	
-0.389221	
-0.389221	
-0.389099	
-0.389587	
-0.388794	
-0.38916	
-0.388062	
-0.390137	
-0.388916	
-0.389648	
-0.389771	
-0.389038	
-0.388184	
-0.389282	
-0.388855	
-0.38916	
-0.388794	
-0.388123	
-0.389343	
-0.388916	
-0.389465	
-0.388611	
-0.389099	
-0.387756	
-0.388245	
-0.388062	
-0.388428	
-0.387939	
-0.388	
-0.388306	
-0.387939	
-0.388428	
-0.387695	
-0.38739	
-0.387146	
-0.387695	
-0.387146	
-0.38739	
-0.387085	
-0.386536	
-0.387634	
-0.387268	
-0.386841	
-0.38678	
-0.387695	
-0.386475	
-0.386597	
-0.38678	
-0.385925	
-0.387024	
-0.387024	
-0.38739	
-0.388245	
-0.387573	
-0.387451	
-0.38855	
-0.389038	
	
