E:\DOCUMENTS AND SETTINGS\JPOTAS\MEUS DOCUMENTOS\UFRJ\RSCI-BM 12 WK SERIES\070727-RSCI-BM-05\RSCI-BM-05-LEMG\070727-RSCI-BM-05-LEMG-0019.ACQ
0.025000 msec/sample
1 channel
Analog input
Volts
CH1	
2000	
-0.393127	
-0.392578	
-0.394775	
-0.393738	
-0.394104	
-0.393555	
-0.39447	
-0.394714	
-0.394165	
-0.394714	
-0.39447	
-0.394104	
-0.392517	
-0.39386	
-0.393005	
-0.393066	
-0.392456	
-0.389954	
-0.391846	
-0.391541	
-0.392578	
-0.390869	
-0.390381	
-0.391235	
-0.391113	
-0.391418	
-0.390137	
-0.390015	
-0.388489	
-0.389526	
-0.389587	
-0.389771	
-0.38916	
-0.388794	
-0.388977	
-0.388062	
-0.390503	
-0.388245	
-0.388855	
-0.388611	
-0.388794	
-0.389526	
-0.389709	
-0.389771	
-0.388428	
-0.38855	
-0.387939	
-0.389587	
-0.38916	
-0.389526	
-0.388977	
-0.388245	
-0.389709	
-0.390076	
-0.39093	
-0.389893	
-0.389221	
-0.389648	
-0.390808	
-0.391357	
-0.391541	
-0.39093	
-0.389709	
-0.39209	
-0.392395	
-0.392151	
-0.391846	
-0.391418	
-0.391418	
-0.391052	
-0.392456	
-0.391541	
-0.391296	
-0.391174	
-0.392151	
-0.392273	
-0.391785	
-0.391907	
-0.390808	
-0.390625	
-0.390137	
-0.391479	
-0.390198	
-0.390869	
-0.390198	
-0.389771	
-0.390503	
-0.390991	
-0.391602	
-0.390076	
-0.390015	
-0.388428	
-0.391052	
-0.390686	
-0.39032	
-0.389954	
-0.389648	
-0.391052	
-0.391663	
-0.391785	
-0.390625	
-0.39032	
-0.389465	
-0.390076	
-0.391479	
-0.389832	
-0.389282	
-0.388123	
-0.389954	
-0.390198	
-0.389893	
-0.38916	
-0.388489	
-0.387695	
-0.387329	
-0.388367	
-0.387207	
-0.387146	
-0.386902	
-0.386719	
-0.387268	
-0.38739	
-0.388	
-0.387024	
-0.386108	
-0.387207	
-0.387939	
-0.386963	
-0.38678	
-0.386841	
-0.385742	
-0.387817	
-0.387451	
-0.388184	
-0.388	
-0.387756	
-0.387329	
-0.388855	
-0.389954	
-0.389404	
-0.389343	
-0.389343	
-0.390076	
-0.391235	
-0.392639	
-0.391968	
-0.391846	
-0.392395	
-0.392517	
-0.39386	
-0.393494	
-0.393372	
-0.391968	
-0.393494	
-0.393738	
-0.393616	
-0.39386	
-0.392822	
-0.392578	
-0.392578	
-0.393555	
-0.392639	
-0.39209	
-0.391235	
-0.391296	
-0.391235	
-0.391235	
-0.390686	
-0.390625	
-0.389893	
-0.389771	
-0.389587	
-0.390076	
-0.388916	
-0.388489	
-0.38739	
-0.388123	
-0.388245	
-0.387756	
-0.387695	
-0.385986	
-0.38623	
-0.38623	
-0.387817	
-0.38678	
-0.386597	
-0.384583	
-0.385925	
-0.387756	
-0.387451	
-0.387268	
-0.386475	
-0.385681	
-0.385681	
-0.386902	
-0.386169	
-0.386719	
-0.382751	
-0.3797	
-0.380249	
-0.380432	
-0.380676	
-0.380676	
-0.38385	
-0.387207	
-0.389038	
-0.387878	
-0.387634	
-0.387451	
-0.387695	
-0.388672	
-0.389465	
-0.388855	
-0.389709	
-0.388	
-0.388733	
-0.389221	
-0.390259	
-0.389771	
-0.389709	
-0.388733	
-0.390259	
-0.39093	
-0.391296	
-0.391113	
-0.390198	
-0.390259	
-0.390747	
-0.391785	
-0.390442	
-0.390076	
-0.389709	
-0.390869	
-0.391907	
-0.391724	
-0.391235	
-0.390076	
-0.39032	
-0.389404	
-0.390625	
-0.389587	
-0.389526	
-0.38916	
-0.388977	
-0.388794	
-0.389282	
-0.390259	
-0.390564	
-0.389893	
-0.392517	
-0.394287	
-0.396545	
-0.398621	
-0.401978	
-0.40387	
-0.408203	
-0.413269	
-0.416992	
-0.420959	
-0.423828	
-0.429199	
-0.433777	
-0.437378	
-0.440979	
-0.445435	
-0.450684	
-0.45636	
-0.463562	
-0.469849	
-0.477661	
-0.486633	
-0.496704	
-0.507446	
-0.514709	
-0.523438	
-0.53064	
-0.537231	
-0.542358	
-0.546387	
-0.547974	
-0.548889	
-0.5495	
-0.549438	
-0.549988	
-0.548157	
-0.546387	
-0.544983	
-0.543091	
-0.54187	
-0.539673	
-0.5354	
-0.53241	
-0.529053	
-0.525757	
-0.521606	
-0.518372	
-0.514343	
-0.51062	
-0.505981	
-0.504089	
-0.500488	
-0.496643	
-0.494629	
-0.489807	
-0.488464	
-0.485107	
-0.482544	
-0.478516	
-0.475342	
-0.469849	
-0.467957	
-0.464661	
-0.460205	
-0.456726	
-0.451233	
-0.448303	
-0.44635	
-0.444885	
-0.441589	
-0.440063	
-0.437622	
-0.438049	
-0.43811	
-0.437683	
-0.437012	
-0.435425	
-0.43335	
-0.4328	
-0.432983	
-0.429199	
-0.426697	
-0.423462	
-0.422363	
-0.420105	
-0.417236	
-0.413391	
-0.409607	
-0.40564	
-0.401672	
-0.397949	
-0.39209	
-0.386108	
-0.3797	
-0.37384	
-0.368286	
-0.362183	
-0.355469	
-0.348389	
-0.340332	
-0.335327	
-0.329285	
-0.324585	
-0.318359	
-0.313049	
-0.306702	
-0.303528	
-0.30072	
-0.296692	
-0.294861	
-0.291504	
-0.288696	
-0.288879	
-0.289673	
-0.289246	
-0.290283	
-0.290955	
-0.294556	
-0.297607	
-0.299194	
-0.302612	
-0.304321	
-0.306152	
-0.307983	
-0.309875	
-0.311035	
-0.310669	
-0.309692	
-0.310669	
-0.311523	
-0.311035	
-0.31189	
-0.311646	
-0.314636	
-0.315857	
-0.31781	
-0.319702	
-0.322083	
-0.324158	
-0.327087	
-0.329651	
-0.332031	
-0.333984	
-0.335571	
-0.337646	
-0.3396	
-0.340759	
-0.342346	
-0.341919	
-0.344299	
-0.346191	
-0.346924	
-0.347656	
-0.348145	
-0.349304	
-0.349854	
-0.351257	
-0.351563	
-0.35144	
-0.351563	
-0.353027	
-0.354858	
-0.354919	
-0.356445	
-0.355408	
-0.35553	
-0.356873	
-0.358337	
-0.358032	
-0.358093	
-0.357605	
-0.358948	
-0.360474	
-0.359802	
-0.360779	
-0.359741	
-0.360779	
-0.361389	
-0.361816	
-0.36145	
-0.361511	
-0.360962	
-0.362183	
-0.362976	
-0.362366	
-0.363037	
-0.361694	
-0.363586	
-0.363159	
-0.363831	
-0.364075	
-0.363586	
-0.365112	
-0.365479	
-0.366516	
-0.366394	
-0.365356	
-0.364929	
-0.367004	
-0.367004	
-0.367615	
-0.367126	
-0.367615	
-0.368164	
-0.368591	
-0.368774	
-0.368652	
-0.368469	
-0.367737	
-0.369507	
-0.368347	
-0.368347	
-0.368835	
-0.36853	
-0.368469	
-0.369446	
-0.369385	
-0.369019	
-0.36853	
-0.36731	
-0.36908	
-0.368713	
-0.36853	
-0.367615	
-0.368042	
-0.368225	
-0.368225	
-0.369202	
-0.368347	
-0.367676	
-0.36615	
-0.366699	
-0.366516	
-0.366943	
-0.365906	
-0.366699	
-0.36731	
-0.368103	
-0.367676	
-0.367676	
-0.367432	
-0.366699	
-0.367371	
-0.368469	
-0.368286	
-0.368652	
-0.368958	
-0.369568	
-0.369995	
-0.369812	
-0.370667	
-0.370056	
-0.371033	
-0.37085	
-0.371887	
-0.370911	
-0.372009	
-0.37262	
-0.373718	
-0.374756	
-0.374573	
-0.374756	
-0.373962	
-0.375427	
-0.375366	
-0.375977	
-0.375061	
-0.37561	
-0.374878	
-0.376953	
-0.378174	
-0.376587	
-0.376892	
-0.376404	
-0.377747	
-0.377258	
-0.377686	
-0.376221	
-0.377869	
-0.377014	
-0.377869	
-0.379089	
-0.377747	
-0.377869	
-0.376404	
-0.377808	
-0.377563	
-0.378296	
-0.37738	
-0.378052	
-0.377625	
-0.378296	
-0.379517	
-0.378113	
-0.378601	
-0.376953	
-0.377502	
-0.376587	
-0.377197	
-0.375549	
-0.376221	
-0.376038	
-0.376526	
-0.37854	
-0.376648	
-0.377014	
-0.376526	
-0.376831	
-0.37616	
-0.37677	
-0.376038	
-0.376038	
-0.376526	
-0.376465	
-0.378357	
-0.377014	
-0.37793	
-0.37616	
-0.377563	
-0.376587	
-0.377502	
-0.37793	
-0.377747	
-0.378418	
-0.37738	
-0.379272	
-0.378784	
-0.379761	
-0.378296	
-0.379578	
-0.378662	
-0.379272	
-0.37915	
-0.378906	
-0.378662	
-0.378296	
-0.380005	
-0.37915	
-0.380066	
-0.379395	
-0.380554	
-0.379333	
-0.3797	
-0.380066	
-0.380127	
-0.38031	
-0.379944	
-0.382019	
-0.381226	
-0.382019	
-0.381287	
-0.382385	
-0.380798	
-0.382446	
-0.381714	
-0.382019	
-0.382263	
-0.382385	
-0.383972	
-0.382996	
-0.382935	
-0.382996	
-0.38385	
-0.382202	
-0.383667	
-0.383484	
-0.383545	
-0.383728	
-0.382141	
-0.385132	
-0.383789	
-0.38324	
-0.38269	
-0.383057	
-0.382141	
-0.382324	
-0.381592	
-0.382141	
-0.381287	
-0.380188	
-0.382568	
-0.380615	
-0.3797	
-0.378845	
-0.379578	
-0.378723	
-0.379333	
-0.377869	
-0.379761	
-0.379028	
-0.378662	
-0.380981	
-0.380066	
-0.379639	
-0.379211	
-0.380188	
-0.380798	
-0.381653	
-0.38031	
-0.381531	
-0.381836	
-0.381531	
-0.382874	
-0.383118	
-0.38324	
-0.382629	
-0.384155	
-0.385132	
-0.385071	
-0.385071	
-0.386597	
-0.386414	
-0.387756	
-0.388245	
-0.388428	
-0.387878	
-0.387634	
-0.388733	
-0.389648	
-0.390015	
-0.389038	
-0.389832	
-0.390198	
-0.390808	
-0.39093	
-0.390381	
-0.389709	
-0.389526	
-0.390442	
-0.389465	
-0.390137	
-0.38916	
-0.388794	
-0.38855	
-0.388672	
-0.388733	
-0.388428	
-0.387451	
-0.386292	
-0.38739	
-0.387146	
-0.387451	
-0.386658	
-0.387268	
-0.38739	
-0.386169	
-0.386841	
-0.385986	
-0.386169	
-0.384766	
-0.38623	
-0.385315	
-0.385437	
-0.385437	
-0.385864	
-0.386475	
-0.384949	
-0.386292	
-0.385986	
-0.386414	
-0.384094	
-0.386536	
-0.385376	
-0.386353	
-0.385864	
-0.386536	
-0.385742	
-0.386536	
-0.387268	
-0.386719	
-0.387573	
-0.385315	
-0.386963	
-0.386719	
-0.387207	
-0.388	
-0.388184	
-0.388184	
-0.388428	
-0.389771	
-0.389282	
-0.390808	
-0.388123	
-0.389465	
-0.389099	
-0.38916	
-0.388672	
-0.38916	
-0.389038	
-0.389221	
-0.390381	
-0.389465	
-0.389771	
-0.388733	
-0.389709	
-0.388916	
-0.388733	
-0.388611	
-0.388611	
-0.388	
-0.388306	
-0.389465	
-0.388428	
-0.388611	
-0.387024	
-0.388367	
-0.388428	
-0.388245	
-0.388	
-0.388733	
-0.388794	
-0.388611	
-0.389099	
-0.388367	
-0.38916	
-0.388306	
-0.38916	
-0.388306	
-0.388855	
-0.389221	
-0.388672	
-0.388489	
-0.388489	
-0.388611	
-0.387878	
-0.388123	
-0.387512	
-0.387268	
-0.386658	
-0.386475	
-0.387329	
-0.38623	
-0.386108	
-0.385803	
-0.386047	
-0.385864	
-0.385681	
-0.385132	
-0.38501	
-0.38501	
-0.38501	
-0.385559	
-0.385437	
-0.385254	
-0.385437	
-0.385132	
-0.38623	
-0.385803	
-0.385925	
-0.385193	
-0.386292	
-0.386169	
-0.386658	
-0.386841	
-0.387024	
-0.388062	
-0.388123	
-0.388245	
-0.38855	
-0.388794	
-0.387817	
-0.388977	
-0.388367	
-0.390381	
-0.391113	
-0.391724	
-0.391663	
-0.391968	
-0.393005	
-0.392273	
-0.391907	
-0.391296	
-0.392212	
-0.390442	
-0.390686	
-0.391724	
-0.391602	
-0.391479	
-0.390991	
-0.392029	
-0.390808	
-0.390686	
-0.390259	
-0.390259	
-0.388611	
-0.389648	
-0.389465	
-0.389282	
-0.389221	
-0.388916	
-0.388672	
-0.388245	
-0.387268	
-0.387085	
-0.386414	
-0.385986	
-0.386169	
-0.386047	
-0.38562	
-0.385986	
-0.385986	
-0.386658	
-0.385681	
-0.385498	
-0.38623	
-0.385376	
-0.385071	
-0.385559	
-0.385071	
-0.385498	
-0.385132	
-0.385376	
-0.386963	
-0.385864	
-0.385193	
-0.386292	
-0.385925	
-0.386108	
-0.386353	
-0.38623	
-0.387329	
-0.387024	
-0.386597	
-0.387512	
-0.387451	
-0.386292	
-0.386902	
-0.387268	
-0.387939	
-0.388	
-0.38739	
-0.388306	
-0.388733	
-0.389282	
-0.390381	
-0.38916	
-0.388367	
-0.389404	
-0.390137	
-0.389465	
-0.388306	
-0.388428	
-0.390381	
-0.390076	
-0.390198	
-0.390442	
-0.390198	
-0.389465	
-0.390808	
-0.390747	
-0.390503	
-0.389648	
-0.39032	
-0.390503	
-0.390198	
-0.389954	
-0.390442	
-0.389404	
-0.388428	
-0.389771	
-0.389832	
-0.388672	
-0.388123	
-0.389099	
-0.388855	
-0.389587	
-0.389465	
-0.388733	
-0.390015	
-0.389038	
-0.390137	
-0.389099	
-0.389404	
-0.388855	
-0.390686	
-0.389038	
-0.389099	
-0.389404	
-0.388489	
-0.38916	
-0.387817	
-0.388489	
-0.387207	
-0.388184	
-0.387756	
-0.388184	
-0.387451	
-0.388306	
-0.388306	
-0.387024	
-0.388	
-0.386719	
-0.387207	
-0.386841	
-0.387085	
-0.38678	
-0.387512	
-0.386536	
-0.386475	
-0.387451	
-0.387329	
-0.387634	
-0.386414	
-0.387451	
-0.387817	
-0.38739	
-0.387268	
-0.388306	
-0.388123	
-0.388672	
-0.389465	
-0.389099	
-0.390015	
-0.389832	
-0.390808	
-0.391235	
-0.391846	
-0.392334	
-0.392029	
-0.391479	
-0.392273	
-0.392517	
-0.390991	
-0.392517	
-0.392029	
-0.392578	
-0.391968	
-0.391479	
-0.391907	
-0.391235	
-0.390503	
-0.39093	
-0.391113	
-0.389771	
-0.390503	
-0.390259	
-0.388977	
-0.389587	
-0.388245	
-0.388611	
-0.386719	
-0.386719	
-0.387512	
-0.387024	
-0.385254	
-0.385864	
-0.386108	
-0.383789	
-0.384827	
-0.383728	
-0.383667	
-0.382507	
-0.383301	
-0.383911	
-0.383423	
-0.383118	
-0.383362	
-0.384155	
-0.382629	
-0.38324	
-0.382874	
-0.383057	
-0.381958	
-0.384094	
-0.383362	
-0.384399	
-0.385071	
-0.385437	
-0.385803	
-0.385315	
-0.387146	
-0.386902	
-0.386353	
-0.385193	
-0.38678	
-0.387146	
-0.387146	
-0.387634	
-0.387817	
-0.388733	
-0.387573	
-0.388123	
-0.388489	
-0.388245	
-0.387573	
-0.388306	
-0.388123	
-0.388062	
-0.388489	
-0.388611	
-0.388733	
-0.38855	
-0.388916	
-0.388794	
-0.387817	
-0.388123	
-0.388855	
-0.387878	
-0.387878	
-0.388123	
-0.388184	
-0.388184	
-0.389099	
-0.388916	
-0.388977	
-0.388062	
-0.387634	
-0.388123	
-0.387024	
-0.387024	
-0.386719	
-0.386475	
-0.386169	
-0.385437	
-0.38501	
-0.386108	
-0.385376	
-0.385132	
-0.386292	
-0.385986	
-0.385498	
-0.38562	
-0.386475	
-0.386597	
-0.386047	
-0.385864	
-0.386597	
-0.385864	
-0.386353	
-0.386902	
-0.386597	
-0.386963	
-0.387451	
-0.387085	
-0.386963	
-0.387146	
-0.387268	
-0.387085	
-0.386047	
-0.386841	
-0.386719	
-0.385986	
-0.386902	
-0.386536	
-0.386536	
-0.387085	
-0.386536	
-0.386658	
-0.387207	
-0.386719	
-0.387207	
-0.385559	
-0.386963	
-0.38739	
-0.387024	
-0.387024	
-0.387695	
-0.38739	
-0.388367	
-0.388611	
-0.388367	
-0.388916	
-0.388	
-0.390076	
-0.38916	
-0.389587	
-0.390198	
-0.390503	
-0.390198	
-0.390381	
-0.39032	
-0.390137	
-0.390442	
-0.389954	
-0.39093	
-0.39093	
-0.390442	
-0.390686	
-0.391174	
-0.390991	
-0.390564	
-0.390137	
-0.389893	
-0.389648	
-0.389587	
-0.389404	
-0.38916	
-0.388794	
-0.388489	
-0.389038	
-0.388855	
-0.387573	
-0.387085	
-0.387451	
-0.386536	
-0.385803	
-0.385132	
-0.384888	
-0.38501	
-0.384216	
-0.384583	
-0.385254	
-0.384399	
-0.384277	
-0.38446	
-0.384277	
-0.384216	
-0.384521	
-0.384705	
-0.384094	
-0.385071	
-0.384521	
-0.385193	
-0.385071	
-0.385315	
-0.386108	
-0.386047	
-0.386108	
-0.386414	
-0.387695	
-0.38678	
-0.38678	
-0.387512	
-0.388367	
-0.388489	
-0.389709	
-0.389587	
-0.389709	
-0.390259	
-0.389526	
-0.39093	
-0.390198	
-0.391113	
-0.390625	
-0.391174	
-0.39093	
-0.391113	
-0.391174	
-0.391541	
-0.391113	
-0.390381	
-0.390991	
-0.391479	
-0.391235	
-0.390869	
-0.391785	
-0.390686	
-0.39093	
-0.390808	
-0.39093	
-0.390564	
-0.390381	
-0.390442	
-0.39093	
-0.391113	
-0.390808	
-0.391113	
-0.389893	
-0.390076	
-0.390198	
-0.389465	
-0.389893	
-0.388	
-0.388245	
-0.388672	
-0.388306	
-0.388916	
-0.387512	
-0.388428	
-0.387878	
-0.387756	
-0.387451	
-0.388	
-0.387756	
-0.38623	
-0.387939	
-0.387512	
-0.387634	
-0.386658	
-0.387756	
-0.387085	
-0.388489	
-0.387695	
-0.387329	
-0.387085	
-0.387207	
-0.388611	
-0.387268	
-0.387512	
-0.388855	
-0.389099	
-0.388306	
-0.388733	
-0.389099	
-0.389099	
-0.388245	
-0.388	
-0.389771	
-0.388855	
-0.388672	
-0.388428	
-0.388916	
-0.388184	
-0.388611	
-0.38916	
-0.388123	
-0.388367	
-0.388306	
-0.389099	
-0.388306	
-0.388855	
-0.388855	
-0.389648	
-0.389526	
-0.389893	
-0.389709	
-0.389526	
-0.389648	
-0.388794	
-0.390198	
-0.390381	
-0.390442	
-0.390198	
-0.390869	
-0.390564	
-0.390503	
-0.390991	
-0.39093	
-0.390991	
-0.389771	
-0.391296	
-0.391541	
-0.390991	
-0.390747	
-0.391174	
-0.391113	
-0.390442	
-0.391235	
-0.390381	
-0.390015	
-0.389465	
-0.38916	
-0.389893	
-0.389099	
-0.388977	
-0.388672	
-0.387878	
-0.387756	
-0.387512	
-0.385681	
-0.386047	
-0.385681	
-0.385681	
-0.386963	
-0.385437	
-0.385925	
-0.386658	
-0.385803	
-0.385681	
-0.386536	
-0.38562	
-0.386169	
-0.386353	
-0.38678	
-0.388062	
-0.387024	
-0.387512	
-0.388367	
-0.388672	
-0.38855	
-0.389404	
-0.38855	
-0.389343	
-0.390198	
-0.388855	
-0.391357	
-0.391357	
-0.392334	
-0.392944	
-0.39447	
-0.39325	
-0.394592	
-0.394287	
-0.394348	
-0.394592	
-0.39325	
-0.394897	
-0.394958	
-0.394836	
-0.395203	
-0.395325	
-0.395874	
-0.395691	
-0.39563	
-0.395386	
-0.395142	
-0.394104	
-0.395142	
-0.394714	
-0.393982	
-0.39386	
-0.39325	
-0.393127	
-0.393066	
-0.392639	
-0.3927	
-0.392395	
-0.391541	
-0.391846	
-0.393066	
-0.391907	
-0.391357	
-0.39209	
-0.391296	
-0.391235	
-0.391052	
-0.389954	
-0.390381	
-0.390381	
-0.389832	
-0.390991	
-0.390625	
-0.390381	
-0.389893	
-0.391113	
-0.39032	
-0.391052	
-0.391296	
-0.390869	
-0.390747	
-0.390808	
-0.391174	
-0.391052	
-0.390747	
-0.390686	
-0.391907	
-0.390991	
-0.391113	
-0.392151	
-0.391968	
-0.391479	
-0.391174	
-0.39209	
-0.392883	
-0.392334	
-0.392944	
-0.392578	
-0.393555	
-0.393921	
-0.39325	
-0.393372	
-0.392944	
-0.393188	
-0.393188	
-0.394348	
-0.393494	
-0.393738	
-0.393311	
-0.392883	
-0.393005	
-0.391663	
-0.393066	
-0.393005	
-0.392517	
-0.391418	
-0.393127	
-0.391968	
-0.392029	
-0.39209	
-0.391846	
-0.39209	
-0.391296	
-0.391418	
-0.391479	
-0.391235	
-0.391174	
-0.392273	
-0.391968	
-0.392273	
-0.392639	
-0.392395	
-0.392273	
-0.391785	
-0.391968	
-0.391846	
-0.390137	
-0.390869	
-0.39209	
-0.391724	
-0.391479	
-0.392334	
-0.391357	
-0.391296	
-0.39093	
-0.390991	
-0.390137	
-0.388367	
-0.389465	
-0.389954	
-0.38916	
-0.389038	
-0.389648	
-0.388123	
-0.388611	
-0.388794	
-0.388916	
-0.388306	
-0.388062	
-0.388489	
-0.388428	
-0.388855	
-0.388489	
-0.389038	
-0.388306	
-0.389099	
-0.389404	
-0.388672	
-0.388306	
-0.389038	
-0.389465	
-0.389771	
-0.390747	
-0.391174	
-0.391052	
-0.391113	
-0.391785	
-0.391785	
-0.391724	
-0.393005	
-0.393066	
-0.393372	
-0.393188	
-0.395203	
-0.394775	
-0.394348	
-0.395142	
-0.395508	
-0.394714	
-0.393616	
-0.395752	
-0.394653	
-0.394409	
-0.39386	
-0.394775	
-0.394226	
-0.393616	
-0.393738	
-0.393433	
-0.393066	
-0.392944	
-0.393433	
-0.392639	
-0.391724	
-0.391296	
-0.391541	
-0.391663	
-0.390808	
-0.391418	
-0.389404	
-0.389587	
-0.389771	
-0.389771	
-0.38855	
-0.388	
-0.388672	
-0.388489	
-0.388916	
-0.388428	
-0.388611	
-0.387573	
-0.388123	
-0.388367	
-0.387451	
-0.386292	
-0.387024	
-0.387451	
-0.388489	
-0.388611	
-0.387756	
-0.388977	
-0.387878	
-0.38855	
-0.388855	
-0.388428	
-0.388794	
-0.388794	
-0.388245	
-0.387634	
-0.389587	
-0.38916	
-0.389526	
-0.389465	
-0.389832	
-0.389587	
-0.389404	
-0.390625	
-0.39032	
-0.390686	
-0.390991	
-0.391541	
-0.390991	
-0.391174	
-0.391113	
-0.391602	
-0.39209	
-0.391357	
-0.392456	
-0.390625	
-0.391541	
-0.391724	
-0.392334	
-0.391907	
-0.392029	
-0.392334	
-0.391968	
-0.39325	
-0.39209	
-0.3927	
-0.390625	
-0.391602	
-0.392395	
-0.392212	
-0.391907	
-0.391846	
-0.391968	
-0.390259	
-0.392029	
-0.391602	
-0.391174	
-0.390503	
-0.389832	
-0.39093	
-0.390625	
-0.391785	
-0.390991	
-0.391846	
-0.39093	
-0.391418	
-0.391663	
-0.391113	
-0.391479	
-0.390991	
-0.390381	
-0.389709	
-0.391602	
-0.390625	
-0.390747	
-0.389771	
-0.390076	
-0.39093	
-0.390015	
-0.389954	
-0.38916	
-0.389282	
-0.388916	
-0.389648	
-0.389771	
-0.389526	
-0.38916	
-0.388977	
-0.388794	
-0.388428	
-0.389099	
-0.388123	
-0.387878	
-0.388184	
-0.388794	
-0.389038	
-0.388916	
-0.388611	
-0.389038	
-0.389648	
-0.388672	
-0.390442	
-0.38916	
-0.389343	
-0.389954	
-0.391418	
-0.391052	
-0.391296	
-0.392578	
-0.392029	
-0.393555	
-0.393188	
-0.394348	
-0.393127	
-0.393372	
-0.393616	
-0.394592	
-0.394714	
-0.393921	
-0.39447	
-0.393677	
-0.394104	
-0.393616	
-0.393066	
-0.392639	
-0.392761	
-0.392456	
-0.391479	
-0.392395	
-0.391846	
-0.391724	
-0.391052	
-0.391052	
-0.390503	
-0.390137	
-0.389954	
-0.388489	
-0.388245	
-0.386841	
-0.387695	
-0.387207	
-0.386536	
-0.385925	
-0.386597	
-0.385803	
-0.384338	
-0.385742	
-0.384766	
-0.38446	
-0.384277	
-0.38501	
-0.38446	
-0.384399	
-0.384644	
-0.383545	
-0.38446	
-0.383484	
-0.385376	
-0.384521	
-0.384644	
-0.385437	
-0.386719	
-0.386353	
-0.386414	
-0.388123	
-0.387024	
-0.388123	
-0.387817	
-0.389038	
-0.387573	
-0.387146	
-0.387634	
-0.388489	
-0.390076	
-0.388977	
-0.389893	
-0.389038	
-0.389221	
-0.390076	
-0.389038	
-0.38855	
-0.388733	
-0.390015	
-0.389709	
-0.390076	
-0.389526	
-0.389709	
-0.389771	
-0.389587	
-0.390015	
-0.388184	
-0.388123	
-0.389099	
-0.389282	
-0.388306	
-0.389832	
-0.389099	
-0.389343	
-0.390015	
-0.389832	
-0.389526	
-0.388916	
-0.388855	
-0.388611	
-0.388184	
-0.386719	
-0.387085	
-0.38678	
-0.386597	
-0.387695	
-0.387085	
-0.386353	
-0.386414	
-0.387939	
-0.386475	
-0.386658	
-0.386658	
-0.387451	
-0.387024	
-0.387329	
-0.387329	
-0.387512	
-0.387939	
-0.38739	
-0.387207	
-0.386902	
-0.386841	
-0.388	
-0.388428	
-0.388123	
-0.388	
-0.388123	
-0.387451	
-0.388184	
-0.388245	
-0.386658	
-0.387634	
-0.386963	
-0.387573	
-0.387878	
-0.388733	
-0.387512	
-0.387451	
-0.388367	
-0.387817	
-0.388428	
-0.38678	
-0.387878	
-0.387878	
-0.387817	
-0.386719	
-0.388794	
-0.388611	
-0.388672	
-0.389709	
-0.389343	
-0.390076	
-0.389221	
-0.390625	
-0.389893	
-0.39032	
-0.390381	
-0.391541	
-0.391357	
-0.391235	
-0.391418	
-0.391357	
-0.390869	
-0.39093	
-0.391052	
-0.390991	
-0.389771	
-0.39093	
-0.391296	
-0.391296	
-0.390625	
-0.390991	
-0.390015	
-0.390503	
-0.390808	
-0.38855	
-0.389587	
-0.388794	
-0.388977	
-0.388977	
-0.389282	
-0.388184	
-0.388367	
-0.38855	
-0.38739	
-0.386963	
-0.384827	
-0.385315	
-0.384521	
-0.384338	
-0.382996	
-0.385376	
-0.384705	
-0.383972	
-0.385925	
-0.384705	
-0.38501	
-0.384338	
-0.385803	
-0.384827	
-0.38501	
-0.384888	
-0.385193	
-0.385376	
-0.386108	
-0.387146	
-0.385925	
-0.387085	
-0.387024	
-0.387939	
-0.38739	
-0.387146	
-0.388245	
-0.38855	
-0.389587	
-0.389221	
-0.389587	
-0.389526	
-0.390015	
-0.390076	
-0.388428	
-0.39032	
-0.389587	
-0.390503	
-0.390076	
-0.392151	
-0.391479	
-0.391846	
-0.3927	
-0.391479	
-0.392456	
-0.389771	
-0.391663	
-0.390808	
-0.391418	
-0.390564	
-0.392212	
-0.391174	
-0.391846	
-0.392639	
-0.390747	
-0.391296	
-0.389832	
-0.391113	
-0.390076	
-0.390747	
-0.390442	
-0.391357	
-0.390442	
-0.390625	
-0.391357	
-0.389465	
-0.389282	
-0.388672	
-0.389465	
-0.388306	
-0.38855	
-0.38855	
-0.388245	
-0.388123	
-0.388062	
-0.389526	
-0.386475	
-0.387756	
-0.387207	
-0.387329	
-0.387573	
-0.387451	
-0.38678	
-0.387329	
-0.38855	
-0.388184	
-0.387939	
-0.387024	
-0.387939	
-0.387329	
-0.386169	
-0.388062	
-0.387085	
-0.388123	
-0.387024	
-0.389282	
-0.388672	
-0.388611	
-0.389709	
-0.389099	
-0.38916	
-0.387878	
-0.38855	
-0.387024	
-0.387634	
-0.38739	
-0.388733	
-0.388184	
-0.388306	
-0.388733	
-0.388306	
-0.389526	
-0.387512	
-0.389648	
-0.388245	
-0.389099	
-0.388977	
-0.389099	
-0.389954	
-0.389954	
-0.390442	
-0.389282	
-0.390442	
-0.388611	
-0.39032	
-0.39032	
-0.390625	
-0.39032	
-0.390198	
-0.391357	
-0.390564	
-0.391724	
-0.390503	
-0.391052	
-0.390381	
-0.389526	
-0.391113	
-0.390808	
-0.39093	
-0.389404	
-0.390991	
-0.390381	
-0.390808	
-0.390076	
-0.389221	
-0.389526	
-0.388916	
-0.389404	
-0.388	
-0.387695	
-0.387146	
-0.387024	
-0.386414	
-0.386414	
-0.386292	
-0.384766	
-0.38562	
-0.384827	
-0.385864	
-0.384155	
-0.385254	
-0.385071	
-0.385803	
-0.386597	
-0.386169	
-0.386475	
-0.38562	
-0.38739	
-0.386536	
-0.38739	
-0.386292	
-0.387939	
-0.388245	
-0.387878	
-0.389221	
-0.38916	
-0.390503	
-0.389954	
-0.390869	
-0.389648	
-0.390625	
-0.392029	
-0.392273	
-0.392761	
-0.392273	
-0.39386	
-0.39386	
-0.395142	
	
