E:\DOCUMENTS AND SETTINGS\JPOTAS\MEUS DOCUMENTOS\UFRJ\RSCI-BM 12 WK SERIES\070727-RSCI-BM-05\RSCI-BM-05-LEMG\070727-RSCI-BM-05-LEMG-0001.ACQ
0.025000 msec/sample
1 channel
Analog input
Volts
CH1	
2000	
-0.39093	
-0.390564	
-0.388733	
-0.388245	
-0.388	
-0.386658	
-0.387878	
-0.386597	
-0.387451	
-0.387512	
-0.38678	
-0.388	
-0.388489	
-0.387329	
-0.386597	
-0.386719	
-0.385681	
-0.385254	
-0.38623	
-0.38678	
-0.386597	
-0.386108	
-0.386108	
-0.386414	
-0.387878	
-0.386536	
-0.38739	
-0.386169	
-0.385803	
-0.386108	
-0.386047	
-0.387024	
-0.38623	
-0.386169	
-0.386353	
-0.386414	
-0.387268	
-0.387146	
-0.387634	
-0.387268	
-0.38678	
-0.387512	
-0.386719	
-0.388184	
-0.387939	
-0.388794	
-0.388977	
-0.388306	
-0.389954	
-0.389587	
-0.389771	
-0.390198	
-0.389709	
-0.390076	
-0.390015	
-0.390686	
-0.389832	
-0.390808	
-0.390137	
-0.39032	
-0.39093	
-0.392578	
-0.391174	
-0.391235	
-0.390076	
-0.390259	
-0.389526	
-0.389648	
-0.389832	
-0.389099	
-0.389221	
-0.389282	
-0.389465	
-0.390076	
-0.389404	
-0.389771	
-0.389282	
-0.389038	
-0.388916	
-0.388672	
-0.390442	
-0.388733	
-0.389343	
-0.389465	
-0.388855	
-0.390137	
-0.391113	
-0.389893	
-0.390442	
-0.389648	
-0.389099	
-0.389771	
-0.391296	
-0.390381	
-0.39032	
-0.390686	
-0.389893	
-0.391235	
-0.392151	
-0.391663	
-0.391541	
-0.390747	
-0.391357	
-0.39093	
-0.39093	
-0.391541	
-0.390869	
-0.390381	
-0.390625	
-0.390747	
-0.391113	
-0.391235	
-0.391174	
-0.390747	
-0.390076	
-0.389648	
-0.39032	
-0.391174	
-0.390076	
-0.390503	
-0.390503	
-0.390564	
-0.391113	
-0.391418	
-0.390991	
-0.390686	
-0.390625	
-0.390686	
-0.390442	
-0.391907	
-0.391174	
-0.391541	
-0.390381	
-0.39032	
-0.390991	
-0.390869	
-0.390564	
-0.389587	
-0.389832	
-0.389038	
-0.388916	
-0.389832	
-0.388977	
-0.389038	
-0.388855	
-0.38855	
-0.389282	
-0.389709	
-0.389465	
-0.389709	
-0.389099	
-0.389099	
-0.387512	
-0.38855	
-0.388733	
-0.389343	
-0.389954	
-0.390015	
-0.391174	
-0.392517	
-0.392517	
-0.392761	
-0.392639	
-0.392456	
-0.392639	
-0.392273	
-0.394104	
-0.39209	
-0.393372	
-0.393372	
-0.393433	
-0.393311	
-0.394531	
-0.394226	
-0.393799	
-0.393127	
-0.393188	
-0.392395	
-0.392822	
-0.392029	
-0.392456	
-0.392029	
-0.390808	
-0.391663	
-0.392395	
-0.392334	
-0.392273	
-0.391357	
-0.392151	
-0.390808	
-0.390686	
-0.39209	
-0.391785	
-0.391785	
-0.391602	
-0.391296	
-0.391418	
-0.388123	
-0.389771	
-0.390381	
-0.390808	
-0.390137	
-0.389648	
-0.390198	
-0.389893	
-0.39032	
-0.390442	
-0.389221	
-0.390381	
-0.390259	
-0.391052	
-0.390564	
-0.388977	
-0.389465	
-0.390015	
-0.391174	
-0.390137	
-0.39093	
-0.391235	
-0.390198	
-0.391357	
-0.39209	
-0.392578	
-0.392212	
-0.391663	
-0.392944	
-0.391724	
-0.392578	
-0.393127	
-0.393005	
-0.39325	
-0.39325	
-0.393616	
-0.394287	
-0.393738	
-0.394714	
-0.393005	
-0.394104	
-0.39325	
-0.391846	
-0.393921	
-0.3927	
-0.3927	
-0.392151	
-0.392029	
-0.392761	
-0.392151	
-0.392517	
-0.392273	
-0.392456	
-0.391602	
-0.390808	
-0.393127	
-0.392456	
-0.394653	
-0.396423	
-0.397949	
-0.401062	
-0.403687	
-0.407166	
-0.410095	
-0.412903	
-0.416931	
-0.42041	
-0.425781	
-0.42926	
-0.432861	
-0.436523	
-0.439453	
-0.442932	
-0.446655	
-0.450745	
-0.452454	
-0.457336	
-0.46051	
-0.464783	
-0.471252	
-0.475037	
-0.48114	
-0.48645	
-0.490662	
-0.49231	
-0.49292	
-0.493591	
-0.489929	
-0.489929	
-0.486633	
-0.482849	
-0.480835	
-0.476746	
-0.473572	
-0.469971	
-0.467102	
-0.463196	
-0.458923	
-0.456421	
-0.450562	
-0.447449	
-0.442261	
-0.436462	
-0.433838	
-0.428528	
-0.425659	
-0.421387	
-0.418823	
-0.416809	
-0.413757	
-0.411926	
-0.409912	
-0.408081	
-0.405151	
-0.40155	
-0.400879	
-0.397461	
-0.396057	
-0.395081	
-0.394348	
-0.393494	
-0.392273	
-0.391968	
-0.392212	
-0.392029	
-0.391907	
-0.392273	
-0.394226	
-0.39386	
-0.395874	
-0.396667	
-0.398193	
-0.400513	
-0.400818	
-0.401428	
-0.402588	
-0.402527	
-0.402771	
-0.401917	
-0.40332	
-0.400391	
-0.400085	
-0.397827	
-0.395508	
-0.39386	
-0.388855	
-0.385071	
-0.381409	
-0.375854	
-0.371277	
-0.366272	
-0.360413	
-0.355164	
-0.349121	
-0.343506	
-0.336121	
-0.331055	
-0.323303	
-0.316406	
-0.309753	
-0.300659	
-0.295349	
-0.288635	
-0.282043	
-0.277405	
-0.273987	
-0.270752	
-0.268677	
-0.269653	
-0.269592	
-0.27124	
-0.27417	
-0.276184	
-0.280457	
-0.283997	
-0.288147	
-0.291626	
-0.29657	
-0.299866	
-0.304138	
-0.306824	
-0.309265	
-0.311707	
-0.313171	
-0.31488	
-0.31488	
-0.31427	
-0.316162	
-0.316895	
-0.316895	
-0.317078	
-0.319702	
-0.320129	
-0.321655	
-0.32489	
-0.324158	
-0.326721	
-0.32782	
-0.330811	
-0.331665	
-0.335022	
-0.337158	
-0.340027	
-0.34259	
-0.344055	
-0.345886	
-0.347839	
-0.34906	
-0.349548	
-0.349915	
-0.351074	
-0.352112	
-0.352478	
-0.352295	
-0.353943	
-0.354553	
-0.354675	
-0.355042	
-0.354675	
-0.355896	
-0.35553	
-0.356018	
-0.355774	
-0.356873	
-0.356995	
-0.357605	
-0.358826	
-0.358704	
-0.359131	
-0.360046	
-0.359192	
-0.359253	
-0.360229	
-0.359314	
-0.359131	
-0.359558	
-0.360291	
-0.360413	
-0.360901	
-0.360962	
-0.362	
-0.362366	
-0.363098	
-0.362061	
-0.362793	
-0.362549	
-0.362793	
-0.362366	
-0.36377	
-0.364319	
-0.363708	
-0.363831	
-0.364685	
-0.363831	
-0.364685	
-0.364014	
-0.364807	
-0.364014	
-0.364746	
-0.364807	
-0.364563	
-0.365234	
-0.364807	
-0.364868	
-0.365051	
-0.365723	
-0.365051	
-0.365234	
-0.365234	
-0.366516	
-0.367004	
-0.36676	
-0.367676	
-0.368958	
-0.368225	
-0.368469	
-0.368958	
-0.370178	
-0.368591	
-0.368103	
-0.369324	
-0.369873	
-0.369629	
-0.369324	
-0.370544	
-0.370422	
-0.370422	
-0.371094	
-0.370667	
-0.371399	
-0.370667	
-0.371643	
-0.369385	
-0.369812	
-0.369568	
-0.369019	
-0.368408	
-0.368896	
-0.369202	
-0.368591	
-0.368958	
-0.36792	
-0.368469	
-0.368591	
-0.367981	
-0.368286	
-0.367737	
-0.368164	
-0.368713	
-0.368042	
-0.369385	
-0.368958	
-0.369873	
-0.369446	
-0.370605	
-0.370728	
-0.370789	
-0.370789	
-0.369751	
-0.371643	
-0.372498	
-0.371826	
-0.37207	
-0.371704	
-0.37323	
-0.37207	
-0.373901	
-0.372192	
-0.373108	
-0.373047	
-0.373108	
-0.374268	
-0.374451	
-0.375122	
-0.374695	
-0.375488	
-0.375305	
-0.374573	
-0.375671	
-0.374817	
-0.376099	
-0.376343	
-0.376587	
-0.376648	
-0.376892	
-0.377563	
-0.376831	
-0.377197	
-0.37677	
-0.376526	
-0.377258	
-0.375671	
-0.377319	
-0.376587	
-0.377136	
-0.377075	
-0.376892	
-0.377014	
-0.375977	
-0.376343	
-0.375916	
-0.37616	
-0.375061	
-0.374634	
-0.375061	
-0.374695	
-0.375305	
-0.375671	
-0.375977	
-0.376526	
-0.376038	
-0.375977	
-0.37561	
-0.375122	
-0.375732	
-0.375305	
-0.376831	
-0.376343	
-0.377563	
-0.377441	
-0.378113	
-0.379028	
-0.378113	
-0.378174	
-0.377563	
-0.378906	
-0.377747	
-0.37738	
-0.377991	
-0.378174	
-0.378723	
-0.379272	
-0.37854	
-0.379272	
-0.378784	
-0.378174	
-0.378235	
-0.378479	
-0.377319	
-0.377747	
-0.377991	
-0.378235	
-0.378723	
-0.3797	
-0.37854	
-0.378601	
-0.378235	
-0.378357	
-0.377502	
-0.378357	
-0.377502	
-0.377258	
-0.377869	
-0.378418	
-0.379089	
-0.379578	
-0.379944	
-0.379761	
-0.379944	
-0.380737	
-0.380066	
-0.380798	
-0.380737	
-0.379883	
-0.38092	
-0.380798	
-0.382446	
-0.381226	
-0.381958	
-0.381348	
-0.381409	
-0.38208	
-0.381775	
-0.381165	
-0.381714	
-0.381653	
-0.381104	
-0.381775	
-0.382324	
-0.381531	
-0.381287	
-0.381592	
-0.381409	
-0.381348	
-0.381836	
-0.380432	
-0.38092	
-0.381897	
-0.38269	
-0.383118	
-0.383118	
-0.384338	
-0.383667	
-0.38385	
-0.384521	
-0.383972	
-0.385742	
-0.384705	
-0.384583	
-0.385071	
-0.385559	
-0.386719	
-0.385986	
-0.386414	
-0.386414	
-0.38623	
-0.386414	
-0.385437	
-0.385559	
-0.385559	
-0.383728	
-0.38269	
-0.383728	
-0.384399	
-0.383179	
-0.383789	
-0.382751	
-0.383301	
-0.382751	
-0.383301	
-0.382019	
-0.382324	
-0.380981	
-0.381348	
-0.382568	
-0.382446	
-0.382263	
-0.382629	
-0.381897	
-0.382263	
-0.382568	
-0.382385	
-0.381531	
-0.381897	
-0.380798	
-0.381409	
-0.382385	
-0.382629	
-0.382202	
-0.382507	
-0.381836	
-0.381836	
-0.382629	
-0.383118	
-0.381714	
-0.383179	
-0.38147	
-0.382751	
-0.38324	
-0.383484	
-0.38385	
-0.384399	
-0.383301	
-0.38501	
-0.385681	
-0.386108	
-0.384705	
-0.385559	
-0.385559	
-0.385986	
-0.386108	
-0.385925	
-0.386536	
-0.387695	
-0.386353	
-0.387024	
-0.386902	
-0.386902	
-0.386414	
-0.387268	
-0.385864	
-0.388	
-0.387878	
-0.387146	
-0.387268	
-0.38739	
-0.386902	
-0.386047	
-0.387024	
-0.386108	
-0.385803	
-0.385376	
-0.384827	
-0.385925	
-0.387146	
-0.386169	
-0.386169	
-0.386108	
-0.385925	
-0.386292	
-0.38678	
-0.386169	
-0.38562	
-0.38623	
-0.386292	
-0.387085	
-0.388184	
-0.387329	
-0.387817	
-0.387451	
-0.387817	
-0.38739	
-0.388184	
-0.387878	
-0.387085	
-0.387329	
-0.387695	
-0.388245	
-0.389282	
-0.388855	
-0.389282	
-0.388611	
-0.388916	
-0.38855	
-0.389221	
-0.388	
-0.387085	
-0.387207	
-0.388184	
-0.387939	
-0.388611	
-0.388245	
-0.388489	
-0.387634	
-0.38855	
-0.388489	
-0.388733	
-0.387024	
-0.387939	
-0.386963	
-0.388367	
-0.388245	
-0.388672	
-0.388672	
-0.389343	
-0.388	
-0.389465	
-0.389099	
-0.389587	
-0.388977	
-0.388	
-0.388306	
-0.388733	
-0.388184	
-0.388062	
-0.387268	
-0.387878	
-0.387207	
-0.387939	
-0.387268	
-0.387634	
-0.386658	
-0.386536	
-0.385681	
-0.387024	
-0.387268	
-0.386963	
-0.387451	
-0.387268	
-0.386292	
-0.388	
-0.386719	
-0.387146	
-0.386902	
-0.386475	
-0.386414	
-0.388	
-0.388977	
-0.389587	
-0.390076	
-0.390381	
-0.39032	
-0.391846	
-0.390991	
-0.391541	
-0.391113	
-0.391357	
-0.389648	
-0.391174	
-0.392151	
-0.391785	
-0.392029	
-0.392456	
-0.390991	
-0.392395	
-0.391479	
-0.391724	
-0.391174	
-0.390442	
-0.389587	
-0.39032	
-0.390442	
-0.390503	
-0.39032	
-0.390076	
-0.389526	
-0.39093	
-0.389893	
-0.390991	
-0.390198	
-0.390076	
-0.388977	
-0.390198	
-0.389954	
-0.390259	
-0.389709	
-0.390381	
-0.388855	
-0.390442	
-0.389099	
-0.389221	
-0.38855	
-0.387939	
-0.388	
-0.388977	
-0.389343	
-0.389465	
-0.388855	
-0.389099	
-0.387939	
-0.389893	
-0.388916	
-0.388977	
-0.389343	
-0.389709	
-0.388489	
-0.389404	
-0.390198	
-0.390259	
-0.390442	
-0.390808	
-0.390198	
-0.392456	
-0.393005	
-0.392151	
-0.391602	
-0.390503	
-0.391541	
-0.392029	
-0.392944	
-0.392639	
-0.393005	
-0.393616	
-0.391663	
-0.393372	
-0.39325	
-0.393127	
-0.392761	
-0.392456	
-0.390869	
-0.392334	
-0.392029	
-0.391296	
-0.391907	
-0.392395	
-0.390991	
-0.391296	
-0.391235	
-0.390747	
-0.390869	
-0.390015	
-0.390808	
-0.391174	
-0.39209	
-0.391235	
-0.391602	
-0.391602	
-0.390076	
-0.392212	
-0.391724	
-0.390808	
-0.392029	
-0.391785	
-0.390442	
-0.392029	
-0.392761	
-0.392517	
-0.392334	
-0.392395	
-0.392578	
-0.392822	
-0.393127	
-0.393127	
-0.392639	
-0.391418	
-0.391785	
-0.392822	
-0.392944	
-0.391907	
-0.391296	
-0.392029	
-0.390625	
-0.391846	
-0.391174	
-0.390503	
-0.391113	
-0.389343	
-0.389343	
-0.390808	
-0.391418	
-0.390686	
-0.390625	
-0.391052	
-0.390625	
-0.391296	
-0.391296	
-0.391418	
-0.391052	
-0.390564	
-0.389587	
-0.390808	
-0.391724	
-0.390869	
-0.391235	
-0.391785	
-0.390625	
-0.391663	
-0.392334	
-0.391968	
-0.391785	
-0.390564	
-0.390015	
-0.390259	
-0.390442	
-0.389709	
-0.389648	
-0.388855	
-0.389282	
-0.389282	
-0.389893	
-0.388367	
-0.388367	
-0.387634	
-0.386658	
-0.388	
-0.388123	
-0.388123	
-0.387817	
-0.387939	
-0.388184	
-0.387939	
-0.388611	
-0.388855	
-0.388733	
-0.388733	
-0.388794	
-0.39032	
-0.39093	
-0.391785	
-0.391724	
-0.391418	
-0.392517	
-0.392273	
-0.393127	
-0.391968	
-0.392273	
-0.392273	
-0.392029	
-0.392517	
-0.392944	
-0.393982	
-0.393005	
-0.393005	
-0.393616	
-0.393494	
-0.393677	
-0.393738	
-0.392578	
-0.392334	
-0.392456	
-0.393616	
-0.393127	
-0.393921	
-0.393188	
-0.393494	
-0.393616	
-0.393555	
-0.394104	
-0.393982	
-0.393188	
-0.392334	
-0.391785	
-0.392639	
-0.392456	
-0.392944	
-0.392639	
-0.391541	
-0.392029	
-0.389465	
-0.391235	
-0.391663	
-0.390198	
-0.389343	
-0.388977	
-0.389465	
-0.390076	
-0.390442	
-0.389832	
-0.389526	
-0.389282	
-0.388367	
-0.390381	
-0.390137	
-0.389771	
-0.389282	
-0.389038	
-0.389709	
-0.389709	
-0.389954	
-0.389954	
-0.39032	
-0.391357	
-0.389587	
-0.391296	
-0.391907	
-0.390808	
-0.390259	
-0.390442	
-0.390564	
-0.390503	
-0.391174	
-0.390869	
-0.390686	
-0.390564	
-0.390015	
-0.390625	
-0.391113	
-0.389221	
-0.39032	
-0.389221	
-0.389404	
-0.390076	
-0.389954	
-0.390442	
-0.389221	
-0.389648	
-0.389099	
-0.390259	
-0.389954	
-0.387512	
-0.388672	
-0.388367	
-0.388367	
-0.388855	
-0.388611	
-0.389221	
-0.388855	
-0.389099	
-0.388794	
-0.389587	
-0.389526	
-0.388184	
-0.389404	
-0.387634	
-0.388306	
-0.389465	
-0.389404	
-0.389709	
-0.389709	
-0.389465	
-0.389404	
-0.390198	
-0.390442	
-0.388672	
-0.388672	
-0.388611	
-0.388794	
-0.388977	
-0.388855	
-0.389465	
-0.388611	
-0.388672	
-0.389038	
-0.389038	
-0.389343	
-0.388184	
-0.38916	
-0.388489	
-0.388977	
-0.390137	
-0.390137	
-0.390747	
-0.390686	
-0.390442	
-0.391052	
-0.391296	
-0.39209	
-0.390564	
-0.390137	
-0.390137	
-0.389526	
-0.390381	
-0.390808	
-0.391785	
-0.390991	
-0.39093	
-0.391052	
-0.390869	
-0.391113	
-0.389709	
-0.388855	
-0.387085	
-0.387939	
-0.388123	
-0.387756	
-0.387634	
-0.387024	
-0.38678	
-0.38739	
-0.386841	
-0.387024	
-0.386169	
-0.384949	
-0.384705	
-0.384216	
-0.385803	
-0.386414	
-0.386719	
-0.386963	
-0.387329	
-0.387878	
-0.386169	
-0.388733	
-0.388123	
-0.387268	
-0.387695	
-0.386597	
-0.388611	
-0.388306	
-0.388489	
-0.389221	
-0.388733	
-0.388794	
-0.387817	
-0.389526	
-0.389221	
-0.388	
-0.388062	
-0.387573	
-0.389465	
-0.389954	
-0.389954	
-0.389526	
-0.389893	
-0.390259	
-0.389832	
-0.391052	
-0.390686	
-0.38916	
-0.389954	
-0.389404	
-0.389587	
-0.389771	
-0.39032	
-0.390259	
-0.390564	
-0.390198	
-0.389832	
-0.391052	
-0.391052	
-0.389587	
-0.388855	
-0.388245	
-0.388977	
-0.388916	
-0.388855	
-0.388245	
-0.387573	
-0.386963	
-0.387024	
-0.388245	
-0.388428	
-0.386414	
-0.386963	
-0.386292	
-0.385559	
-0.38678	
-0.386902	
-0.38678	
-0.386719	
-0.38678	
-0.387756	
-0.388306	
-0.388672	
-0.387878	
-0.387878	
-0.387634	
-0.38678	
-0.388	
-0.388306	
-0.388733	
-0.388	
-0.388367	
-0.388733	
-0.389587	
-0.389099	
-0.388123	
-0.387756	
-0.387939	
-0.387634	
-0.388245	
-0.387939	
-0.388977	
-0.387634	
-0.387451	
-0.388	
-0.388306	
-0.387878	
-0.387268	
-0.386597	
-0.38623	
-0.38678	
-0.387146	
-0.386841	
-0.387207	
-0.38739	
-0.387146	
-0.387146	
-0.38623	
-0.387634	
-0.387512	
-0.386475	
-0.386841	
-0.38739	
-0.387878	
-0.387512	
-0.388611	
-0.388489	
-0.388611	
-0.388794	
-0.388306	
-0.389465	
-0.389343	
-0.387024	
-0.387512	
-0.388184	
-0.387268	
-0.38855	
-0.388672	
-0.388977	
-0.388428	
-0.388794	
-0.388184	
-0.389282	
-0.388184	
-0.387329	
-0.387207	
-0.387878	
-0.386963	
-0.387146	
-0.388	
-0.388	
-0.387512	
-0.388245	
-0.389343	
-0.39032	
-0.389648	
-0.389648	
-0.388916	
-0.390259	
-0.390137	
-0.390442	
-0.390625	
-0.391724	
-0.391296	
-0.391357	
-0.391663	
-0.392517	
-0.391724	
-0.391663	
-0.39093	
-0.390747	
-0.391724	
-0.391724	
-0.391296	
-0.39093	
-0.390137	
-0.390076	
-0.390015	
-0.390442	
-0.388489	
-0.388977	
-0.388	
-0.386841	
-0.387817	
-0.387512	
-0.387634	
-0.387878	
-0.387512	
-0.387329	
-0.38739	
-0.387451	
-0.386597	
-0.387451	
-0.385681	
-0.385742	
-0.385864	
-0.386292	
-0.386475	
-0.387756	
-0.386658	
-0.386536	
-0.387024	
-0.387207	
-0.386719	
-0.386963	
-0.385559	
-0.384766	
-0.386841	
-0.385376	
-0.386963	
-0.387451	
-0.387268	
-0.387268	
-0.387573	
-0.388672	
-0.388184	
-0.388672	
-0.388428	
-0.38678	
-0.389526	
-0.388611	
-0.389526	
-0.390137	
-0.389465	
-0.390015	
-0.39032	
-0.39093	
-0.390686	
-0.390442	
-0.391479	
-0.389465	
-0.390198	
-0.390564	
-0.391418	
-0.391968	
-0.391418	
-0.391235	
-0.391052	
-0.392029	
-0.391418	
-0.39032	
-0.390747	
-0.388733	
-0.389893	
-0.389526	
-0.389648	
-0.390381	
-0.389404	
-0.389465	
-0.390015	
-0.390625	
-0.390381	
-0.389465	
-0.389648	
-0.388489	
-0.389282	
-0.389099	
-0.389648	
-0.39032	
-0.390137	
-0.390381	
-0.390198	
-0.390198	
-0.391663	
-0.390503	
-0.390869	
-0.389526	
-0.390076	
-0.390991	
-0.390076	
-0.391602	
-0.391052	
-0.391235	
-0.391907	
-0.392151	
-0.392273	
-0.391663	
-0.391113	
-0.390442	
-0.390259	
-0.391235	
-0.390076	
-0.391357	
-0.391541	
-0.390564	
-0.39093	
-0.391113	
-0.392334	
-0.391174	
-0.39093	
-0.390564	
-0.390442	
-0.390625	
-0.390686	
-0.390625	
-0.391602	
-0.39093	
-0.391296	
-0.391174	
-0.392029	
-0.391541	
-0.391418	
-0.390991	
-0.391602	
-0.391907	
-0.391663	
-0.391663	
-0.392273	
-0.39093	
-0.390869	
-0.390259	
-0.391418	
-0.39093	
-0.389832	
-0.390076	
-0.389832	
-0.389709	
-0.389709	
-0.389832	
-0.389893	
-0.389526	
-0.389221	
-0.389526	
-0.390259	
-0.390076	
-0.389465	
-0.389771	
-0.387695	
-0.388733	
-0.388977	
-0.389832	
-0.390747	
-0.391174	
-0.391235	
-0.392151	
-0.391968	
-0.393372	
-0.393372	
-0.393311	
-0.391174	
-0.392639	
-0.393738	
-0.392578	
-0.393799	
-0.394226	
-0.394165	
-0.394348	
-0.394287	
-0.394897	
-0.393738	
-0.39386	
-0.392151	
-0.391785	
-0.3927	
-0.391968	
-0.392944	
-0.392334	
-0.392151	
-0.392273	
-0.391357	
-0.392761	
-0.392395	
-0.392639	
-0.391968	
-0.391541	
-0.391785	
-0.391602	
-0.391785	
-0.392395	
-0.391724	
-0.39209	
-0.392029	
-0.393372	
-0.391785	
-0.39093	
-0.390442	
-0.39032	
-0.390503	
-0.390564	
-0.391052	
-0.390686	
-0.390503	
-0.390503	
-0.390564	
-0.391663	
-0.391663	
-0.390808	
-0.391541	
-0.390076	
-0.391052	
-0.390564	
-0.391235	
-0.392639	
-0.391541	
-0.39209	
-0.392212	
-0.393494	
-0.39386	
-0.393555	
-0.394226	
-0.391479	
-0.392517	
-0.393921	
-0.393982	
-0.394958	
-0.393677	
-0.39447	
-0.394531	
-0.395264	
-0.395447	
-0.39447	
-0.395203	
-0.393127	
-0.393494	
-0.39386	
-0.393372	
-0.394653	
-0.393311	
-0.392395	
-0.392456	
-0.393005	
-0.393738	
-0.392761	
-0.393616	
-0.392761	
-0.391968	
-0.392212	
-0.391418	
-0.393494	
-0.3927	
-0.393005	
-0.392639	
-0.392456	
-0.394226	
-0.392761	
-0.393127	
-0.392639	
-0.391541	
-0.392639	
-0.392517	
-0.393799	
-0.393982	
-0.393494	
-0.393616	
-0.393677	
-0.395447	
-0.394836	
-0.39386	
-0.393372	
-0.3927	
-0.394043	
-0.392517	
-0.393982	
-0.393555	
-0.393677	
-0.392944	
-0.392212	
-0.393738	
-0.39386	
-0.3927	
-0.392334	
-0.390869	
-0.392029	
-0.390991	
-0.391968	
-0.392151	
-0.392273	
-0.392212	
-0.391174	
-0.392578	
-0.393311	
-0.392395	
-0.392151	
-0.39093	
-0.391968	
-0.392029	
-0.392395	
-0.392822	
-0.392273	
-0.392151	
-0.392639	
-0.393127	
-0.394714	
-0.39325	
-0.393372	
-0.391724	
-0.391479	
-0.391785	
-0.391418	
-0.391418	
-0.390564	
-0.390564	
-0.389771	
-0.390076	
-0.390076	
-0.389954	
-0.390137	
-0.388794	
-0.388184	
-0.389221	
-0.388	
-0.389099	
-0.38916	
-0.388794	
-0.388489	
-0.387573	
-0.390442	
-0.389526	
-0.390442	
-0.390137	
-0.39032	
-0.391418	
-0.391235	
-0.392578	
-0.392517	
-0.392517	
-0.3927	
-0.392151	
-0.394043	
-0.394348	
-0.393311	
-0.39325	
-0.392517	
-0.393494	
-0.393066	
-0.393982	
-0.394409	
-0.393982	
-0.39386	
-0.393616	
-0.39447	
-0.395813	
-0.394897	
-0.394226	
-0.392883	
-0.392029	
-0.39386	
-0.394165	
-0.395264	
-0.394348	
-0.394287	
-0.393921	
-0.394775	
-0.395081	
-0.394348	
-0.39447	
-0.393188	
-0.392456	
-0.393066	
-0.393433	
-0.393372	
-0.392517	
-0.391663	
-0.39209	
-0.391235	
-0.392151	
-0.391602	
-0.391663	
-0.389099	
-0.389709	
-0.390564	
-0.389526	
-0.390076	
-0.389771	
-0.389954	
-0.389954	
-0.390381	
-0.390625	
-0.39093	
-0.390808	
-0.389587	
-0.388428	
-0.389954	
-0.389832	
-0.391235	
-0.390991	
-0.391296	
-0.39093	
-0.39093	
-0.391724	
-0.391846	
-0.391663	
-0.391174	
-0.390808	
-0.39032	
-0.391235	
-0.391113	
-0.392273	
-0.390869	
-0.390747	
-0.390869	
-0.391846	
-0.391724	
-0.391113	
-0.39093	
-0.389587	
-0.38916	
-0.389404	
-0.390259	
-0.391052	
-0.389709	
-0.389832	
-0.389648	
-0.390564	
-0.39032	
-0.389771	
-0.389587	
-0.388489	
-0.388123	
-0.388855	
-0.388733	
-0.390076	
-0.389099	
-0.389038	
-0.389771	
-0.389954	
-0.390625	
-0.390198	
-0.390259	
-0.388428	
-0.389648	
-0.389343	
-0.38916	
-0.389771	
-0.389832	
-0.389465	
-0.389709	
-0.389343	
-0.390259	
-0.390137	
-0.389648	
-0.388	
-0.388123	
-0.389099	
-0.387634	
-0.389038	
-0.389038	
-0.389038	
-0.388489	
-0.388428	
-0.389832	
-0.390076	
-0.389954	
-0.389709	
-0.390137	
-0.389709	
-0.389465	
-0.390686	
-0.391357	
-0.390808	
-0.390381	
-0.390686	
-0.391907	
-0.391235	
-0.391052	
-0.391418	
-0.390503	
-0.390259	
-0.391113	
-0.39093	
-0.391541	
-0.390686	
-0.390991	
-0.389709	
-0.39032	
-0.390503	
-0.389893	
-0.389282	
-0.386719	
-0.387146	
-0.387207	
-0.386108	
-0.387634	
-0.38739	
-0.386658	
-0.385986	
-0.386047	
-0.386963	
-0.38678	
-0.385986	
-0.385071	
-0.38501	
-0.385071	
-0.385559	
-0.387024	
-0.386902	
-0.387329	
-0.387268	
-0.387024	
-0.388062	
-0.388916	
-0.388611	
-0.387634	
-0.387756	
-0.387268	
-0.387756	
-0.388306	
-0.389099	
-0.389099	
-0.388428	
-0.387878	
-0.389099	
-0.389954	
-0.390015	
-0.389038	
-0.389343	
-0.389587	
-0.388916	
-0.389587	
-0.389954	
-0.389709	
-0.389709	
-0.389771	
-0.390442	
-0.390381	
-0.390808	
-0.390564	
-0.389893	
-0.389648	
-0.389832	
-0.389526	
-0.39032	
-0.389954	
-0.389587	
-0.389221	
-0.390076	
-0.390259	
-0.389893	
-0.389526	
-0.387878	
-0.387817	
-0.386353	
-0.386902	
-0.387573	
-0.387146	
-0.386902	
-0.386902	
-0.385925	
-0.386597	
-0.387146	
-0.386719	
-0.385132	
-0.384949	
-0.385132	
-0.385193	
-0.386841	
-0.386841	
-0.386719	
-0.38739	
-0.386292	
-0.387878	
-0.387878	
-0.388367	
-0.387451	
-0.38739	
-0.387756	
-0.387939	
-0.387756	
-0.388	
-0.387756	
-0.388	
-0.387695	
-0.388489	
-0.388489	
-0.388611	
-0.387756	
-0.386902	
-0.386841	
-0.38678	
-0.387512	
-0.388123	
-0.386719	
-0.386963	
-0.387085	
-0.387878	
-0.386963	
-0.387512	
-0.387024	
-0.385742	
-0.385803	
-0.385803	
-0.386414	
-0.387146	
-0.385925	
-0.386414	
-0.386963	
-0.387024	
-0.387451	
-0.387695	
-0.387878	
-0.38678	
-0.387634	
-0.386902	
-0.387268	
-0.388855	
-0.387817	
-0.388367	
-0.387756	
-0.388062	
-0.388672	
-0.387817	
-0.387512	
-0.387329	
-0.387207	
-0.386597	
-0.387146	
-0.388245	
-0.388123	
-0.387451	
-0.387085	
-0.386841	
-0.388306	
-0.387268	
-0.387939	
-0.386292	
-0.385986	
-0.386841	
-0.387024	
-0.387756	
-0.387634	
-0.388428	
-0.388428	
-0.388489	
-0.389526	
-0.389465	
-0.390442	
-0.389832	
-0.388733	
-0.390076	
-0.389587	
-0.390686	
-0.39093	
-0.390747	
-0.390808	
-0.39093	
-0.391846	
-0.39032	
-0.391052	
-0.391235	
-0.389832	
-0.389648	
-0.388672	
	
