E:\DOCUMENTS AND SETTINGS\JPOTAS\MEUS DOCUMENTOS\UFRJ\RSCI-BM 12 WK SERIES\070727-RSCI-BM-05\RSCI-BM-05-LEMG\070727-RSCI-BM-05-LEMG-0004.ACQ
0.025000 msec/sample
1 channel
Analog input
Volts
CH1	
2000	
-0.390869	
-0.389832	
-0.391785	
-0.391174	
-0.3927	
-0.391113	
-0.391174	
-0.390747	
-0.391479	
-0.391479	
-0.390869	
-0.39093	
-0.391052	
-0.390503	
-0.392151	
-0.390564	
-0.391174	
-0.389832	
-0.389893	
-0.390015	
-0.389526	
-0.389587	
-0.389771	
-0.389832	
-0.389709	
-0.38916	
-0.390137	
-0.389648	
-0.390991	
-0.389282	
-0.389221	
-0.388916	
-0.389465	
-0.389526	
-0.389465	
-0.389221	
-0.389648	
-0.389343	
-0.391052	
-0.390137	
-0.391052	
-0.389954	
-0.388916	
-0.389404	
-0.389709	
-0.390442	
-0.39032	
-0.390381	
-0.389832	
-0.388611	
-0.389343	
-0.388672	
-0.388733	
-0.387817	
-0.387451	
-0.387146	
-0.387329	
-0.387512	
-0.387146	
-0.386841	
-0.386047	
-0.384766	
-0.386597	
-0.385986	
-0.386047	
-0.385742	
-0.384705	
-0.384094	
-0.385193	
-0.385864	
-0.385559	
-0.385193	
-0.385681	
-0.38501	
-0.386047	
-0.386475	
-0.386597	
-0.385864	
-0.385742	
-0.385193	
-0.386658	
-0.387207	
-0.387024	
-0.387024	
-0.387268	
-0.386841	
-0.388062	
-0.387451	
-0.387512	
-0.387451	
-0.386108	
-0.386414	
-0.386841	
-0.387817	
-0.388306	
-0.388367	
-0.388184	
-0.388184	
-0.388611	
-0.389282	
-0.389038	
-0.388977	
-0.388306	
-0.387634	
-0.388123	
-0.389893	
-0.389832	
-0.390076	
-0.390808	
-0.390564	
-0.392212	
-0.391724	
-0.392029	
-0.391968	
-0.391296	
-0.391296	
-0.391846	
-0.391663	
-0.392273	
-0.391846	
-0.391785	
-0.392212	
-0.392517	
-0.393127	
-0.392578	
-0.392212	
-0.391296	
-0.391663	
-0.390808	
-0.391968	
-0.391296	
-0.391602	
-0.391541	
-0.391235	
-0.392029	
-0.391541	
-0.390686	
-0.39093	
-0.389709	
-0.390625	
-0.389893	
-0.390686	
-0.391357	
-0.390991	
-0.390625	
-0.390747	
-0.390869	
-0.390686	
-0.389832	
-0.390076	
-0.389648	
-0.389832	
-0.389343	
-0.390259	
-0.389709	
-0.389587	
-0.389526	
-0.389038	
-0.390381	
-0.389893	
-0.388672	
-0.388733	
-0.388184	
-0.38855	
-0.388184	
-0.388855	
-0.38916	
-0.389282	
-0.389099	
-0.389343	
-0.389954	
-0.389771	
-0.388611	
-0.389038	
-0.389404	
-0.389832	
-0.389221	
-0.390015	
-0.389832	
-0.390137	
-0.390198	
-0.390137	
-0.390564	
-0.390625	
-0.389587	
-0.389771	
-0.388794	
-0.388794	
-0.388184	
-0.388367	
-0.388184	
-0.387756	
-0.387085	
-0.387146	
-0.38739	
-0.386353	
-0.386353	
-0.382141	
-0.379395	
-0.379944	
-0.378601	
-0.379456	
-0.379517	
-0.382446	
-0.384888	
-0.385071	
-0.386414	
-0.385315	
-0.385437	
-0.381348	
-0.378845	
-0.379089	
-0.37915	
-0.380066	
-0.38092	
-0.383118	
-0.386047	
-0.386902	
-0.387268	
-0.386658	
-0.386169	
-0.385193	
-0.385681	
-0.386902	
-0.385742	
-0.387085	
-0.387268	
-0.387756	
-0.387634	
-0.387573	
-0.389709	
-0.388062	
-0.388245	
-0.387329	
-0.387878	
-0.388489	
-0.388245	
-0.38855	
-0.388794	
-0.388733	
-0.389038	
-0.388855	
-0.39032	
-0.389221	
-0.389893	
-0.389648	
-0.390137	
-0.391907	
-0.392212	
-0.395264	
-0.396301	
-0.399048	
-0.400574	
-0.40332	
-0.408447	
-0.410339	
-0.414429	
-0.417542	
-0.422119	
-0.426697	
-0.430237	
-0.435486	
-0.437622	
-0.441406	
-0.445068	
-0.450806	
-0.452515	
-0.457031	
-0.462708	
-0.46875	
-0.475159	
-0.482239	
-0.489746	
-0.495422	
-0.500671	
-0.505188	
-0.507751	
-0.510925	
-0.509888	
-0.509583	
-0.507568	
-0.50708	
-0.505432	
-0.501831	
-0.499695	
-0.4953	
-0.491699	
-0.487915	
-0.483215	
-0.479736	
-0.474243	
-0.469299	
-0.462708	
-0.459351	
-0.453796	
-0.447571	
-0.443542	
-0.438416	
-0.433594	
-0.429871	
-0.425903	
-0.424072	
-0.420715	
-0.418579	
-0.41449	
-0.413391	
-0.410706	
-0.407593	
-0.407471	
-0.404968	
-0.402832	
-0.401428	
-0.40094	
-0.398376	
-0.396301	
-0.396057	
-0.393127	
-0.39386	
-0.393738	
-0.393433	
-0.395691	
-0.395447	
-0.396606	
-0.39801	
-0.401062	
-0.400818	
-0.401428	
-0.402649	
-0.401367	
-0.402405	
-0.401733	
-0.401123	
-0.40033	
-0.398438	
-0.39624	
-0.393372	
-0.392883	
-0.388367	
-0.384521	
-0.380371	
-0.375061	
-0.371155	
-0.365601	
-0.360291	
-0.353821	
-0.347229	
-0.340088	
-0.332703	
-0.32782	
-0.318909	
-0.312195	
-0.305847	
-0.299011	
-0.29364	
-0.288269	
-0.284668	
-0.280212	
-0.278015	
-0.275574	
-0.274292	
-0.275391	
-0.274841	
-0.276306	
-0.277283	
-0.28009	
-0.284241	
-0.287048	
-0.291931	
-0.294922	
-0.297852	
-0.30127	
-0.305908	
-0.30719	
-0.31012	
-0.311768	
-0.312927	
-0.315979	
-0.315796	
-0.31781	
-0.317688	
-0.318604	
-0.319458	
-0.322632	
-0.323181	
-0.323914	
-0.325623	
-0.326721	
-0.329712	
-0.331665	
-0.333801	
-0.336853	
-0.339478	
-0.341675	
-0.34436	
-0.347351	
-0.348083	
-0.349487	
-0.350403	
-0.351746	
-0.353271	
-0.353333	
-0.355652	
-0.355835	
-0.356934	
-0.357178	
-0.358215	
-0.358887	
-0.358276	
-0.358948	
-0.35791	
-0.359192	
-0.359192	
-0.360291	
-0.360352	
-0.360474	
-0.360962	
-0.362427	
-0.362244	
-0.361633	
-0.361938	
-0.361206	
-0.362854	
-0.36261	
-0.362244	
-0.363708	
-0.363586	
-0.363403	
-0.363403	
-0.364624	
-0.364319	
-0.363708	
-0.364807	
-0.363525	
-0.364319	
-0.36438	
-0.365295	
-0.364563	
-0.36499	
-0.364929	
-0.366577	
-0.366089	
-0.36554	
-0.365173	
-0.363647	
-0.364136	
-0.36438	
-0.364319	
-0.364258	
-0.364624	
-0.364685	
-0.364258	
-0.366028	
-0.365662	
-0.36499	
-0.36438	
-0.364685	
-0.36499	
-0.364685	
-0.36554	
-0.36554	
-0.365479	
-0.365967	
-0.366272	
-0.366516	
-0.366211	
-0.36615	
-0.36615	
-0.366455	
-0.367004	
-0.367249	
-0.368225	
-0.367676	
-0.36853	
-0.368408	
-0.368774	
-0.368347	
-0.36853	
-0.368591	
-0.367676	
-0.36792	
-0.368896	
-0.370117	
-0.369873	
-0.369812	
-0.369934	
-0.370239	
-0.371216	
-0.371216	
-0.371277	
-0.370605	
-0.370789	
-0.371887	
-0.372253	
-0.372803	
-0.373108	
-0.373047	
-0.373474	
-0.374146	
-0.374084	
-0.373474	
-0.373596	
-0.374084	
-0.37384	
-0.374329	
-0.374512	
-0.374084	
-0.37439	
-0.373962	
-0.374573	
-0.373962	
-0.374084	
-0.373779	
-0.373657	
-0.373169	
-0.373047	
-0.373962	
-0.374329	
-0.374451	
-0.374268	
-0.375366	
-0.375549	
-0.376282	
-0.376709	
-0.37561	
-0.377014	
-0.377991	
-0.377502	
-0.378723	
-0.378418	
-0.378845	
-0.379639	
-0.380188	
-0.379578	
-0.380493	
-0.381042	
-0.380371	
-0.380432	
-0.381104	
-0.38147	
-0.381226	
-0.381592	
-0.380615	
-0.381897	
-0.381653	
-0.381714	
-0.380676	
-0.381165	
-0.380981	
-0.38147	
-0.382019	
-0.381165	
-0.381653	
-0.381531	
-0.382019	
-0.382019	
-0.381531	
-0.381348	
-0.38147	
-0.381226	
-0.380737	
-0.379456	
-0.380005	
-0.380371	
-0.380615	
-0.3797	
-0.381531	
-0.381226	
-0.380798	
-0.380859	
-0.381104	
-0.380493	
-0.380188	
-0.379395	
-0.380432	
-0.380493	
-0.380615	
-0.379517	
-0.381165	
-0.380371	
-0.379944	
-0.379211	
-0.380005	
-0.378845	
-0.378601	
-0.379211	
-0.378723	
-0.379089	
-0.378113	
-0.379333	
-0.378479	
-0.378662	
-0.378662	
-0.37738	
-0.378052	
-0.378113	
-0.377441	
-0.377625	
-0.377991	
-0.377991	
-0.377686	
-0.379272	
-0.378235	
-0.378723	
-0.378601	
-0.378967	
-0.379395	
-0.378906	
-0.378479	
-0.379272	
-0.3797	
-0.379639	
-0.380371	
-0.3797	
-0.379883	
-0.3797	
-0.380066	
-0.380127	
-0.380188	
-0.38031	
-0.3797	
-0.380737	
-0.381348	
-0.381714	
-0.382202	
-0.382019	
-0.381836	
-0.381104	
-0.383057	
-0.383118	
-0.382996	
-0.382874	
-0.383423	
-0.383728	
-0.384033	
-0.385315	
-0.384583	
-0.384583	
-0.38446	
-0.386475	
-0.387024	
-0.387207	
-0.386658	
-0.387268	
-0.386963	
-0.387024	
-0.386902	
-0.387329	
-0.386719	
-0.386108	
-0.386353	
-0.386475	
-0.386414	
-0.386169	
-0.385742	
-0.386658	
-0.386841	
-0.386169	
-0.387878	
-0.386353	
-0.386475	
-0.38623	
-0.387634	
-0.386475	
-0.386353	
-0.386047	
-0.386353	
-0.38678	
-0.386719	
-0.386719	
-0.387817	
-0.386963	
-0.387573	
-0.387756	
-0.387329	
-0.387634	
-0.387207	
-0.386292	
-0.387573	
-0.388	
-0.387878	
-0.386719	
-0.387329	
-0.387268	
-0.386536	
-0.386719	
-0.387024	
-0.38678	
-0.385986	
-0.386658	
-0.386536	
-0.386353	
-0.386597	
-0.386902	
-0.386292	
-0.386047	
-0.385315	
-0.387634	
-0.386963	
-0.386475	
-0.386047	
-0.385986	
-0.386536	
-0.386719	
-0.38678	
-0.387634	
-0.386841	
-0.386902	
-0.38739	
-0.387756	
-0.387512	
-0.387268	
-0.386047	
-0.387695	
-0.387634	
-0.387939	
-0.385742	
-0.386536	
-0.386169	
-0.385681	
-0.385254	
-0.385437	
-0.385254	
-0.38501	
-0.385315	
-0.384521	
-0.384216	
-0.384399	
-0.384521	
-0.383301	
-0.383423	
-0.383118	
-0.384338	
-0.38324	
-0.383179	
-0.382629	
-0.38385	
-0.383301	
-0.383545	
-0.38269	
-0.383911	
-0.383667	
-0.383545	
-0.384155	
-0.38385	
-0.384583	
-0.384277	
-0.383179	
-0.384705	
-0.385193	
-0.384644	
-0.384399	
-0.384949	
-0.384338	
-0.384949	
-0.386475	
-0.385132	
-0.385193	
-0.385193	
-0.386658	
-0.385925	
-0.386902	
-0.386108	
-0.386719	
-0.385986	
-0.386414	
-0.386902	
-0.387573	
-0.386658	
-0.387085	
-0.385986	
-0.387634	
-0.387695	
-0.388062	
-0.388184	
-0.388672	
-0.388245	
-0.388916	
-0.389954	
-0.390198	
-0.390747	
-0.390259	
-0.389771	
-0.389893	
-0.390747	
-0.389832	
-0.389954	
-0.390137	
-0.390686	
-0.390686	
-0.392212	
-0.390991	
-0.390991	
-0.390381	
-0.391174	
-0.390564	
-0.391174	
-0.390259	
-0.390198	
-0.389832	
-0.390076	
-0.38916	
-0.391113	
-0.389526	
-0.389282	
-0.389099	
-0.39032	
-0.389832	
-0.389832	
-0.389465	
-0.389954	
-0.38855	
-0.389221	
-0.388489	
-0.390015	
-0.388977	
-0.388916	
-0.387695	
-0.389526	
-0.389404	
-0.38855	
-0.388733	
-0.388428	
-0.388306	
-0.388611	
-0.389221	
-0.388428	
-0.387695	
-0.387634	
-0.387146	
-0.388	
-0.388245	
-0.388245	
-0.387085	
-0.387634	
-0.388184	
-0.387878	
-0.389526	
-0.388489	
-0.388428	
-0.387634	
-0.388611	
-0.389099	
-0.38916	
-0.38855	
-0.389038	
-0.388	
-0.389587	
-0.388672	
-0.390381	
-0.388916	
-0.389282	
-0.388489	
-0.389526	
-0.389465	
-0.388367	
-0.388489	
-0.387024	
-0.387085	
-0.386658	
-0.388062	
-0.385681	
-0.385864	
-0.385681	
-0.384644	
-0.386414	
-0.385376	
-0.385376	
-0.385864	
-0.383484	
-0.384399	
-0.384399	
-0.386047	
-0.384338	
-0.384216	
-0.384338	
-0.38446	
-0.384766	
-0.384338	
-0.384949	
-0.384033	
-0.385132	
-0.385376	
-0.385132	
-0.387024	
-0.385803	
-0.38562	
-0.384949	
-0.38678	
-0.386292	
-0.386536	
-0.386536	
-0.384399	
-0.386658	
-0.387085	
-0.387146	
-0.387024	
-0.387268	
-0.387085	
-0.385986	
-0.389099	
-0.387451	
-0.387207	
-0.388	
-0.387512	
-0.388	
-0.388245	
-0.389282	
-0.388306	
-0.388733	
-0.388306	
-0.389038	
-0.390503	
-0.389954	
-0.390503	
-0.390564	
-0.391235	
-0.391113	
-0.391479	
-0.393677	
-0.391785	
-0.391785	
-0.391052	
-0.391541	
-0.391602	
-0.391846	
-0.392029	
-0.390442	
-0.391907	
-0.392517	
-0.392883	
-0.393311	
-0.392151	
-0.392273	
-0.391418	
-0.393494	
-0.391846	
-0.392456	
-0.392517	
-0.391235	
-0.391846	
-0.392029	
-0.391418	
-0.392273	
-0.391724	
-0.391418	
-0.390015	
-0.393494	
-0.392212	
-0.391968	
-0.391724	
-0.391724	
-0.391663	
-0.391479	
-0.39093	
-0.390869	
-0.390869	
-0.390015	
-0.389587	
-0.391052	
-0.390442	
-0.389771	
-0.388977	
-0.389771	
-0.389771	
-0.389648	
-0.390198	
-0.388977	
-0.388916	
-0.388977	
-0.389832	
-0.388977	
-0.387939	
-0.387634	
-0.386108	
-0.38739	
-0.387207	
-0.386841	
-0.388855	
-0.38739	
-0.387329	
-0.387085	
-0.38855	
-0.387268	
-0.38739	
-0.387634	
-0.387512	
-0.387878	
-0.387756	
-0.387573	
-0.388733	
-0.387817	
-0.388	
-0.38739	
-0.389404	
-0.387756	
-0.388245	
-0.387634	
-0.388306	
-0.388123	
-0.388367	
-0.387756	
-0.388855	
-0.388062	
-0.388	
-0.386963	
-0.388306	
-0.387878	
-0.387451	
-0.38623	
-0.387268	
-0.387512	
-0.387329	
-0.388	
-0.38739	
-0.387329	
-0.387512	
-0.388611	
-0.388855	
-0.38855	
-0.388062	
-0.388611	
-0.38916	
-0.388977	
-0.388672	
-0.389832	
-0.38916	
-0.389282	
-0.388977	
-0.389954	
-0.389221	
-0.389404	
-0.389282	
-0.390808	
-0.390076	
-0.389709	
-0.389648	
-0.390503	
-0.389343	
-0.388672	
-0.387634	
-0.39032	
-0.388672	
-0.388977	
-0.388	
-0.388977	
-0.388245	
-0.388672	
-0.389221	
-0.389954	
-0.389709	
-0.390198	
-0.389648	
-0.391846	
-0.391296	
-0.390808	
-0.390381	
-0.392151	
-0.391785	
-0.392273	
-0.392944	
-0.393555	
-0.392883	
-0.392822	
-0.393005	
-0.393494	
-0.393555	
-0.393188	
-0.391846	
-0.393005	
-0.393372	
-0.393677	
-0.393982	
-0.393433	
-0.393188	
-0.392578	
-0.3927	
-0.3927	
-0.392761	
-0.391968	
-0.391235	
-0.392517	
-0.392517	
-0.39209	
-0.392334	
-0.391907	
-0.391907	
-0.392029	
-0.392517	
-0.391663	
-0.391663	
-0.391418	
-0.391235	
-0.391174	
-0.391052	
-0.391052	
-0.391235	
-0.390869	
-0.390747	
-0.389771	
-0.391602	
-0.390686	
-0.390015	
-0.390198	
-0.390686	
-0.390381	
-0.389832	
-0.390442	
-0.390747	
-0.389709	
-0.388733	
-0.387634	
-0.389526	
-0.387573	
-0.387634	
-0.387573	
-0.388367	
-0.387878	
-0.387939	
-0.387939	
-0.387024	
-0.38739	
-0.387146	
-0.385498	
-0.387451	
-0.38678	
-0.386963	
-0.385681	
-0.387573	
-0.387146	
-0.387634	
-0.388062	
-0.387146	
-0.387634	
-0.387207	
-0.387878	
-0.387817	
-0.388062	
-0.387451	
-0.387207	
-0.388672	
-0.388306	
-0.388306	
-0.387817	
-0.388367	
-0.38916	
-0.388123	
-0.389587	
-0.388916	
-0.388733	
-0.388306	
-0.388062	
-0.388672	
-0.389221	
-0.389221	
-0.388733	
-0.389526	
-0.388977	
-0.388611	
-0.389954	
-0.390076	
-0.390259	
-0.389465	
-0.39032	
-0.390442	
-0.390381	
-0.390991	
-0.390808	
-0.39032	
-0.390442	
-0.390869	
-0.390686	
-0.390564	
-0.390259	
-0.388428	
-0.391357	
-0.389954	
-0.389465	
-0.389404	
-0.390015	
-0.388977	
-0.388611	
-0.389099	
-0.38916	
-0.389038	
-0.389648	
-0.388367	
-0.391113	
-0.390381	
-0.39093	
-0.392029	
-0.392578	
-0.391724	
-0.39209	
-0.393372	
-0.392395	
-0.392517	
-0.392456	
-0.393372	
-0.393066	
-0.393066	
-0.393555	
-0.393738	
-0.39447	
-0.393799	
-0.394104	
-0.39502	
-0.393982	
-0.393799	
-0.393616	
-0.394226	
-0.393921	
-0.393738	
-0.393188	
-0.392761	
-0.394043	
-0.392883	
-0.392639	
-0.393311	
-0.392883	
-0.392334	
-0.391602	
-0.392456	
-0.392334	
-0.392273	
-0.391785	
-0.391663	
-0.391663	
-0.391907	
-0.391357	
-0.390015	
-0.391479	
-0.39093	
-0.388733	
-0.391418	
-0.390808	
-0.390686	
-0.390686	
-0.390747	
-0.39032	
-0.390076	
-0.389954	
-0.389587	
-0.389709	
-0.389832	
-0.388489	
-0.390381	
-0.389221	
-0.38916	
-0.388855	
-0.388794	
-0.387451	
-0.387756	
-0.387817	
-0.387024	
-0.387146	
-0.387085	
-0.387268	
-0.387573	
-0.386841	
-0.386353	
-0.385681	
-0.38678	
-0.386414	
-0.38623	
-0.386902	
-0.385559	
-0.386353	
-0.385986	
-0.386536	
-0.385803	
-0.386047	
-0.386353	
-0.386841	
-0.388123	
-0.38678	
-0.386963	
-0.387634	
-0.387085	
-0.387207	
-0.385986	
-0.38739	
-0.387146	
-0.386963	
-0.387512	
-0.388062	
-0.388062	
-0.387878	
-0.388184	
-0.388	
-0.388611	
-0.388062	
-0.387573	
-0.390015	
-0.389343	
-0.389038	
-0.389404	
-0.390381	
-0.390625	
-0.390015	
-0.390869	
-0.39093	
-0.390259	
-0.390381	
-0.390869	
-0.392517	
-0.392456	
-0.392639	
-0.392517	
-0.393921	
-0.392944	
-0.393066	
-0.39325	
-0.391602	
-0.392029	
-0.392029	
-0.391296	
-0.392395	
-0.391541	
-0.392151	
-0.391663	
-0.392334	
-0.391663	
-0.391663	
-0.391907	
-0.391235	
-0.391663	
-0.390808	
-0.391357	
-0.391785	
-0.391663	
-0.391174	
-0.391418	
-0.392273	
-0.391602	
-0.391785	
-0.390869	
-0.391541	
-0.391846	
-0.390503	
-0.391235	
-0.392456	
-0.392456	
-0.392151	
-0.391296	
-0.392822	
-0.391968	
-0.391968	
-0.391235	
-0.390686	
-0.391357	
-0.390381	
-0.390747	
-0.391357	
-0.39093	
-0.390625	
-0.39093	
-0.391846	
-0.39093	
-0.391235	
-0.390991	
-0.390381	
-0.390442	
-0.390686	
-0.390991	
-0.390808	
-0.390747	
-0.390076	
-0.391113	
-0.391113	
-0.390442	
-0.391357	
-0.391907	
-0.390625	
-0.391113	
-0.39093	
-0.391907	
-0.391724	
-0.391418	
-0.391663	
-0.392273	
-0.392212	
-0.391052	
-0.391357	
-0.390564	
-0.389771	
-0.389282	
-0.388916	
-0.389587	
-0.388733	
-0.388184	
-0.38855	
-0.388916	
-0.388367	
-0.387695	
-0.387207	
-0.386902	
-0.386719	
-0.385742	
-0.386536	
-0.386963	
-0.387024	
-0.386475	
-0.386536	
-0.387146	
-0.387451	
-0.386658	
-0.386536	
-0.38739	
-0.387024	
-0.386475	
-0.387756	
-0.388367	
-0.387695	
-0.387451	
-0.387573	
-0.388489	
-0.388184	
-0.388489	
-0.388062	
-0.387451	
-0.388062	
-0.388306	
-0.387268	
-0.38855	
-0.388489	
-0.388611	
-0.38916	
-0.390015	
-0.390015	
-0.389832	
-0.388916	
-0.389282	
-0.389587	
-0.390076	
-0.389893	
-0.389709	
-0.389893	
-0.390076	
-0.390259	
-0.390686	
-0.391052	
-0.391968	
-0.391968	
-0.391785	
-0.392822	
-0.393372	
-0.393921	
-0.392944	
-0.393127	
-0.393005	
-0.39325	
-0.393738	
-0.393311	
-0.393494	
-0.393066	
-0.392151	
-0.392334	
-0.393555	
-0.392944	
-0.393738	
-0.393372	
-0.3927	
-0.393433	
-0.394287	
-0.3927	
-0.392273	
-0.391785	
-0.392456	
-0.391541	
-0.392212	
-0.392395	
-0.391785	
-0.392456	
-0.391113	
-0.392029	
-0.392334	
-0.392273	
-0.391113	
-0.390747	
-0.391602	
-0.391785	
-0.391541	
-0.391602	
-0.391724	
-0.391602	
-0.391174	
-0.391479	
-0.391479	
-0.391541	
-0.390808	
-0.390198	
-0.390015	
-0.389832	
-0.390503	
-0.390259	
-0.390076	
-0.389526	
-0.390015	
-0.390259	
-0.390442	
-0.391174	
-0.390442	
-0.388367	
-0.390381	
-0.39032	
-0.390198	
-0.390198	
-0.390747	
-0.39032	
-0.390808	
-0.391235	
-0.391541	
-0.391113	
-0.391663	
-0.389404	
-0.390198	
-0.391418	
-0.391113	
-0.390442	
-0.390564	
-0.390442	
-0.390076	
-0.390076	
-0.388916	
-0.389343	
-0.38916	
-0.387268	
-0.387146	
-0.387695	
-0.388306	
-0.387634	
-0.386963	
-0.386902	
-0.387146	
-0.387817	
-0.38678	
-0.385925	
-0.387024	
-0.384094	
-0.385803	
-0.386292	
-0.386658	
-0.386169	
-0.38623	
-0.386169	
-0.386902	
-0.387634	
-0.387939	
-0.387451	
-0.387207	
-0.386353	
-0.386963	
-0.387329	
-0.387939	
-0.388123	
-0.388367	
-0.388062	
-0.388428	
-0.389771	
-0.389343	
-0.389282	
-0.389282	
-0.387878	
-0.388672	
-0.38916	
-0.389771	
-0.389465	
-0.388916	
-0.388916	
-0.389709	
-0.391174	
-0.390259	
-0.390564	
-0.390564	
-0.388428	
-0.390503	
-0.390503	
-0.391418	
-0.391235	
-0.391785	
-0.391907	
-0.393066	
-0.39447	
-0.393799	
-0.393738	
-0.393127	
-0.3927	
-0.392822	
-0.392517	
-0.393494	
-0.393372	
-0.393494	
-0.392517	
-0.394287	
-0.396057	
-0.394043	
-0.393982	
-0.393799	
-0.393188	
-0.393616	
-0.394165	
-0.394043	
-0.393494	
-0.394165	
-0.393372	
-0.393921	
-0.394714	
-0.393555	
-0.393311	
-0.392639	
-0.392517	
-0.393799	
-0.392883	
-0.393433	
-0.393311	
-0.393005	
-0.39209	
-0.394287	
-0.39502	
-0.392456	
-0.392822	
-0.391296	
-0.391907	
-0.391663	
-0.390808	
-0.391479	
-0.391418	
-0.391357	
-0.390381	
-0.392029	
-0.392273	
-0.390503	
-0.391052	
-0.389954	
-0.389832	
-0.390198	
-0.390381	
-0.389648	
-0.389465	
-0.38916	
-0.387817	
-0.389832	
-0.389709	
-0.388184	
-0.388245	
-0.388245	
-0.388916	
-0.387939	
-0.388672	
-0.388733	
-0.38855	
-0.388123	
-0.387573	
-0.390137	
-0.390869	
-0.388794	
-0.389709	
-0.388611	
-0.389221	
-0.388611	
-0.389221	
-0.388733	
-0.389221	
-0.389099	
-0.389221	
-0.389954	
-0.390259	
-0.389526	
-0.38855	
-0.388367	
-0.388794	
-0.387939	
-0.389221	
-0.388855	
-0.388855	
-0.388733	
-0.388184	
-0.389099	
-0.389832	
-0.388794	
-0.387634	
-0.388245	
-0.389221	
-0.388245	
-0.390076	
-0.388977	
-0.389526	
-0.389282	
-0.390137	
-0.390076	
-0.390747	
-0.389832	
-0.389832	
-0.389893	
-0.39032	
-0.390015	
-0.391357	
-0.390869	
-0.390808	
-0.390686	
-0.391541	
-0.39093	
-0.391418	
-0.390747	
-0.389221	
-0.389099	
-0.388855	
-0.389282	
-0.390137	
-0.389465	
-0.389282	
-0.389343	
-0.390076	
-0.389709	
-0.390686	
-0.390686	
-0.390381	
-0.390076	
-0.391602	
-0.391968	
-0.391907	
-0.392517	
-0.391846	
-0.391724	
-0.393738	
-0.39386	
-0.394165	
-0.394104	
-0.39325	
-0.392334	
-0.393616	
-0.394409	
-0.394348	
-0.393616	
-0.39386	
-0.39386	
-0.394348	
-0.394348	
-0.394409	
-0.393494	
-0.393677	
-0.391907	
-0.393555	
-0.393066	
-0.393372	
-0.393066	
-0.392944	
-0.392212	
-0.392517	
-0.393494	
-0.39325	
-0.391785	
-0.392883	
-0.391479	
-0.391174	
-0.392517	
-0.392456	
-0.391846	
-0.391357	
-0.391418	
-0.391602	
-0.392273	
-0.391541	
-0.390686	
-0.390747	
-0.388916	
-0.390808	
-0.391235	
-0.391113	
-0.390686	
-0.390381	
-0.389282	
-0.390381	
-0.391174	
-0.390625	
-0.388977	
-0.389221	
-0.388184	
-0.387939	
-0.388306	
-0.388306	
-0.388062	
-0.387878	
-0.387512	
-0.387939	
-0.38855	
-0.387634	
-0.386475	
-0.387268	
-0.386353	
-0.386169	
-0.387573	
-0.386902	
-0.38678	
-0.387024	
-0.387573	
-0.387451	
-0.388428	
-0.388123	
-0.387512	
-0.387695	
-0.38739	
-0.387878	
-0.388977	
-0.388245	
-0.388428	
-0.388489	
-0.388855	
-0.388611	
-0.389832	
-0.389648	
-0.389099	
-0.387878	
-0.388184	
-0.388733	
-0.389221	
-0.388916	
-0.388916	
-0.388794	
-0.389648	
-0.389465	
-0.390747	
-0.390503	
-0.389893	
-0.389404	
-0.389648	
-0.390442	
-0.390564	
-0.390137	
-0.390381	
-0.390442	
-0.390381	
-0.390503	
-0.391418	
-0.39032	
-0.390564	
-0.389832	
-0.39032	
-0.390076	
-0.391052	
-0.390076	
-0.389832	
-0.389954	
-0.390137	
-0.389404	
-0.390503	
-0.390076	
-0.388977	
-0.388123	
-0.388123	
-0.389221	
-0.390381	
-0.389832	
-0.39032	
-0.390503	
-0.390686	
-0.392029	
-0.392029	
-0.391418	
-0.391663	
-0.392151	
-0.391724	
-0.392273	
-0.393555	
-0.392883	
-0.392822	
-0.393555	
-0.394287	
-0.39447	
-0.394653	
-0.393311	
-0.393799	
-0.392334	
-0.393372	
-0.394043	
-0.39447	
-0.393921	
-0.393616	
-0.393677	
-0.393005	
-0.39386	
-0.394104	
-0.391418	
-0.392395	
-0.392273	
-0.391418	
-0.392334	
-0.393066	
-0.391541	
-0.392273	
-0.392212	
-0.392151	
-0.392456	
-0.392395	
-0.390381	
-0.391113	
-0.391113	
-0.390747	
-0.391296	
-0.390869	
-0.390442	
-0.390625	
-0.391296	
-0.390198	
-0.390381	
-0.390747	
-0.390137	
-0.389221	
-0.389648	
-0.38916	
-0.389832	
-0.390259	
-0.389221	
-0.38916	
-0.389221	
-0.388123	
-0.387634	
-0.387634	
-0.386597	
-0.386597	
-0.386597	
-0.386841	
-0.386841	
-0.387512	
-0.386963	
-0.386414	
-0.386292	
-0.386292	
-0.386108	
-0.386292	
-0.386108	
-0.385193	
-0.385376	
-0.385498	
-0.386169	
-0.386414	
-0.385742	
-0.386169	
-0.386658	
-0.386536	
-0.386902	
-0.386597	
-0.387085	
-0.386658	
-0.386108	
-0.385803	
-0.386841	
-0.386536	
-0.386414	
-0.386963	
-0.387268	
-0.386963	
-0.387512	
-0.387207	
-0.387268	
-0.386902	
-0.387451	
-0.387329	
-0.388733	
-0.388428	
-0.388611	
-0.388672	
-0.388855	
-0.390076	
-0.389282	
-0.389526	
-0.389587	
-0.389832	
-0.388855	
-0.389954	
-0.391052	
-0.391296	
-0.391052	
-0.391846	
-0.392456	
-0.393005	
-0.393372	
-0.392578	
-0.391968	
-0.391357	
-0.391357	
-0.390869	
-0.391968	
-0.391113	
-0.391602	
-0.391541	
-0.39032	
-0.391296	
-0.391541	
-0.39093	
-0.390564	
-0.390808	
-0.390869	
-0.390259	
-0.391479	
-0.390564	
-0.390442	
-0.390442	
-0.391296	
-0.390869	
	
