E:\DOCUMENTS AND SETTINGS\JPOTAS\MEUS DOCUMENTOS\UFRJ\RSCI-BM 12 WK SERIES\070719-RSCI-BM-02\RSCI-BM-02-REMG\070719-RSCI-BM-02-REMG-0010.ACQ
0.025000 msec/sample
1 channel
Analog input
Volts
CH1	
2000	
-0.393311	
-0.393433	
-0.393188	
-0.394531	
-0.393921	
-0.393799	
-0.393372	
-0.39325	
-0.39325	
-0.394043	
-0.393616	
-0.393311	
-0.392456	
-0.393799	
-0.393433	
-0.39386	
-0.392944	
-0.394226	
-0.392822	
-0.393616	
-0.392761	
-0.393677	
-0.39386	
-0.39447	
-0.396423	
-0.394714	
-0.394592	
-0.393433	
-0.394897	
-0.395142	
-0.395386	
-0.395142	
-0.394836	
-0.394287	
-0.395508	
-0.395264	
-0.395508	
-0.394836	
-0.395203	
-0.393738	
-0.39563	
-0.394775	
-0.394897	
-0.39447	
-0.395203	
-0.395569	
-0.394958	
-0.394348	
-0.394348	
-0.394043	
-0.39386	
-0.393005	
-0.393677	
-0.393494	
-0.394043	
-0.395813	
-0.394043	
-0.393921	
-0.3927	
-0.393127	
-0.393555	
-0.393799	
-0.39325	
-0.3927	
-0.392212	
-0.393188	
-0.392334	
-0.392944	
-0.391968	
-0.393127	
-0.391602	
-0.393677	
-0.393311	
-0.393494	
-0.393433	
-0.394226	
-0.395325	
-0.39502	
-0.394592	
-0.393555	
-0.394348	
-0.394775	
-0.394287	
-0.39502	
-0.395081	
-0.394836	
-0.395874	
-0.395203	
-0.395081	
-0.394348	
-0.394592	
-0.395081	
-0.396179	
-0.394958	
-0.394836	
-0.394348	
-0.395386	
-0.394958	
-0.395447	
-0.394409	
-0.39447	
-0.393311	
-0.394836	
-0.394775	
-0.394958	
-0.394653	
-0.395081	
-0.396362	
-0.395569	
-0.394897	
-0.39447	
-0.394714	
-0.394531	
-0.394409	
-0.39447	
-0.394226	
-0.394226	
-0.395508	
-0.394592	
-0.394226	
-0.393921	
-0.393616	
-0.393616	
-0.394226	
-0.393677	
-0.393127	
-0.392578	
-0.393066	
-0.394348	
-0.393188	
-0.392456	
-0.391663	
-0.391968	
-0.392944	
-0.393005	
-0.3927	
-0.392578	
-0.392761	
-0.393921	
-0.39386	
-0.39325	
-0.393494	
-0.392517	
-0.393738	
-0.392822	
-0.393066	
-0.393188	
-0.393433	
-0.393738	
-0.393921	
-0.393372	
-0.394226	
-0.393005	
-0.393982	
-0.394043	
-0.393433	
-0.393127	
-0.392212	
-0.393677	
-0.395203	
-0.393677	
-0.393555	
-0.391968	
-0.393921	
-0.394043	
-0.393677	
-0.39386	
-0.393616	
-0.39386	
-0.394775	
-0.39447	
-0.393616	
-0.393921	
-0.392334	
-0.393677	
-0.392883	
-0.393921	
-0.393311	
-0.39386	
-0.393921	
-0.395203	
-0.393921	
-0.394653	
-0.393738	
-0.395081	
-0.395386	
-0.395142	
-0.395081	
-0.394653	
-0.395874	
-0.397278	
-0.395691	
-0.395874	
-0.394409	
-0.39563	
-0.395874	
-0.395325	
-0.393127	
-0.391663	
-0.391479	
-0.392212	
-0.392761	
-0.391663	
-0.394348	
-0.393921	
-0.395264	
-0.394348	
-0.394897	
-0.394775	
-0.394958	
-0.394958	
-0.397034	
-0.394653	
-0.395142	
-0.392883	
-0.395447	
-0.395996	
-0.395874	
-0.395691	
-0.395203	
-0.39624	
-0.39624	
-0.396057	
-0.395691	
-0.395996	
-0.396057	
-0.396301	
-0.395386	
-0.396179	
-0.396301	
-0.396545	
-0.397644	
-0.398438	
-0.397217	
-0.397705	
-0.39679	
-0.397827	
-0.398132	
-0.398438	
-0.398132	
-0.398254	
-0.397827	
-0.399536	
-0.397705	
-0.397522	
-0.395813	
-0.397522	
-0.397583	
-0.39679	
-0.396301	
-0.395142	
-0.396606	
-0.396301	
-0.39563	
-0.394775	
-0.394775	
-0.393188	
-0.39325	
-0.392029	
-0.391907	
-0.39093	
-0.390503	
-0.390503	
-0.391602	
-0.389099	
-0.388428	
-0.385437	
-0.387451	
-0.386292	
-0.386292	
-0.385559	
-0.38501	
-0.384949	
-0.385437	
-0.384216	
-0.383728	
-0.383484	
-0.383423	
-0.383057	
-0.382446	
-0.383362	
-0.384094	
-0.384521	
-0.385193	
-0.38562	
-0.38623	
-0.387634	
-0.387756	
-0.389099	
-0.387939	
-0.389465	
-0.389343	
-0.391174	
-0.392944	
-0.395935	
-0.395752	
-0.397888	
-0.396973	
-0.401367	
-0.401917	
-0.403137	
-0.403442	
-0.405396	
-0.407166	
-0.409912	
-0.409668	
-0.41156	
-0.411926	
-0.41626	
-0.418579	
-0.42218	
-0.425476	
-0.429749	
-0.434753	
-0.440308	
-0.442566	
-0.446777	
-0.448608	
-0.454773	
-0.457642	
-0.460693	
-0.462524	
-0.465881	
-0.468506	
-0.472412	
-0.473145	
-0.475281	
-0.475769	
-0.480042	
-0.480957	
-0.483032	
-0.484375	
-0.48645	
-0.488281	
-0.490906	
-0.491455	
-0.492798	
-0.49292	
-0.494751	
-0.495117	
-0.495972	
-0.49646	
-0.497192	
-0.497009	
-0.498169	
-0.497803	
-0.49707	
-0.496338	
-0.496338	
-0.4953	
-0.494446	
-0.493469	
-0.492432	
-0.491699	
-0.491272	
-0.491028	
-0.488464	
-0.487915	
-0.484436	
-0.483643	
-0.480652	
-0.479675	
-0.477417	
-0.475281	
-0.473267	
-0.472168	
-0.46759	
-0.465942	
-0.461243	
-0.460632	
-0.456482	
-0.453918	
-0.450867	
-0.449768	
-0.44751	
-0.447144	
-0.444153	
-0.442993	
-0.439758	
-0.441406	
-0.43866	
-0.438477	
-0.437134	
-0.437317	
-0.436768	
-0.436523	
-0.434265	
-0.433044	
-0.430176	
-0.429565	
-0.427917	
-0.426025	
-0.424438	
-0.422729	
-0.42041	
-0.418518	
-0.416626	
-0.413147	
-0.410583	
-0.407166	
-0.403748	
-0.400024	
-0.397217	
-0.393433	
-0.389771	
-0.386108	
-0.383911	
-0.378235	
-0.375488	
-0.370056	
-0.369019	
-0.364502	
-0.362	
-0.357849	
-0.356323	
-0.353943	
-0.351929	
-0.349915	
-0.346863	
-0.343445	
-0.342163	
-0.340759	
-0.339722	
-0.338135	
-0.338684	
-0.338989	
-0.339905	
-0.340576	
-0.341064	
-0.341736	
-0.342651	
-0.344177	
-0.345459	
-0.345459	
-0.347595	
-0.348816	
-0.350647	
-0.351868	
-0.352173	
-0.353027	
-0.35437	
-0.355652	
-0.356812	
-0.356873	
-0.358948	
-0.360168	
-0.362366	
-0.36377	
-0.364807	
-0.36554	
-0.366333	
-0.368225	
-0.369385	
-0.369507	
-0.371582	
-0.372681	
-0.373718	
-0.375488	
-0.375549	
-0.376221	
-0.376892	
-0.378113	
-0.37854	
-0.378174	
-0.379456	
-0.379944	
-0.380493	
-0.381042	
-0.380493	
-0.379578	
-0.380371	
-0.380493	
-0.380188	
-0.379517	
-0.379944	
-0.379944	
-0.380127	
-0.380005	
-0.379456	
-0.378967	
-0.379333	
-0.378845	
-0.378906	
-0.378113	
-0.378967	
-0.378723	
-0.378906	
-0.380066	
-0.378662	
-0.378296	
-0.377136	
-0.378174	
-0.378479	
-0.378784	
-0.378906	
-0.378479	
-0.378784	
-0.379456	
-0.377747	
-0.377258	
-0.375671	
-0.377869	
-0.377258	
-0.377197	
-0.377563	
-0.377563	
-0.377869	
-0.37915	
-0.377991	
-0.378235	
-0.376587	
-0.377808	
-0.378052	
-0.378601	
-0.378601	
-0.378418	
-0.378845	
-0.380798	
-0.379333	
-0.37915	
-0.376831	
-0.379272	
-0.379333	
-0.379517	
-0.379944	
-0.380127	
-0.380493	
-0.383057	
-0.381226	
-0.38147	
-0.378235	
-0.381409	
-0.381287	
-0.38208	
-0.382935	
-0.382874	
-0.383179	
-0.385803	
-0.383972	
-0.384216	
-0.382141	
-0.384338	
-0.384338	
-0.384827	
-0.385254	
-0.385193	
-0.385071	
-0.385803	
-0.384827	
-0.385376	
-0.383606	
-0.383789	
-0.383545	
-0.383484	
-0.383606	
-0.383606	
-0.383667	
-0.384583	
-0.383911	
-0.384033	
-0.383484	
-0.383789	
-0.382629	
-0.383362	
-0.383179	
-0.383301	
-0.38269	
-0.383118	
-0.383484	
-0.383423	
-0.382263	
-0.381348	
-0.38147	
-0.382751	
-0.383057	
-0.383484	
-0.383545	
-0.383667	
-0.38446	
-0.384216	
-0.38385	
-0.382935	
-0.38269	
-0.383057	
-0.384094	
-0.383972	
-0.38385	
-0.384521	
-0.386414	
-0.385071	
-0.385742	
-0.382446	
-0.384277	
-0.384033	
-0.385254	
-0.38501	
-0.385315	
-0.385376	
-0.386597	
-0.385681	
-0.385864	
-0.384705	
-0.384888	
-0.384705	
-0.385071	
-0.38562	
-0.385315	
-0.38562	
-0.385986	
-0.386658	
-0.386047	
-0.385681	
-0.384521	
-0.385559	
-0.385864	
-0.386169	
-0.386475	
-0.386475	
-0.386597	
-0.387939	
-0.386963	
-0.385925	
-0.384888	
-0.385254	
-0.386841	
-0.386108	
-0.386353	
-0.386475	
-0.38678	
-0.387451	
-0.387756	
-0.386597	
-0.385315	
-0.385132	
-0.38562	
-0.385742	
-0.385986	
-0.386414	
-0.386414	
-0.386536	
-0.387085	
-0.387207	
-0.386047	
-0.386292	
-0.386169	
-0.387512	
-0.387634	
-0.387146	
-0.387268	
-0.387939	
-0.389526	
-0.388428	
-0.387573	
-0.384521	
-0.387085	
-0.388123	
-0.388123	
-0.387939	
-0.388367	
-0.388428	
-0.39093	
-0.388977	
-0.388062	
-0.386169	
-0.387939	
-0.388977	
-0.389221	
-0.38916	
-0.389343	
-0.389587	
-0.390686	
-0.390137	
-0.389282	
-0.388184	
-0.388794	
-0.388977	
-0.389221	
-0.388855	
-0.389343	
-0.389221	
-0.390625	
-0.390198	
-0.389221	
-0.388367	
-0.388672	
-0.390015	
-0.390015	
-0.390015	
-0.390198	
-0.390503	
-0.391663	
-0.392334	
-0.390625	
-0.390442	
-0.389893	
-0.391296	
-0.391296	
-0.391846	
-0.391724	
-0.391357	
-0.392151	
-0.393616	
-0.391663	
-0.391052	
-0.389832	
-0.392212	
-0.391418	
-0.391479	
-0.39209	
-0.391846	
-0.392212	
-0.394043	
-0.391602	
-0.391052	
-0.388916	
-0.39093	
-0.391052	
-0.390869	
-0.390747	
-0.390381	
-0.391418	
-0.393311	
-0.390991	
-0.390869	
-0.388611	
-0.390808	
-0.390381	
-0.390625	
-0.390991	
-0.390442	
-0.390259	
-0.392029	
-0.390259	
-0.389587	
-0.388855	
-0.38916	
-0.389954	
-0.390259	
-0.390808	
-0.390991	
-0.391052	
-0.392517	
-0.393066	
-0.391785	
-0.391296	
-0.390625	
-0.392212	
-0.392273	
-0.392212	
-0.392273	
-0.392517	
-0.392822	
-0.394775	
-0.393005	
-0.392395	
-0.39032	
-0.392883	
-0.392578	
-0.392822	
-0.393066	
-0.393005	
-0.392944	
-0.39502	
-0.392761	
-0.392761	
-0.390381	
-0.393494	
-0.393066	
-0.392944	
-0.392944	
-0.392822	
-0.393188	
-0.395508	
-0.393555	
-0.393127	
-0.391418	
-0.393433	
-0.393372	
-0.393616	
-0.393616	
-0.393616	
-0.393433	
-0.394165	
-0.394226	
-0.393127	
-0.39209	
-0.392212	
-0.393005	
-0.392212	
-0.392517	
-0.392761	
-0.392517	
-0.393188	
-0.394409	
-0.391785	
-0.390869	
-0.388794	
-0.391602	
-0.391724	
-0.392212	
-0.392273	
-0.391785	
-0.392456	
-0.39447	
-0.39209	
-0.391541	
-0.389587	
-0.392395	
-0.392456	
-0.392334	
-0.3927	
-0.392334	
-0.392883	
-0.394104	
-0.392395	
-0.391724	
-0.391296	
-0.392944	
-0.393005	
-0.393066	
-0.392334	
-0.392395	
-0.393005	
-0.394043	
-0.392578	
-0.392639	
-0.391724	
-0.3927	
-0.393311	
-0.393127	
-0.392944	
-0.393005	
-0.393433	
-0.394287	
-0.394592	
-0.392944	
-0.392029	
-0.391663	
-0.393433	
-0.393616	
-0.393433	
-0.392944	
-0.393311	
-0.394409	
-0.395325	
-0.393372	
-0.392395	
-0.391418	
-0.393677	
-0.394348	
-0.394714	
-0.394897	
-0.394836	
-0.396484	
-0.397278	
-0.395691	
-0.394287	
-0.394348	
-0.395874	
-0.395813	
-0.396057	
-0.396057	
-0.395569	
-0.396545	
-0.397888	
-0.395935	
-0.394287	
-0.393433	
-0.394653	
-0.39502	
-0.395142	
-0.395203	
-0.395081	
-0.395508	
-0.396057	
-0.396606	
-0.394714	
-0.394653	
-0.393311	
-0.395081	
-0.394775	
-0.395325	
-0.395264	
-0.395935	
-0.396362	
-0.397339	
-0.396179	
-0.395996	
-0.39502	
-0.396057	
-0.39624	
-0.395996	
-0.395935	
-0.396484	
-0.396912	
-0.398132	
-0.39624	
-0.396545	
-0.395691	
-0.397339	
-0.397278	
-0.397644	
-0.398132	
-0.398071	
-0.398804	
-0.399841	
-0.39801	
-0.39624	
-0.39563	
-0.396545	
-0.396606	
-0.396545	
-0.396606	
-0.396484	
-0.397339	
-0.3974	
-0.397583	
-0.39563	
-0.395813	
-0.395142	
-0.396729	
-0.39624	
-0.396301	
-0.396851	
-0.397095	
-0.396973	
-0.39856	
-0.396545	
-0.396423	
-0.395142	
-0.397095	
-0.397095	
-0.397034	
-0.397217	
-0.397827	
-0.397705	
-0.398621	
-0.397644	
-0.397217	
-0.397156	
-0.39801	
-0.398071	
-0.398315	
-0.398193	
-0.398315	
-0.398621	
-0.399536	
-0.397949	
-0.398682	
-0.396851	
-0.398193	
-0.398376	
-0.398315	
-0.398621	
-0.398987	
-0.39978	
-0.399658	
-0.400513	
-0.397888	
-0.398071	
-0.396484	
-0.39917	
-0.399353	
-0.399292	
-0.399414	
-0.400513	
-0.400085	
-0.402161	
-0.398926	
-0.399292	
-0.397217	
-0.399353	
-0.39917	
-0.399353	
-0.399292	
-0.399536	
-0.399048	
-0.399536	
-0.398254	
-0.398315	
-0.397339	
-0.398376	
-0.398254	
-0.398071	
-0.398132	
-0.398438	
-0.398438	
-0.399231	
-0.398621	
-0.397827	
-0.397156	
-0.396912	
-0.398193	
-0.397827	
-0.397949	
-0.397949	
-0.398193	
-0.397949	
-0.395447	
-0.393311	
-0.393188	
-0.3927	
-0.39386	
-0.394043	
-0.397949	
-0.398132	
-0.398926	
-0.398315	
-0.39917	
-0.396973	
-0.397461	
-0.396606	
-0.398621	
-0.397888	
-0.397888	
-0.398376	
-0.398743	
-0.398254	
-0.399292	
-0.398499	
-0.397644	
-0.395752	
-0.396179	
-0.3974	
-0.396851	
-0.396545	
-0.396973	
-0.396362	
-0.397583	
-0.396484	
-0.396362	
-0.395447	
-0.396057	
-0.396484	
-0.396484	
-0.396484	
-0.396667	
-0.397339	
-0.396912	
-0.397522	
-0.395447	
-0.396118	
-0.395203	
-0.396362	
-0.396729	
-0.397278	
-0.397705	
-0.398499	
-0.398376	
-0.400269	
-0.398315	
-0.398926	
-0.397583	
-0.39917	
-0.399231	
-0.398865	
-0.398865	
-0.398926	
-0.39856	
-0.399536	
-0.398193	
-0.397034	
-0.395569	
-0.395813	
-0.396667	
-0.396057	
-0.395691	
-0.395447	
-0.395325	
-0.394531	
-0.393311	
-0.391479	
-0.390198	
-0.390198	
-0.389587	
-0.389221	
-0.388	
-0.387451	
-0.387878	
-0.386902	
-0.387634	
-0.385742	
-0.386902	
-0.386108	
-0.388733	
-0.389465	
-0.389771	
-0.390442	
-0.391907	
-0.392151	
-0.394775	
-0.394714	
-0.39502	
-0.395203	
-0.396973	
-0.399902	
-0.402344	
-0.403748	
-0.405823	
-0.407715	
-0.410522	
-0.411682	
-0.411926	
-0.413147	
-0.415466	
-0.418335	
-0.42041	
-0.423401	
-0.426453	
-0.429138	
-0.433533	
-0.436829	
-0.440186	
-0.444153	
-0.447937	
-0.452515	
-0.456787	
-0.461243	
-0.466003	
-0.470215	
-0.474304	
-0.478394	
-0.481323	
-0.484924	
-0.488037	
-0.492554	
-0.49585	
-0.499268	
-0.502686	
-0.504395	
-0.508057	
-0.509705	
-0.510864	
-0.512878	
-0.51416	
-0.516541	
-0.517456	
-0.518616	
-0.51947	
-0.519226	
-0.519836	
-0.519104	
-0.517761	
-0.51709	
-0.517029	
-0.516357	
-0.514771	
-0.513489	
-0.512756	
-0.51178	
-0.511108	
-0.508911	
-0.506104	
-0.50293	
-0.500488	
-0.498596	
-0.495239	
-0.492126	
-0.488037	
-0.485291	
-0.482788	
-0.478027	
-0.472412	
-0.466797	
-0.464661	
-0.462097	
-0.458862	
-0.455566	
-0.452576	
-0.450806	
-0.448853	
-0.445618	
-0.441833	
-0.439087	
-0.437317	
-0.435242	
-0.433472	
-0.431335	
-0.42926	
-0.42804	
-0.426758	
-0.424438	
-0.423096	
-0.420471	
-0.418396	
-0.416077	
-0.414063	
-0.41156	
-0.409424	
-0.406982	
-0.404724	
-0.402161	
-0.399292	
-0.395996	
-0.393311	
-0.390381	
-0.387207	
-0.38501	
-0.38147	
-0.378357	
-0.375427	
-0.373535	
-0.369507	
-0.365784	
-0.362122	
-0.360352	
-0.358215	
-0.356445	
-0.354187	
-0.352234	
-0.351257	
-0.350647	
-0.347656	
-0.345947	
-0.343079	
-0.343018	
-0.341064	
-0.34082	
-0.339233	
-0.337952	
-0.338013	
-0.338379	
-0.33667	
-0.336426	
-0.335449	
-0.336304	
-0.335999	
-0.338318	
-0.338318	
-0.339539	
-0.340698	
-0.342407	
-0.34259	
-0.34375	
-0.343567	
-0.346375	
-0.347168	
-0.348938	
-0.350464	
-0.352417	
-0.354248	
-0.356384	
-0.356018	
-0.357361	
-0.356812	
-0.359253	
-0.360901	
-0.362366	
-0.363342	
-0.364563	
-0.36615	
-0.367981	
-0.368347	
-0.368469	
-0.368652	
-0.3703	
-0.371399	
-0.372253	
-0.372742	
-0.373901	
-0.374268	
-0.375793	
-0.375244	
-0.374573	
-0.374207	
-0.374695	
-0.375977	
-0.375671	
-0.375549	
-0.37616	
-0.376526	
-0.377686	
-0.37677	
-0.376465	
-0.375916	
-0.376709	
-0.377075	
-0.377075	
-0.377319	
-0.377258	
-0.377075	
-0.37793	
-0.37793	
-0.376892	
-0.376404	
-0.376892	
-0.37738	
-0.377686	
-0.377563	
-0.378235	
-0.378479	
-0.378479	
-0.377869	
-0.377563	
-0.376892	
-0.377075	
-0.377563	
-0.376892	
-0.376404	
-0.377136	
-0.377258	
-0.378052	
-0.377136	
-0.377075	
-0.37616	
-0.37677	
-0.37738	
-0.377686	
-0.378357	
-0.378784	
-0.378784	
-0.379822	
-0.379089	
-0.378967	
-0.377991	
-0.378784	
-0.379456	
-0.379395	
-0.379761	
-0.380493	
-0.380066	
-0.381104	
-0.380066	
-0.380737	
-0.379089	
-0.38031	
-0.3797	
-0.380127	
-0.38031	
-0.380493	
-0.380127	
-0.381653	
-0.380676	
-0.381409	
-0.379639	
-0.380798	
-0.379761	
-0.380676	
-0.381165	
-0.380981	
-0.381775	
-0.381531	
-0.381104	
-0.380371	
-0.380493	
-0.380615	
-0.379944	
-0.380859	
-0.381165	
-0.381226	
-0.381897	
-0.381714	
-0.382019	
-0.381592	
-0.381042	
-0.381409	
-0.38147	
-0.382568	
-0.382568	
-0.383179	
-0.383911	
-0.384033	
-0.384644	
-0.384094	
-0.384094	
-0.382813	
-0.38385	
-0.38446	
-0.38446	
-0.384216	
-0.384521	
-0.384705	
-0.385193	
-0.384094	
-0.384216	
-0.383545	
-0.384644	
-0.384705	
-0.384583	
-0.384705	
-0.384888	
-0.384277	
-0.384583	
-0.384216	
-0.383728	
-0.383118	
-0.383667	
-0.384033	
-0.384338	
-0.38446	
-0.384644	
-0.385071	
-0.384949	
-0.385254	
-0.384888	
-0.384033	
-0.383423	
-0.382996	
-0.384094	
-0.384216	
-0.384338	
-0.384644	
-0.385193	
-0.38562	
-0.384521	
-0.384216	
-0.385193	
-0.38562	
-0.386047	
-0.386169	
-0.385925	
-0.387085	
-0.387207	
-0.387207	
-0.385986	
-0.386108	
-0.386353	
-0.386597	
-0.387146	
-0.387634	
-0.387146	
-0.387695	
-0.387756	
-0.388672	
-0.387634	
-0.388062	
-0.38623	
-0.386353	
-0.386536	
-0.387329	
-0.387207	
-0.387573	
-0.387817	
-0.388306	
-0.388245	
-0.388123	
-0.387207	
-0.387085	
-0.386292	
-0.387634	
-0.388062	
-0.388062	
-0.388672	
-0.388855	
-0.388062	
-0.388062	
-0.387207	
-0.387146	
-0.387329	
-0.387695	
-0.387817	
-0.387634	
-0.38855	
-0.388489	
-0.387146	
-0.386169	
-0.385559	
-0.386597	
-0.386353	
-0.386475	
-0.386292	
-0.386292	
-0.387085	
-0.38678	
-0.386597	
-0.385559	
-0.384949	
-0.386047	
-0.385803	
-0.386536	
-0.386597	
-0.38678	
-0.387329	
-0.387878	
-0.387939	
-0.387146	
-0.386169	
-0.385986	
-0.386841	
-0.387024	
-0.386902	
-0.38739	
-0.388123	
-0.388306	
-0.389099	
-0.387756	
-0.386719	
-0.386719	
-0.385986	
-0.387695	
-0.387756	
-0.387817	
-0.388306	
-0.388794	
-0.388611	
-0.388306	
-0.387451	
-0.387695	
-0.388062	
-0.388062	
-0.388184	
-0.388306	
-0.388428	
-0.388672	
-0.38855	
-0.388245	
-0.387817	
-0.387939	
-0.387695	
-0.387939	
-0.388123	
-0.388245	
-0.388733	
-0.388611	
-0.388672	
-0.388916	
-0.388794	
-0.388916	
-0.389221	
-0.389099	
-0.389832	
-0.389954	
-0.390381	
-0.39032	
-0.390503	
-0.390503	
-0.391235	
-0.389648	
-0.389954	
-0.388855	
-0.390076	
-0.389404	
-0.389709	
-0.389771	
-0.389771	
-0.390198	
-0.390747	
-0.389282	
-0.388611	
-0.388245	
-0.389587	
-0.389832	
-0.389648	
-0.390137	
-0.39032	
-0.39032	
-0.388489	
-0.389587	
-0.388916	
-0.389771	
-0.390381	
-0.390503	
-0.390869	
-0.391724	
-0.391846	
-0.391235	
-0.39032	
-0.390564	
-0.390625	
-0.390442	
-0.389954	
-0.391174	
-0.391296	
-0.391907	
-0.391968	
-0.392029	
-0.391968	
-0.393433	
-0.392212	
-0.392212	
-0.390564	
-0.392273	
-0.392578	
-0.392761	
-0.392578	
-0.392151	
-0.39209	
-0.392761	
-0.391663	
-0.391541	
-0.391052	
-0.391418	
-0.392029	
-0.391479	
-0.392334	
-0.391846	
-0.391907	
-0.390686	
-0.391479	
-0.391174	
-0.391113	
-0.391602	
-0.391663	
-0.391663	
-0.3927	
-0.392517	
-0.392883	
-0.391541	
-0.392822	
-0.392822	
-0.3927	
-0.3927	
-0.392639	
-0.392761	
-0.393738	
-0.394165	
-0.393494	
-0.393494	
-0.394104	
-0.393311	
-0.393188	
-0.391296	
-0.393433	
-0.393494	
-0.393921	
-0.394348	
-0.394104	
-0.393372	
-0.393677	
-0.393066	
-0.394653	
-0.393616	
-0.394104	
-0.394043	
-0.394836	
-0.394958	
-0.395264	
-0.394348	
-0.395203	
-0.393677	
-0.39502	
-0.394653	
-0.395508	
-0.395935	
-0.396057	
-0.396301	
-0.395874	
-0.39502	
-0.395203	
-0.39386	
-0.394958	
-0.394287	
-0.393982	
-0.394043	
-0.393738	
-0.394226	
-0.394775	
-0.392822	
-0.391907	
-0.392273	
-0.393311	
-0.39325	
-0.392334	
-0.393066	
-0.3927	
-0.393555	
-0.393616	
-0.392639	
-0.392029	
-0.393311	
-0.393311	
-0.3927	
-0.392395	
-0.392944	
-0.39325	
-0.393066	
-0.393066	
-0.392517	
-0.392212	
-0.392395	
-0.3927	
-0.392639	
-0.391907	
-0.392395	
-0.392639	
-0.3927	
-0.392944	
-0.392578	
-0.392578	
-0.392395	
-0.39386	
-0.393188	
-0.392944	
-0.391235	
-0.3927	
-0.392456	
-0.392151	
-0.393555	
-0.391724	
-0.391602	
-0.391235	
-0.391296	
-0.39093	
-0.389771	
-0.391052	
-0.390808	
-0.390991	
-0.392273	
-0.390808	
-0.390564	
-0.390442	
-0.390991	
-0.390991	
-0.390564	
-0.391357	
-0.391296	
-0.39209	
-0.39209	
-0.391052	
-0.390015	
-0.390869	
-0.392029	
-0.391602	
-0.391479	
-0.391541	
-0.39209	
-0.393066	
-0.392822	
-0.393311	
-0.392456	
-0.3927	
-0.393188	
-0.392395	
-0.392334	
-0.392456	
-0.392822	
-0.393127	
-0.39325	
-0.393738	
-0.392578	
-0.392883	
-0.392212	
-0.393616	
-0.393372	
-0.393311	
-0.393616	
-0.393494	
-0.39386	
-0.394531	
-0.392334	
-0.391174	
-0.391846	
-0.392029	
-0.391479	
-0.390564	
-0.391418	
-0.391479	
-0.39209	
-0.391846	
-0.391541	
-0.390015	
-0.391418	
-0.392029	
-0.390991	
-0.39032	
-0.390015	
-0.390869	
-0.391602	
-0.391602	
-0.391235	
-0.391052	
-0.391541	
-0.391846	
-0.391235	
-0.390869	
-0.390381	
-0.391296	
-0.391602	
-0.391541	
-0.392395	
-0.390869	
-0.391113	
-0.389648	
-0.390991	
-0.391235	
-0.390747	
-0.391296	
-0.391602	
-0.392334	
-0.393188	
-0.391113	
-0.39032	
-0.390808	
-0.391785	
-0.392029	
-0.391968	
-0.392639	
-0.392578	
-0.393494	
-0.393433	
-0.392456	
-0.392456	
-0.39386	
-0.39386	
-0.39386	
-0.392578	
-0.393921	
-0.393921	
-0.394287	
-0.394531	
-0.394287	
-0.393372	
-0.393921	
-0.394287	
-0.39386	
-0.393005	
-0.392334	
-0.393433	
-0.393677	
-0.393677	
-0.393982	
-0.392944	
-0.393127	
-0.392883	
-0.392761	
-0.392334	
-0.392334	
-0.393311	
-0.393066	
-0.393982	
-0.393433	
-0.392944	
-0.391724	
-0.392334	
-0.392944	
-0.392639	
-0.392456	
-0.392822	
-0.393005	
-0.393311	
-0.393677	
-0.393433	
-0.392578	
-0.392578	
-0.392273	
-0.392578	
-0.391785	
-0.392761	
-0.3927	
-0.39325	
-0.393372	
-0.394287	
-0.392761	
-0.393188	
-0.392395	
-0.392578	
-0.392578	
-0.392395	
-0.392639	
-0.392273	
-0.392639	
-0.39209	
-0.391296	
-0.391235	
-0.391724	
-0.391174	
-0.390686	
-0.389282	
-0.390808	
-0.391174	
-0.391968	
-0.391052	
-0.390991	
-0.390503	
-0.391663	
-0.391296	
-0.391235	
-0.390503	
-0.391357	
-0.391663	
-0.392273	
-0.392151	
-0.391479	
-0.391418	
-0.392029	
-0.391479	
-0.391724	
-0.39093	
-0.391724	
-0.39209	
-0.392334	
-0.3927	
-0.392029	
-0.391296	
-0.391174	
-0.389404	
-0.39093	
-0.390076	
-0.39093	
-0.390442	
-0.390991	
-0.391296	
-0.391296	
-0.390625	
-0.390625	
-0.390076	
-0.390381	
-0.389343	
-0.389526	
-0.389587	
-0.390015	
-0.390076	
-0.389648	
-0.389771	
-0.388	
-0.389526	
-0.389771	
-0.389587	
-0.389648	
-0.390137	
-0.390381	
-0.391174	
-0.39093	
-0.390259	
-0.389832	
-0.39032	
-0.390442	
-0.390381	
-0.389648	
-0.390625	
-0.390625	
-0.391235	
-0.391052	
-0.390808	
-0.390259	
-0.391296	
-0.390625	
-0.39032	
-0.389099	
-0.390198	
-0.390076	
-0.390442	
-0.390198	
-0.390808	
-0.389587	
-0.390015	
-0.388245	
-0.388916	
-0.388428	
-0.389526	
-0.389465	
-0.389221	
-0.390381	
-0.390381	
-0.389404	
-0.388794	
-0.389893	
-0.389404	
-0.389099	
-0.388306	
-0.389404	
-0.389709	
-0.390259	
-0.390503	
-0.389038	
-0.389343	
-0.388245	
-0.389343	
-0.389282	
-0.389038	
-0.389221	
-0.38916	
-0.38916	
-0.389282	
-0.38855	
-0.388672	
-0.388245	
-0.388855	
-0.388306	
-0.388184	
-0.388489	
-0.388977	
-0.388611	
-0.389709	
-0.388733	
-0.388916	
-0.388245	
-0.389526	
-0.389404	
-0.388855	
-0.389221	
-0.389526	
-0.389282	
-0.390198	
-0.390564	
-0.389832	
-0.390137	
-0.389282	
-0.389404	
-0.388	
-0.388489	
-0.389526	
-0.390137	
-0.390015	
-0.39093	
-0.389832	
-0.390503	
-0.389099	
-0.389709	
-0.388916	
	
