E:\DOCUMENTS AND SETTINGS\JPOTAS\MEUS DOCUMENTOS\UFRJ\RSCI-BM 12 WK SERIES\070719-RSCI-BM-02\RSCI-BM-02-REMG\070719-RSCI-BM-02-REMG-0001.ACQ
0.025000 msec/sample
1 channel
Analog input
Volts
CH1	
2000	
-0.391479	
-0.393127	
-0.391968	
-0.391541	
-0.390442	
-0.391357	
-0.391724	
-0.391541	
-0.392273	
-0.391541	
-0.391785	
-0.391235	
-0.392151	
-0.392456	
-0.391052	
-0.390869	
-0.390747	
-0.391785	
-0.392273	
-0.391602	
-0.391785	
-0.391663	
-0.394104	
-0.391907	
-0.391296	
-0.389465	
-0.391907	
-0.39209	
-0.391846	
-0.392029	
-0.392517	
-0.391663	
-0.392456	
-0.392212	
-0.392578	
-0.391357	
-0.391663	
-0.390625	
-0.392029	
-0.392883	
-0.391907	
-0.391174	
-0.390564	
-0.392944	
-0.391235	
-0.390564	
-0.388489	
-0.390991	
-0.391296	
-0.391052	
-0.391113	
-0.391418	
-0.390808	
-0.392212	
-0.390869	
-0.391418	
-0.390869	
-0.391541	
-0.391296	
-0.391724	
-0.392456	
-0.391846	
-0.392151	
-0.391663	
-0.392456	
-0.3927	
-0.391663	
-0.391602	
-0.392639	
-0.393066	
-0.393372	
-0.393005	
-0.393494	
-0.393433	
-0.395203	
-0.393616	
-0.393433	
-0.392334	
-0.393738	
-0.394165	
-0.394348	
-0.394165	
-0.393799	
-0.393738	
-0.39502	
-0.394165	
-0.394348	
-0.392517	
-0.393555	
-0.392944	
-0.393799	
-0.394348	
-0.393738	
-0.393677	
-0.394043	
-0.395203	
-0.394226	
-0.393799	
-0.392578	
-0.393921	
-0.394043	
-0.39447	
-0.394836	
-0.394348	
-0.394287	
-0.394897	
-0.394653	
-0.394958	
-0.393738	
-0.394287	
-0.393372	
-0.393799	
-0.393982	
-0.393738	
-0.393127	
-0.393372	
-0.393677	
-0.392517	
-0.39093	
-0.388855	
-0.390503	
-0.390564	
-0.389954	
-0.389343	
-0.389282	
-0.389221	
-0.389465	
-0.38855	
-0.389099	
-0.388306	
-0.388367	
-0.388245	
-0.389038	
-0.389832	
-0.389221	
-0.389771	
-0.390015	
-0.391418	
-0.390869	
-0.389038	
-0.389587	
-0.390747	
-0.391174	
-0.391479	
-0.391541	
-0.391418	
-0.391907	
-0.3927	
-0.391907	
-0.391541	
-0.391907	
-0.392578	
-0.393066	
-0.393066	
-0.393921	
-0.39386	
-0.39386	
-0.393494	
-0.395081	
-0.394897	
-0.39386	
-0.393127	
-0.39325	
-0.394409	
-0.394714	
-0.394714	
-0.394409	
-0.395508	
-0.39624	
-0.395569	
-0.394592	
-0.393311	
-0.394653	
-0.394531	
-0.394958	
-0.395569	
-0.395203	
-0.394897	
-0.394043	
-0.395142	
-0.395447	
-0.394348	
-0.393494	
-0.394104	
-0.394348	
-0.39447	
-0.393799	
-0.393738	
-0.394226	
-0.39386	
-0.393372	
-0.391418	
-0.392395	
-0.391907	
-0.392517	
-0.3927	
-0.393372	
-0.389709	
-0.389038	
-0.388672	
-0.389099	
-0.388611	
-0.388062	
-0.390564	
-0.392334	
-0.392456	
-0.392395	
-0.392578	
-0.392639	
-0.393005	
-0.393188	
-0.392761	
-0.391846	
-0.391907	
-0.392029	
-0.392639	
-0.392517	
-0.393677	
-0.393188	
-0.394165	
-0.392944	
-0.394714	
-0.393127	
-0.392761	
-0.3927	
-0.393799	
-0.393799	
-0.39386	
-0.393555	
-0.393982	
-0.394409	
-0.395447	
-0.39386	
-0.393616	
-0.393005	
-0.393921	
-0.393982	
-0.394043	
-0.395142	
-0.394226	
-0.395142	
-0.394531	
-0.394958	
-0.394165	
-0.39386	
-0.39502	
-0.395447	
-0.395325	
-0.395813	
-0.395691	
-0.395935	
-0.396057	
-0.396606	
-0.39502	
-0.394348	
-0.393494	
-0.393494	
-0.392761	
-0.392517	
-0.392212	
-0.391663	
-0.391479	
-0.392456	
-0.390381	
-0.390015	
-0.388123	
-0.388916	
-0.388367	
-0.38739	
-0.38739	
-0.385925	
-0.385803	
-0.385376	
-0.384949	
-0.383545	
-0.383057	
-0.382935	
-0.38324	
-0.383179	
-0.383606	
-0.383606	
-0.384033	
-0.384521	
-0.386108	
-0.385437	
-0.385803	
-0.386414	
-0.388062	
-0.388916	
-0.389587	
-0.391479	
-0.391663	
-0.393799	
-0.394287	
-0.396667	
-0.396729	
-0.397949	
-0.400452	
-0.403076	
-0.405151	
-0.406494	
-0.407043	
-0.40802	
-0.409485	
-0.410828	
-0.411133	
-0.412231	
-0.41394	
-0.415649	
-0.417664	
-0.419739	
-0.421692	
-0.423767	
-0.42688	
-0.429199	
-0.429565	
-0.430603	
-0.431824	
-0.432739	
-0.43396	
-0.434265	
-0.434082	
-0.433655	
-0.431946	
-0.431946	
-0.429626	
-0.428345	
-0.427124	
-0.427246	
-0.427307	
-0.426758	
-0.426697	
-0.42688	
-0.428528	
-0.430908	
-0.43042	
-0.430603	
-0.431396	
-0.433838	
-0.434692	
-0.435181	
-0.435852	
-0.436218	
-0.437317	
-0.438721	
-0.437378	
-0.437073	
-0.436096	
-0.436523	
-0.436768	
-0.436462	
-0.43634	
-0.435059	
-0.434631	
-0.43396	
-0.433716	
-0.432861	
-0.431274	
-0.432007	
-0.432434	
-0.432068	
-0.43158	
-0.430176	
-0.429626	
-0.430115	
-0.428589	
-0.427795	
-0.425171	
-0.424561	
-0.423218	
-0.422852	
-0.421692	
-0.420349	
-0.41864	
-0.417969	
-0.417053	
-0.416382	
-0.41394	
-0.412659	
-0.411011	
-0.40979	
-0.408325	
-0.407166	
-0.406067	
-0.404724	
-0.403992	
-0.402527	
-0.401428	
-0.398926	
-0.39856	
-0.397522	
-0.396851	
-0.395935	
-0.394287	
-0.392822	
-0.3927	
-0.39093	
-0.38916	
-0.385376	
-0.383728	
-0.380554	
-0.379089	
-0.375977	
-0.373169	
-0.369934	
-0.366638	
-0.363037	
-0.359985	
-0.355835	
-0.352234	
-0.349304	
-0.346008	
-0.343262	
-0.341064	
-0.337402	
-0.334961	
-0.333252	
-0.329285	
-0.325562	
-0.320801	
-0.319946	
-0.317871	
-0.31665	
-0.316162	
-0.313904	
-0.312866	
-0.31366	
-0.314026	
-0.31366	
-0.312134	
-0.313782	
-0.315735	
-0.317261	
-0.320129	
-0.320374	
-0.32251	
-0.325073	
-0.326965	
-0.328308	
-0.327759	
-0.329956	
-0.332153	
-0.335022	
-0.336975	
-0.338684	
-0.340698	
-0.344055	
-0.345764	
-0.347168	
-0.347046	
-0.349976	
-0.352295	
-0.355896	
-0.359253	
-0.360352	
-0.362305	
-0.364746	
-0.365967	
-0.366882	
-0.365417	
-0.367065	
-0.367798	
-0.369141	
-0.370361	
-0.36969	
-0.369873	
-0.371033	
-0.371521	
-0.371216	
-0.369446	
-0.370239	
-0.370056	
-0.371521	
-0.372131	
-0.370911	
-0.371033	
-0.371948	
-0.371887	
-0.371704	
-0.369812	
-0.370667	
-0.370422	
-0.37146	
-0.371643	
-0.370789	
-0.370728	
-0.370911	
-0.370422	
-0.370117	
-0.368408	
-0.368103	
-0.367737	
-0.368591	
-0.369385	
-0.368469	
-0.368225	
-0.369202	
-0.368652	
-0.368713	
-0.366455	
-0.367188	
-0.366455	
-0.367004	
-0.367004	
-0.366455	
-0.366089	
-0.366699	
-0.366089	
-0.36615	
-0.364136	
-0.365234	
-0.365112	
-0.365234	
-0.365356	
-0.365479	
-0.365662	
-0.366699	
-0.366577	
-0.366882	
-0.366211	
-0.367371	
-0.368286	
-0.369019	
-0.369507	
-0.370178	
-0.370667	
-0.372253	
-0.370728	
-0.371643	
-0.37146	
-0.372742	
-0.372681	
-0.37323	
-0.373718	
-0.374756	
-0.374268	
-0.374634	
-0.374023	
-0.375549	
-0.374878	
-0.375061	
-0.374023	
-0.375671	
-0.376099	
-0.376648	
-0.376343	
-0.37677	
-0.377014	
-0.377075	
-0.37677	
-0.376038	
-0.376892	
-0.376404	
-0.376404	
-0.377014	
-0.375732	
-0.375854	
-0.376587	
-0.376648	
-0.37616	
-0.375	
-0.375916	
-0.37561	
-0.376465	
-0.376404	
-0.37677	
-0.377197	
-0.377502	
-0.377197	
-0.377747	
-0.376892	
-0.377075	
-0.375916	
-0.377197	
-0.377441	
-0.376892	
-0.377136	
-0.377075	
-0.377075	
-0.377747	
-0.377014	
-0.376648	
-0.375977	
-0.377014	
-0.376831	
-0.377075	
-0.376953	
-0.377502	
-0.378113	
-0.379761	
-0.378906	
-0.379456	
-0.378906	
-0.380127	
-0.380249	
-0.38031	
-0.38031	
-0.381287	
-0.381104	
-0.381042	
-0.380188	
-0.380615	
-0.381226	
-0.381714	
-0.382263	
-0.383545	
-0.382935	
-0.383667	
-0.383362	
-0.383728	
-0.383057	
-0.382507	
-0.382874	
-0.382324	
-0.382996	
-0.383362	
-0.382813	
-0.383362	
-0.382751	
-0.382324	
-0.383301	
-0.382141	
-0.381836	
-0.380676	
-0.381714	
-0.381348	
-0.381287	
-0.381653	
-0.381042	
-0.380676	
-0.380615	
-0.379883	
-0.379761	
-0.379089	
-0.37915	
-0.379028	
-0.379272	
-0.378296	
-0.377869	
-0.376404	
-0.377319	
-0.376709	
-0.375977	
-0.375671	
-0.375671	
-0.375854	
-0.37677	
-0.376221	
-0.376831	
-0.375549	
-0.376526	
-0.376526	
-0.37677	
-0.376953	
-0.376038	
-0.377869	
-0.378906	
-0.37915	
-0.380615	
-0.379639	
-0.380127	
-0.380798	
-0.380737	
-0.381104	
-0.380066	
-0.381592	
-0.381897	
-0.381775	
-0.382935	
-0.382202	
-0.382568	
-0.382874	
-0.382629	
-0.382019	
-0.381042	
-0.382935	
-0.382935	
-0.382751	
-0.383911	
-0.38324	
-0.38324	
-0.383179	
-0.382568	
-0.383057	
-0.382324	
-0.383484	
-0.38385	
-0.383667	
-0.38446	
-0.38446	
-0.383423	
-0.383545	
-0.382507	
-0.383423	
-0.383423	
-0.383972	
-0.38446	
-0.383728	
-0.384338	
-0.384949	
-0.383728	
-0.38385	
-0.382996	
-0.383423	
-0.382996	
-0.38324	
-0.383362	
-0.382874	
-0.38269	
-0.383179	
-0.382019	
-0.382202	
-0.381775	
-0.382629	
-0.382019	
-0.382019	
-0.382629	
-0.382629	
-0.382324	
-0.383057	
-0.38208	
-0.382446	
-0.384094	
-0.383118	
-0.383057	
-0.381104	
-0.383484	
-0.38385	
-0.383423	
-0.384399	
-0.382629	
-0.383362	
-0.383545	
-0.384216	
-0.384399	
-0.38385	
-0.384583	
-0.385315	
-0.384827	
-0.386047	
-0.384521	
-0.385254	
-0.38562	
-0.386658	
-0.386047	
-0.386108	
-0.385315	
-0.386963	
-0.386475	
-0.386597	
-0.38623	
-0.386963	
-0.386536	
-0.387634	
-0.386719	
-0.38678	
-0.386108	
-0.387085	
-0.386841	
-0.387085	
-0.388123	
-0.386963	
-0.387207	
-0.387146	
-0.387756	
-0.387756	
-0.386597	
-0.388489	
-0.38916	
-0.388489	
-0.389832	
-0.387329	
-0.388855	
-0.387634	
-0.38916	
-0.388916	
-0.388306	
-0.388672	
-0.388977	
-0.388062	
-0.389832	
-0.387451	
-0.387695	
-0.386963	
-0.387695	
-0.386475	
-0.38562	
-0.385376	
-0.385986	
-0.384888	
-0.385559	
-0.384705	
-0.384521	
-0.384033	
-0.385376	
-0.38446	
-0.384033	
-0.383972	
-0.385315	
-0.385315	
-0.38562	
-0.385254	
-0.386108	
-0.385864	
-0.38678	
-0.386475	
-0.386536	
-0.386475	
-0.387634	
-0.387451	
-0.387939	
-0.387573	
-0.387573	
-0.387329	
-0.388733	
-0.388	
-0.388367	
-0.388367	
-0.389343	
-0.39032	
-0.389954	
-0.391052	
-0.389404	
-0.390198	
-0.391052	
-0.39093	
-0.390808	
-0.389709	
-0.390869	
-0.391602	
-0.39093	
-0.392395	
-0.390686	
-0.391174	
-0.390991	
-0.391602	
-0.391846	
-0.391235	
-0.391663	
-0.392029	
-0.391785	
-0.393005	
-0.391357	
-0.391846	
-0.39093	
-0.392456	
-0.391602	
-0.391663	
-0.390564	
-0.391785	
-0.391479	
-0.39209	
-0.39093	
-0.391235	
-0.390503	
-0.391418	
-0.390381	
-0.390381	
-0.389526	
-0.389832	
-0.390503	
-0.389954	
-0.389771	
-0.388367	
-0.389526	
-0.389771	
-0.389465	
-0.389343	
-0.388428	
-0.389526	
-0.389893	
-0.389709	
-0.390259	
-0.388916	
-0.389282	
-0.389343	
-0.390259	
-0.389587	
-0.388794	
-0.389709	
-0.390564	
-0.390259	
-0.390442	
-0.389648	
-0.389954	
-0.390686	
-0.391602	
-0.391113	
-0.390686	
-0.390442	
-0.391357	
-0.391724	
-0.392578	
-0.391174	
-0.391418	
-0.390442	
-0.391846	
-0.391541	
-0.390686	
-0.391357	
-0.391296	
-0.392212	
-0.392029	
-0.391418	
-0.390137	
-0.391357	
-0.391785	
-0.391479	
-0.391357	
-0.391418	
-0.391663	
-0.392212	
-0.391968	
-0.392212	
-0.391907	
-0.391724	
-0.392822	
-0.392334	
-0.392151	
-0.391541	
-0.391785	
-0.392029	
-0.391296	
-0.391479	
-0.390198	
-0.389954	
-0.390381	
-0.390686	
-0.390198	
-0.388672	
-0.389038	
-0.390259	
-0.390259	
-0.391663	
-0.38916	
-0.388916	
-0.388	
-0.389709	
-0.388794	
-0.388245	
-0.387756	
-0.388733	
-0.389526	
-0.389526	
-0.388672	
-0.388184	
-0.389221	
-0.389465	
-0.38916	
-0.389587	
-0.389526	
-0.389709	
-0.390503	
-0.390869	
-0.390747	
-0.390747	
-0.390869	
-0.391479	
-0.39209	
-0.391663	
-0.391724	
-0.392212	
-0.393005	
-0.39325	
-0.395081	
-0.393677	
-0.393738	
-0.393188	
-0.395691	
-0.395203	
-0.39447	
-0.395081	
-0.396729	
-0.397888	
-0.398071	
-0.397766	
-0.397278	
-0.398499	
-0.398987	
-0.398254	
-0.398315	
-0.398743	
-0.398376	
-0.399231	
-0.398804	
-0.398804	
-0.396973	
-0.397461	
-0.396606	
-0.396179	
-0.395569	
-0.394897	
-0.394897	
-0.394775	
-0.394409	
-0.395081	
-0.393921	
-0.393494	
-0.392212	
-0.393372	
-0.393005	
-0.392822	
-0.392456	
-0.392822	
-0.393127	
-0.392822	
-0.392151	
-0.391174	
-0.392822	
-0.392822	
-0.39209	
-0.390686	
-0.390564	
-0.391663	
-0.391968	
-0.391907	
-0.392517	
-0.391052	
-0.391602	
-0.390747	
-0.391357	
-0.390991	
-0.391052	
-0.391663	
-0.391907	
-0.391846	
-0.392517	
-0.391113	
-0.391479	
-0.390503	
-0.391846	
-0.392212	
-0.391602	
-0.392517	
-0.392456	
-0.393494	
-0.392761	
-0.392517	
-0.391602	
-0.392456	
-0.393433	
-0.392395	
-0.393188	
-0.392944	
-0.393799	
-0.394043	
-0.393616	
-0.394287	
-0.393616	
-0.39386	
-0.393066	
-0.39325	
-0.392456	
-0.392822	
-0.393494	
-0.393311	
-0.393066	
-0.393921	
-0.392517	
-0.393188	
-0.392212	
-0.392151	
-0.391113	
-0.392151	
-0.391907	
-0.391846	
-0.392212	
-0.391663	
-0.391479	
-0.390686	
-0.391113	
-0.390686	
-0.390381	
-0.390503	
-0.390747	
-0.39093	
-0.391113	
-0.390991	
-0.392212	
-0.390381	
-0.39032	
-0.389648	
-0.391357	
-0.391296	
-0.390564	
-0.391479	
-0.392029	
-0.392456	
-0.393188	
-0.392334	
-0.393188	
-0.392456	
-0.392456	
-0.391907	
-0.392029	
-0.392639	
-0.392395	
-0.391907	
-0.392273	
-0.391296	
-0.391907	
-0.390869	
-0.390503	
-0.389587	
-0.390259	
-0.390442	
-0.39032	
-0.391235	
-0.390686	
-0.39093	
-0.389954	
-0.39032	
-0.390198	
-0.390747	
-0.390808	
-0.391357	
-0.391418	
-0.392578	
-0.392517	
-0.39502	
-0.393555	
-0.39386	
-0.393311	
-0.394348	
-0.394531	
-0.394226	
-0.395508	
-0.395447	
-0.395813	
-0.396118	
-0.395142	
-0.395386	
-0.394653	
-0.394714	
-0.393616	
-0.394409	
-0.394226	
-0.394226	
-0.394714	
-0.393921	
-0.393494	
-0.392029	
-0.392517	
-0.392517	
-0.392456	
-0.392334	
-0.3927	
-0.392822	
-0.393433	
-0.392395	
-0.393494	
-0.390808	
-0.391113	
-0.390442	
-0.39032	
-0.390503	
-0.389954	
-0.390259	
-0.390625	
-0.390259	
-0.390381	
-0.390076	
-0.390991	
-0.390015	
-0.389648	
-0.388489	
-0.389832	
-0.389954	
-0.390076	
-0.389648	
-0.390137	
-0.389648	
-0.390259	
-0.389832	
-0.389771	
-0.390137	
-0.390198	
-0.390503	
-0.390747	
-0.391052	
-0.390991	
-0.391907	
-0.390747	
-0.390808	
-0.391052	
-0.390991	
-0.391113	
-0.390259	
-0.391724	
-0.393005	
-0.392334	
-0.392395	
-0.391296	
-0.393311	
-0.392395	
-0.392212	
-0.391418	
-0.392517	
-0.3927	
-0.393677	
-0.393127	
-0.393372	
-0.394043	
-0.393372	
-0.393066	
-0.390869	
-0.3927	
-0.3927	
-0.393066	
-0.393066	
-0.393127	
-0.39325	
-0.39386	
-0.393616	
-0.392883	
-0.392517	
-0.392822	
-0.392883	
-0.391846	
-0.392334	
-0.39209	
-0.391479	
-0.391724	
-0.391235	
-0.392334	
-0.392029	
-0.391113	
-0.390198	
-0.390686	
-0.391785	
-0.392456	
-0.391296	
-0.391541	
-0.391724	
-0.391602	
-0.391541	
-0.389832	
-0.391174	
-0.390869	
-0.391296	
-0.391846	
-0.391235	
-0.390991	
-0.391663	
-0.391296	
-0.390747	
-0.389648	
-0.390442	
-0.390198	
-0.390198	
-0.390564	
-0.390686	
-0.390198	
-0.390869	
-0.391479	
-0.392151	
-0.392334	
-0.391602	
-0.391052	
-0.391357	
-0.392639	
-0.392639	
-0.392822	
-0.392883	
-0.393555	
-0.393494	
-0.393127	
-0.392822	
-0.392822	
-0.393066	
-0.393677	
-0.394409	
-0.394104	
-0.393799	
-0.393799	
-0.394287	
-0.394165	
-0.392761	
-0.393494	
-0.393494	
-0.393494	
-0.394287	
-0.393127	
-0.392883	
-0.393433	
-0.393494	
-0.393311	
-0.39209	
-0.390686	
-0.391113	
-0.390625	
-0.391418	
-0.391357	
-0.390686	
-0.39093	
-0.391113	
-0.390503	
-0.389587	
-0.389282	
-0.389221	
-0.388367	
-0.388428	
-0.388855	
-0.387878	
-0.387268	
-0.386536	
-0.386475	
-0.38562	
-0.385559	
-0.384766	
-0.384583	
-0.384399	
-0.385925	
-0.384888	
-0.384827	
-0.384216	
-0.385925	
-0.386047	
-0.385742	
-0.384277	
-0.384521	
-0.385986	
-0.387085	
-0.387085	
-0.387878	
-0.388672	
-0.388672	
-0.389099	
-0.388123	
-0.38855	
-0.388123	
-0.388794	
-0.389465	
-0.389526	
-0.389648	
-0.390503	
-0.389954	
-0.390198	
-0.389404	
-0.390625	
-0.389954	
-0.389771	
-0.388977	
-0.390686	
-0.39032	
-0.390381	
-0.38916	
-0.390625	
-0.390381	
-0.390259	
-0.388611	
-0.388855	
-0.389709	
-0.390503	
-0.390259	
-0.39032	
-0.389954	
-0.391052	
-0.390503	
-0.390259	
-0.390137	
-0.390015	
-0.390198	
-0.39032	
-0.390503	
-0.39032	
-0.391174	
-0.390808	
-0.390564	
-0.389526	
-0.390747	
-0.389526	
-0.390076	
-0.389099	
-0.390015	
-0.389587	
-0.390381	
-0.389038	
-0.389771	
-0.390381	
-0.389832	
-0.389465	
-0.388245	
-0.389343	
-0.390442	
-0.389282	
-0.389099	
-0.388794	
-0.390442	
-0.389832	
-0.389771	
-0.389343	
-0.390198	
-0.390137	
-0.389526	
-0.390381	
-0.390564	
-0.39093	
-0.390808	
-0.390686	
-0.39032	
-0.391296	
-0.39093	
-0.390686	
-0.391296	
-0.391846	
-0.391663	
-0.392273	
-0.391968	
-0.391907	
-0.392456	
-0.39209	
-0.392517	
-0.391907	
-0.392151	
-0.392883	
-0.392395	
-0.392395	
-0.39209	
-0.392456	
-0.391846	
-0.391846	
-0.391907	
-0.391541	
-0.391602	
-0.390747	
-0.392029	
-0.391846	
-0.392334	
-0.392578	
-0.392212	
-0.392334	
-0.392517	
-0.392395	
-0.391479	
-0.392395	
-0.393066	
-0.392578	
-0.393127	
-0.392151	
-0.392456	
-0.392578	
-0.392273	
-0.392334	
-0.391785	
-0.391479	
-0.392578	
-0.391418	
-0.391296	
-0.390686	
-0.390869	
-0.390137	
-0.389404	
-0.389221	
-0.388306	
-0.388245	
-0.386841	
-0.387207	
-0.387146	
-0.387634	
-0.387695	
-0.387146	
-0.386047	
-0.386841	
-0.387329	
-0.38623	
-0.387146	
-0.388489	
-0.388	
-0.388306	
-0.387451	
-0.388	
-0.389221	
-0.389343	
-0.389526	
-0.389099	
-0.389709	
-0.390015	
-0.389709	
-0.390015	
-0.389832	
-0.390442	
-0.389954	
-0.390564	
-0.390442	
-0.39093	
-0.391418	
-0.390747	
-0.392334	
-0.392029	
-0.392822	
-0.391174	
-0.392273	
-0.391846	
-0.39209	
-0.391785	
-0.392639	
-0.392456	
-0.393127	
-0.392639	
-0.39325	
-0.393005	
-0.393188	
-0.393372	
-0.392944	
-0.393188	
-0.392273	
-0.392944	
-0.392639	
-0.3927	
-0.392883	
-0.392395	
-0.393677	
-0.393127	
-0.393494	
-0.392578	
-0.392883	
-0.392883	
-0.392151	
-0.393311	
-0.392456	
-0.392578	
-0.391541	
-0.391357	
-0.390564	
-0.391296	
-0.390808	
-0.390869	
-0.390686	
-0.391846	
-0.390869	
-0.391174	
-0.389587	
-0.389893	
-0.389587	
-0.390381	
-0.390442	
-0.389893	
-0.389648	
-0.389587	
-0.390259	
-0.390503	
-0.390015	
-0.39093	
-0.390625	
-0.390076	
-0.390015	
-0.388733	
-0.390137	
-0.389709	
-0.390198	
-0.390503	
-0.391541	
-0.391785	
-0.391602	
-0.389893	
-0.391296	
-0.391113	
-0.392029	
-0.391479	
-0.392578	
-0.391785	
-0.39209	
-0.391113	
-0.391785	
-0.391479	
-0.391174	
-0.391663	
-0.391541	
-0.391907	
-0.390808	
-0.391235	
-0.391724	
-0.392151	
-0.392029	
-0.392456	
-0.391602	
-0.392517	
-0.39093	
-0.391907	
-0.392029	
-0.392578	
-0.392517	
-0.393005	
-0.3927	
-0.393127	
-0.391663	
-0.391052	
-0.390869	
-0.391174	
-0.390625	
-0.391418	
-0.390564	
-0.390625	
-0.389709	
-0.390625	
-0.389954	
-0.389404	
-0.389954	
-0.389709	
-0.389893	
-0.389343	
-0.389282	
-0.389343	
-0.389648	
-0.389038	
-0.388672	
-0.387085	
-0.389221	
-0.38855	
-0.388123	
-0.387939	
-0.388977	
-0.38916	
-0.389404	
-0.389587	
-0.390442	
-0.389648	
-0.389465	
-0.389099	
-0.390991	
-0.390747	
-0.391907	
-0.391663	
-0.391724	
-0.392395	
-0.392212	
-0.391724	
-0.391479	
-0.392639	
-0.392639	
-0.393066	
-0.393433	
-0.393982	
-0.394165	
-0.39502	
-0.394897	
-0.395325	
-0.395081	
-0.396729	
-0.396851	
-0.397034	
-0.396545	
-0.39801	
-0.397278	
-0.397644	
-0.397461	
-0.398682	
-0.397522	
-0.396851	
-0.397095	
-0.397278	
-0.39679	
-0.397461	
-0.396729	
-0.396179	
-0.396729	
-0.395203	
-0.394653	
-0.393066	
-0.394531	
-0.393799	
-0.393677	
-0.39325	
-0.393433	
-0.393311	
-0.393738	
-0.393616	
-0.393433	
-0.392151	
-0.393677	
-0.391602	
-0.3927	
-0.392273	
-0.393188	
-0.39325	
-0.393066	
-0.392944	
-0.393066	
-0.392395	
-0.391785	
-0.392395	
-0.3927	
-0.392334	
-0.393616	
-0.392517	
-0.392395	
-0.392822	
-0.392761	
-0.392273	
-0.390991	
-0.392029	
-0.392212	
-0.392334	
-0.392639	
-0.392273	
-0.392761	
-0.393188	
-0.394165	
-0.393494	
-0.392517	
-0.39209	
-0.391968	
-0.392822	
-0.391907	
-0.394043	
-0.392639	
-0.393188	
-0.393066	
-0.39447	
-0.394043	
-0.393311	
-0.393494	
-0.393677	
-0.393494	
-0.393921	
-0.393433	
-0.393799	
-0.394287	
-0.394043	
-0.393127	
-0.392578	
-0.392761	
-0.392578	
-0.392029	
-0.392151	
-0.392212	
-0.391846	
-0.392578	
-0.391846	
-0.3927	
-0.391724	
-0.391785	
-0.390015	
-0.390869	
-0.389648	
-0.391113	
-0.390625	
-0.39093	
-0.390503	
-0.390991	
-0.390198	
-0.389343	
-0.389709	
-0.389893	
-0.389526	
-0.389771	
-0.389587	
-0.389832	
-0.390442	
-0.391174	
-0.390015	
-0.390076	
-0.389404	
-0.390259	
-0.390137	
-0.390747	
-0.391296	
-0.390503	
-0.390686	
-0.390869	
-0.390686	
-0.389893	
-0.390808	
-0.390015	
-0.389893	
-0.389099	
-0.39093	
-0.389832	
-0.389648	
-0.389526	
-0.390869	
-0.389526	
-0.389221	
-0.387878	
-0.389526	
-0.389771	
-0.390137	
-0.390076	
-0.390503	
-0.391479	
-0.391418	
-0.391052	
-0.391052	
-0.391724	
-0.393005	
-0.392761	
-0.394043	
-0.394287	
-0.394409	
-0.395203	
-0.394897	
-0.395813	
-0.395203	
-0.395691	
-0.394409	
-0.395142	
-0.394226	
-0.39624	
-0.394836	
-0.394775	
-0.395081	
-0.395996	
-0.394104	
-0.392761	
-0.392639	
-0.393372	
-0.393188	
-0.393311	
-0.392761	
-0.392517	
-0.392456	
-0.392761	
-0.392883	
-0.392761	
-0.392273	
-0.391663	
-0.391541	
-0.391235	
-0.391418	
-0.390625	
-0.390808	
-0.389832	
-0.391846	
-0.389832	
-0.390381	
-0.388	
-0.389893	
-0.388794	
-0.390137	
-0.389465	
-0.389282	
-0.390381	
-0.389954	
-0.389587	
-0.388611	
-0.388855	
-0.389038	
-0.389038	
-0.389343	
-0.389465	
-0.389282	
-0.389709	
-0.390259	
-0.390503	
-0.389648	
-0.390503	
-0.38916	
-0.390076	
-0.389282	
-0.390747	
-0.39032	
-0.390564	
-0.390015	
-0.392273	
-0.391296	
-0.391968	
-0.390564	
-0.391846	
-0.391479	
-0.392456	
-0.391602	
-0.391724	
-0.392761	
-0.393005	
-0.392456	
-0.391541	
-0.392151	
-0.391907	
-0.391907	
-0.392822	
-0.392578	
-0.392395	
-0.392456	
-0.392639	
-0.393738	
-0.39325	
-0.393005	
-0.391541	
-0.392578	
-0.391968	
-0.393005	
-0.392517	
-0.392456	
-0.391602	
-0.392456	
-0.391357	
-0.391174	
-0.39032	
-0.390747	
-0.390259	
-0.391357	
-0.390808	
-0.390747	
-0.391602	
-0.391357	
-0.391602	
-0.390747	
-0.390625	
-0.390076	
-0.391174	
-0.391357	
-0.390869	
-0.391235	
-0.391052	
-0.390747	
-0.391846	
-0.390625	
-0.390991	
-0.389648	
-0.390625	
-0.389404	
-0.390991	
-0.390259	
-0.390015	
-0.389343	
-0.390259	
-0.390076	
-0.389832	
-0.389587	
-0.389465	
-0.39032	
-0.391418	
-0.391357	
-0.391357	
-0.392273	
-0.392151	
-0.393433	
-0.391479	
-0.39209	
-0.390686	
-0.392395	
-0.392212	
-0.392517	
-0.392822	
-0.393066	
-0.392883	
-0.393616	
-0.393433	
-0.394531	
-0.393127	
-0.393677	
-0.393677	
-0.394653	
-0.393433	
-0.393066	
-0.392944	
-0.393311	
-0.393188	
-0.391724	
-0.392578	
-0.392029	
-0.392029	
-0.392212	
-0.391968	
-0.391663	
-0.391602	
-0.390869	
-0.392822	
-0.390137	
-0.391541	
-0.388977	
-0.389709	
-0.388733	
-0.389465	
-0.388977	
-0.388611	
-0.388306	
-0.388184	
-0.387512	
-0.387085	
-0.386475	
-0.386108	
-0.385437	
-0.386047	
-0.384583	
-0.384705	
-0.384644	
-0.384521	
-0.38501	
-0.384277	
-0.385498	
-0.382751	
-0.384521	
-0.384155	
-0.384888	
-0.385193	
-0.38623	
-0.386108	
-0.387634	
-0.386108	
-0.387573	
-0.386597	
-0.388428	
-0.387878	
-0.389099	
-0.38855	
-0.388916	
-0.387878	
-0.389282	
	
