E:\DOCUMENTS AND SETTINGS\JPOTAS\MEUS DOCUMENTOS\UFRJ\RSCI-BM 12 WK SERIES\070719-RSCI-BM-02\RSCI-BM-02-REMG\070719-RSCI-BM-02-REMG-0005.ACQ
0.025000 msec/sample
1 channel
Analog input
Volts
CH1	
2000	
-0.388489	
-0.38916	
-0.388	
-0.38855	
-0.386475	
-0.388245	
-0.388062	
-0.388428	
-0.388245	
-0.388733	
-0.390137	
-0.390503	
-0.390015	
-0.388672	
-0.389465	
-0.388855	
-0.389954	
-0.390259	
-0.390198	
-0.390381	
-0.39093	
-0.391113	
-0.391602	
-0.39093	
-0.391174	
-0.390747	
-0.391479	
-0.390747	
-0.391663	
-0.392029	
-0.392395	
-0.392273	
-0.393677	
-0.392395	
-0.392273	
-0.391541	
-0.392578	
-0.392761	
-0.393066	
-0.393066	
-0.393433	
-0.394226	
-0.39563	
-0.39447	
-0.392822	
-0.392822	
-0.392273	
-0.393555	
-0.393311	
-0.393555	
-0.393616	
-0.394043	
-0.393616	
-0.393494	
-0.392395	
-0.394043	
-0.393311	
-0.393738	
-0.392822	
-0.393616	
-0.393982	
-0.394348	
-0.394287	
-0.395081	
-0.39447	
-0.394897	
-0.393188	
-0.393982	
-0.394104	
-0.394165	
-0.394592	
-0.394653	
-0.394775	
-0.395996	
-0.394897	
-0.394165	
-0.393372	
-0.394043	
-0.394165	
-0.39447	
-0.394409	
-0.394592	
-0.395386	
-0.395081	
-0.394836	
-0.39447	
-0.394409	
-0.394775	
-0.395142	
-0.395142	
-0.395081	
-0.395081	
-0.395752	
-0.395264	
-0.396057	
-0.395569	
-0.395569	
-0.393188	
-0.393677	
-0.393127	
-0.393799	
-0.394104	
-0.394043	
-0.393799	
-0.394226	
-0.393311	
-0.391541	
-0.391357	
-0.392334	
-0.392395	
-0.392273	
-0.3927	
-0.392761	
-0.393066	
-0.393005	
-0.393066	
-0.392456	
-0.392334	
-0.393127	
-0.392578	
-0.392212	
-0.392883	
-0.392944	
-0.392822	
-0.39325	
-0.393311	
-0.39386	
-0.393738	
-0.393188	
-0.39386	
-0.394226	
-0.394958	
-0.395325	
-0.395081	
-0.39624	
-0.397034	
-0.396057	
-0.394714	
-0.394348	
-0.395569	
-0.395508	
-0.39624	
-0.396851	
-0.397095	
-0.397705	
-0.397949	
-0.397949	
-0.398682	
-0.397949	
-0.398193	
-0.397705	
-0.397522	
-0.398743	
-0.398499	
-0.39856	
-0.399353	
-0.400024	
-0.398804	
-0.398254	
-0.397888	
-0.398254	
-0.398315	
-0.398743	
-0.398315	
-0.398682	
-0.398865	
-0.398132	
-0.397278	
-0.397766	
-0.396118	
-0.395813	
-0.394104	
-0.395447	
-0.394897	
-0.394592	
-0.394897	
-0.395813	
-0.394226	
-0.39447	
-0.393555	
-0.39386	
-0.393738	
-0.393677	
-0.393433	
-0.393372	
-0.393433	
-0.395386	
-0.394775	
-0.394409	
-0.393372	
-0.393066	
-0.394592	
-0.394104	
-0.394836	
-0.394958	
-0.39502	
-0.39563	
-0.393616	
-0.392883	
-0.393799	
-0.393433	
-0.393677	
-0.392822	
-0.395752	
-0.396912	
-0.39679	
-0.397583	
-0.397217	
-0.397644	
-0.397461	
-0.397339	
-0.396057	
-0.396729	
-0.396362	
-0.3974	
-0.397095	
-0.398193	
-0.399597	
-0.398621	
-0.398499	
-0.397583	
-0.398743	
-0.398743	
-0.398621	
-0.399353	
-0.399475	
-0.399597	
-0.400574	
-0.400208	
-0.400574	
-0.400085	
-0.400024	
-0.400269	
-0.399536	
-0.400391	
-0.400208	
-0.400085	
-0.400146	
-0.400452	
-0.401062	
-0.400879	
-0.399902	
-0.398926	
-0.399231	
-0.399658	
-0.400513	
-0.400513	
-0.40033	
-0.401062	
-0.400146	
-0.399658	
-0.399048	
-0.398621	
-0.397583	
-0.397644	
-0.397217	
-0.396912	
-0.396179	
-0.396729	
-0.395813	
-0.394958	
-0.393738	
-0.393311	
-0.392761	
-0.392151	
-0.391418	
-0.391235	
-0.390442	
-0.390198	
-0.389771	
-0.389343	
-0.388672	
-0.387268	
-0.38623	
-0.385925	
-0.385681	
-0.385864	
-0.383423	
-0.381958	
-0.382324	
-0.38147	
-0.381104	
-0.381042	
-0.38269	
-0.384338	
-0.384583	
-0.385559	
-0.38623	
-0.38678	
-0.387634	
-0.387573	
-0.388245	
-0.389343	
-0.390198	
-0.390991	
-0.392151	
-0.39386	
-0.395874	
-0.397217	
-0.398926	
-0.399597	
-0.401489	
-0.40155	
-0.402466	
-0.403137	
-0.403931	
-0.40686	
-0.407959	
-0.409607	
-0.412903	
-0.415344	
-0.418335	
-0.420288	
-0.424438	
-0.426941	
-0.43042	
-0.434998	
-0.438171	
-0.441467	
-0.445313	
-0.446655	
-0.449402	
-0.450195	
-0.451965	
-0.452942	
-0.453247	
-0.455322	
-0.456177	
-0.458008	
-0.460754	
-0.460876	
-0.462585	
-0.463318	
-0.464661	
-0.465088	
-0.46698	
-0.469055	
-0.46991	
-0.471191	
-0.472046	
-0.47229	
-0.472229	
-0.471375	
-0.47113	
-0.471008	
-0.470215	
-0.469604	
-0.470032	
-0.469299	
-0.468567	
-0.467957	
-0.466187	
-0.465393	
-0.464233	
-0.462769	
-0.46167	
-0.4599	
-0.459412	
-0.458313	
-0.457214	
-0.455811	
-0.453552	
-0.451599	
-0.450256	
-0.447998	
-0.445862	
-0.444336	
-0.443604	
-0.441772	
-0.440247	
-0.438904	
-0.436707	
-0.434692	
-0.43335	
-0.430786	
-0.428345	
-0.427551	
-0.42688	
-0.42572	
-0.425354	
-0.425293	
-0.425476	
-0.425415	
-0.425415	
-0.425049	
-0.425659	
-0.425964	
-0.425415	
-0.426941	
-0.427063	
-0.427429	
-0.427551	
-0.425842	
-0.424866	
-0.423584	
-0.423157	
-0.422058	
-0.420776	
-0.419556	
-0.419067	
-0.417969	
-0.417847	
-0.414917	
-0.413269	
-0.410217	
-0.409302	
-0.406555	
-0.404846	
-0.401917	
-0.399963	
-0.397339	
-0.395752	
-0.392029	
-0.391174	
-0.387878	
-0.385437	
-0.38208	
-0.379822	
-0.377991	
-0.376648	
-0.374878	
-0.374146	
-0.373779	
-0.372864	
-0.372437	
-0.371582	
-0.372742	
-0.373779	
-0.375183	
-0.376953	
-0.379456	
-0.381592	
-0.384277	
-0.386841	
-0.388367	
-0.390503	
-0.393005	
-0.395264	
-0.397705	
-0.399963	
-0.401917	
-0.403748	
-0.405212	
-0.407288	
-0.408142	
-0.409424	
-0.410339	
-0.411316	
-0.412109	
-0.413147	
-0.413757	
-0.414246	
-0.415283	
-0.414856	
-0.415161	
-0.415833	
-0.415955	
-0.414978	
-0.414185	
-0.414185	
-0.414856	
-0.414551	
-0.414551	
-0.414124	
-0.413696	
-0.411621	
-0.412048	
-0.411011	
-0.411072	
-0.409973	
-0.410522	
-0.410034	
-0.410156	
-0.409363	
-0.408875	
-0.408203	
-0.408325	
-0.406189	
-0.405823	
-0.404053	
-0.404541	
-0.403992	
-0.40332	
-0.402222	
-0.401611	
-0.400208	
-0.399902	
-0.397095	
-0.396362	
-0.393799	
-0.392822	
-0.39093	
-0.389099	
-0.387695	
-0.385803	
-0.383118	
-0.379822	
-0.37616	
-0.372864	
-0.370422	
-0.368347	
-0.36554	
-0.363159	
-0.361328	
-0.358032	
-0.355835	
-0.351318	
-0.349365	
-0.345947	
-0.343811	
-0.341064	
-0.338562	
-0.335876	
-0.334167	
-0.331299	
-0.329468	
-0.326721	
-0.326172	
-0.324402	
-0.324097	
-0.323425	
-0.323486	
-0.324402	
-0.3255	
-0.325623	
-0.32605	
-0.326294	
-0.327881	
-0.328186	
-0.329102	
-0.329834	
-0.331909	
-0.333679	
-0.335144	
-0.335938	
-0.337097	
-0.336914	
-0.339233	
-0.340149	
-0.341187	
-0.342651	
-0.344116	
-0.345459	
-0.347229	
-0.348022	
-0.349792	
-0.349548	
-0.351257	
-0.352112	
-0.353333	
-0.354614	
-0.355713	
-0.357178	
-0.358154	
-0.357971	
-0.359314	
-0.359009	
-0.359741	
-0.360046	
-0.360413	
-0.361267	
-0.361877	
-0.362061	
-0.362549	
-0.363342	
-0.364136	
-0.364136	
-0.363525	
-0.364136	
-0.364685	
-0.365662	
-0.365784	
-0.366211	
-0.36615	
-0.365967	
-0.365906	
-0.366333	
-0.365845	
-0.365173	
-0.365112	
-0.366211	
-0.366394	
-0.36676	
-0.367065	
-0.367432	
-0.367737	
-0.369019	
-0.368713	
-0.368713	
-0.368591	
-0.369873	
-0.370361	
-0.371216	
-0.371765	
-0.371704	
-0.371948	
-0.372803	
-0.372192	
-0.371826	
-0.370972	
-0.372803	
-0.372498	
-0.37262	
-0.372498	
-0.372375	
-0.372192	
-0.37262	
-0.372009	
-0.371765	
-0.37146	
-0.372437	
-0.373169	
-0.373535	
-0.374634	
-0.374878	
-0.375122	
-0.375916	
-0.375366	
-0.375488	
-0.37561	
-0.376465	
-0.37677	
-0.377258	
-0.378906	
-0.37793	
-0.378845	
-0.378784	
-0.378845	
-0.378601	
-0.377625	
-0.378235	
-0.378723	
-0.37915	
-0.379578	
-0.378357	
-0.378479	
-0.378479	
-0.378906	
-0.378174	
-0.377258	
-0.377014	
-0.37854	
-0.378906	
-0.379578	
-0.379395	
-0.380249	
-0.380432	
-0.381165	
-0.379578	
-0.378967	
-0.37854	
-0.379822	
-0.379822	
-0.380493	
-0.379822	
-0.380371	
-0.380737	
-0.380493	
-0.379333	
-0.378235	
-0.378906	
-0.380005	
-0.380127	
-0.381042	
-0.380249	
-0.38031	
-0.381409	
-0.382019	
-0.381714	
-0.380066	
-0.381531	
-0.382324	
-0.382996	
-0.38385	
-0.383667	
-0.384338	
-0.385376	
-0.385132	
-0.385193	
-0.383545	
-0.385498	
-0.386292	
-0.386597	
-0.386902	
-0.387451	
-0.387207	
-0.388672	
-0.387817	
-0.387512	
-0.385681	
-0.387085	
-0.388306	
-0.388245	
-0.388855	
-0.388489	
-0.388489	
-0.390015	
-0.389038	
-0.388489	
-0.386353	
-0.387329	
-0.388367	
-0.388672	
-0.389404	
-0.389038	
-0.38855	
-0.389465	
-0.388489	
-0.388367	
-0.386475	
-0.387878	
-0.388123	
-0.388245	
-0.389221	
-0.388306	
-0.387695	
-0.388367	
-0.387695	
-0.386963	
-0.385925	
-0.386902	
-0.386963	
-0.38678	
-0.387085	
-0.386658	
-0.386719	
-0.386108	
-0.385986	
-0.38562	
-0.385559	
-0.385315	
-0.384766	
-0.385254	
-0.385193	
-0.384827	
-0.385559	
-0.384949	
-0.384644	
-0.383911	
-0.383545	
-0.383667	
-0.383362	
-0.383911	
-0.383728	
-0.384338	
-0.383667	
-0.383484	
-0.383301	
-0.383057	
-0.382813	
-0.38147	
-0.382935	
-0.383423	
-0.383423	
-0.384399	
-0.383606	
-0.383545	
-0.384216	
-0.383423	
-0.383606	
-0.381958	
-0.383301	
-0.383423	
-0.382874	
-0.383545	
-0.382385	
-0.382507	
-0.381714	
-0.381592	
-0.381714	
-0.380127	
-0.380737	
-0.379639	
-0.380249	
-0.381348	
-0.380859	
-0.381348	
-0.381226	
-0.381836	
-0.381042	
-0.381714	
-0.381592	
-0.382263	
-0.38324	
-0.384216	
-0.384155	
-0.384949	
-0.384155	
-0.385681	
-0.384277	
-0.385315	
-0.38562	
-0.386169	
-0.386963	
-0.388	
-0.388	
-0.389038	
-0.389038	
-0.390503	
-0.389832	
-0.390686	
-0.390503	
-0.390991	
-0.390869	
-0.392029	
-0.391479	
-0.391907	
-0.391418	
-0.392578	
-0.392761	
-0.393372	
-0.392883	
-0.393127	
-0.392456	
-0.394104	
-0.393921	
-0.394165	
-0.39447	
-0.394897	
-0.394287	
-0.395447	
-0.394043	
-0.394714	
-0.394287	
-0.395264	
-0.395325	
-0.395569	
-0.395813	
-0.396118	
-0.396301	
-0.39447	
-0.394226	
-0.393738	
-0.394287	
-0.39447	
-0.393677	
-0.393555	
-0.393616	
-0.393738	
-0.392944	
-0.392639	
-0.391663	
-0.391663	
-0.392029	
-0.392334	
-0.392029	
-0.391968	
-0.391907	
-0.392334	
-0.391357	
-0.391174	
-0.391968	
-0.39209	
-0.391968	
-0.391357	
-0.392151	
-0.392456	
-0.392639	
-0.393677	
-0.392822	
-0.393005	
-0.392334	
-0.392883	
-0.393921	
-0.394043	
-0.394531	
-0.394348	
-0.39447	
-0.395752	
-0.394836	
-0.394958	
-0.39386	
-0.394836	
-0.395386	
-0.394897	
-0.395264	
-0.39502	
-0.39502	
-0.395691	
-0.395203	
-0.39563	
-0.394897	
-0.395691	
-0.394836	
-0.395874	
-0.396301	
-0.396545	
-0.396362	
-0.396973	
-0.396912	
-0.397827	
-0.396729	
-0.397644	
-0.39679	
-0.397766	
-0.397888	
-0.398376	
-0.397766	
-0.398193	
-0.398621	
-0.398193	
-0.397888	
-0.398743	
-0.397644	
-0.397522	
-0.397217	
-0.397644	
-0.3974	
-0.397217	
-0.39917	
-0.398132	
-0.398193	
-0.396484	
-0.397644	
-0.397461	
-0.397095	
-0.397461	
-0.3974	
-0.397217	
-0.399353	
-0.3974	
-0.397156	
-0.395813	
-0.3974	
-0.397278	
-0.398132	
-0.3974	
-0.397461	
-0.396484	
-0.398865	
-0.397705	
-0.398499	
-0.396667	
-0.397888	
-0.396362	
-0.398132	
-0.397949	
-0.397522	
-0.396912	
-0.398804	
-0.398193	
-0.398926	
-0.397949	
-0.398682	
-0.397278	
-0.397766	
-0.397156	
-0.396729	
-0.396362	
-0.397034	
-0.396362	
-0.39624	
-0.395569	
-0.395752	
-0.39563	
-0.395752	
-0.395508	
-0.395447	
-0.394958	
-0.395325	
-0.395691	
-0.395081	
-0.39563	
-0.394592	
-0.395142	
-0.394714	
-0.395447	
-0.395264	
-0.395325	
-0.395996	
-0.397156	
-0.395691	
-0.396179	
-0.394287	
-0.395325	
-0.394836	
-0.394592	
-0.395325	
-0.394958	
-0.395508	
-0.396545	
-0.395325	
-0.395935	
-0.395386	
-0.396057	
-0.395935	
-0.395752	
-0.396301	
-0.396667	
-0.39624	
-0.39679	
-0.396423	
-0.396606	
-0.396912	
-0.396973	
-0.396973	
-0.397827	
-0.397522	
-0.397705	
-0.397278	
-0.398376	
-0.398315	
-0.397766	
-0.398743	
-0.396667	
-0.397461	
-0.39679	
-0.397278	
-0.396851	
-0.395752	
-0.397034	
-0.398499	
-0.396362	
-0.396729	
-0.394409	
-0.39563	
-0.395874	
-0.395508	
-0.39563	
-0.394775	
-0.395447	
-0.396179	
-0.394958	
-0.394958	
-0.393372	
-0.394165	
-0.394348	
-0.393921	
-0.393921	
-0.393616	
-0.394043	
-0.393799	
-0.39386	
-0.393677	
-0.39386	
-0.392639	
-0.392639	
-0.391785	
-0.392761	
-0.392639	
-0.392944	
-0.393188	
-0.393738	
-0.392883	
-0.394226	
-0.391968	
-0.392639	
-0.391357	
-0.392273	
-0.3927	
-0.3927	
-0.393127	
-0.393677	
-0.393188	
-0.394531	
-0.391907	
-0.392456	
-0.39093	
-0.392212	
-0.392212	
-0.391846	
-0.39209	
-0.392456	
-0.391968	
-0.392822	
-0.390564	
-0.391541	
-0.391235	
-0.391479	
-0.391052	
-0.390808	
-0.391602	
-0.392151	
-0.392578	
-0.39209	
-0.391418	
-0.390381	
-0.391907	
-0.391541	
-0.391479	
-0.39093	
-0.391663	
-0.391724	
-0.391846	
-0.391541	
-0.392212	
-0.391541	
-0.391479	
-0.389832	
-0.391174	
-0.390747	
-0.390991	
-0.391418	
-0.392151	
-0.391602	
-0.392334	
-0.390869	
-0.392273	
-0.391724	
-0.392395	
-0.3927	
-0.3927	
-0.393433	
-0.394531	
-0.394592	
-0.394531	
-0.393066	
-0.393921	
-0.39386	
-0.394348	
-0.393982	
-0.394409	
-0.394287	
-0.394226	
-0.394958	
-0.395264	
-0.393799	
-0.392456	
-0.393433	
-0.393677	
-0.393616	
-0.392578	
-0.393311	
-0.393799	
-0.394714	
-0.394165	
-0.394043	
-0.393005	
-0.393494	
-0.391846	
-0.392334	
-0.391418	
-0.392029	
-0.391846	
-0.392029	
-0.391357	
-0.391663	
-0.389832	
-0.39093	
-0.389832	
-0.39032	
-0.390015	
-0.390076	
-0.389587	
-0.390198	
-0.389587	
-0.389465	
-0.387634	
-0.388123	
-0.388123	
-0.388184	
-0.388245	
-0.388245	
-0.388672	
-0.38916	
-0.389526	
-0.389587	
-0.388123	
-0.387573	
-0.388367	
-0.388367	
-0.388245	
-0.387512	
-0.388489	
-0.388916	
-0.389465	
-0.390381	
-0.389954	
-0.390137	
-0.390564	
-0.391357	
-0.391113	
-0.391602	
-0.392151	
-0.392395	
-0.392578	
-0.393127	
-0.392944	
-0.392395	
-0.392456	
-0.391479	
-0.392761	
-0.393066	
-0.393799	
-0.393616	
-0.394043	
-0.39386	
-0.39386	
-0.392761	
-0.392578	
-0.391968	
-0.392517	
-0.392151	
-0.392822	
-0.392151	
-0.392822	
-0.392883	
-0.392761	
-0.390076	
-0.390625	
-0.390076	
-0.390564	
-0.390076	
-0.388855	
-0.390381	
-0.390503	
-0.390625	
-0.390686	
-0.38916	
-0.389465	
-0.389343	
-0.389526	
-0.389587	
-0.389343	
-0.389771	
-0.389587	
-0.389771	
-0.389648	
-0.388306	
-0.388184	
-0.388	
-0.388	
-0.387817	
-0.387695	
-0.387878	
-0.387939	
-0.387573	
-0.389038	
-0.387939	
-0.387268	
-0.386108	
-0.387207	
-0.387329	
-0.387024	
-0.387451	
-0.387756	
-0.38855	
-0.388855	
-0.388916	
-0.386658	
-0.387207	
-0.38739	
-0.388184	
-0.387817	
-0.387268	
-0.387634	
-0.388306	
-0.387878	
-0.389404	
-0.387024	
-0.387695	
-0.387756	
-0.388794	
-0.388123	
-0.387085	
-0.388245	
-0.388367	
-0.388306	
-0.388733	
-0.387695	
-0.38739	
-0.387817	
-0.387329	
-0.387817	
-0.387207	
-0.387634	
-0.387695	
-0.388123	
-0.388611	
-0.387634	
-0.38678	
-0.386292	
-0.387085	
-0.387207	
-0.387024	
-0.38739	
-0.387573	
-0.389221	
-0.389465	
-0.389587	
-0.388123	
-0.388	
-0.388	
-0.389221	
-0.389526	
-0.389221	
-0.389282	
-0.389771	
-0.390442	
-0.391724	
-0.389648	
-0.389954	
-0.388794	
-0.390137	
-0.390259	
-0.388977	
-0.39032	
-0.390625	
-0.390869	
-0.390808	
-0.389893	
-0.389587	
-0.390198	
-0.389832	
-0.389832	
-0.389038	
-0.389832	
-0.390259	
-0.391113	
-0.39093	
-0.390625	
-0.389282	
-0.389587	
-0.390076	
-0.390076	
-0.389404	
-0.389221	
-0.389282	
-0.389282	
-0.389893	
-0.390747	
-0.388489	
-0.387329	
-0.386536	
-0.38855	
-0.38855	
-0.388306	
-0.388428	
-0.388306	
-0.388672	
-0.38855	
-0.386902	
-0.387085	
-0.387451	
-0.387451	
-0.387756	
-0.386536	
-0.388	
-0.388123	
-0.388733	
-0.388794	
-0.388611	
-0.387146	
-0.388428	
-0.388855	
-0.388916	
-0.388733	
-0.389099	
-0.389404	
-0.390686	
-0.390381	
-0.390747	
-0.38916	
-0.389526	
-0.389282	
-0.390137	
-0.390259	
-0.390442	
-0.390808	
-0.391479	
-0.392273	
-0.392944	
-0.391235	
-0.391052	
-0.389709	
-0.391663	
-0.392029	
-0.392395	
-0.392029	
-0.392334	
-0.392761	
-0.393127	
-0.392578	
-0.392517	
-0.393066	
-0.393616	
-0.392944	
-0.391907	
-0.393066	
-0.393372	
-0.393799	
-0.393311	
-0.392883	
-0.391663	
-0.3927	
-0.392578	
-0.392639	
-0.392029	
-0.393005	
-0.392822	
-0.393555	
-0.39386	
-0.394104	
-0.392456	
-0.392578	
-0.392334	
-0.393433	
-0.393555	
-0.393616	
-0.393311	
-0.394043	
-0.394226	
-0.39502	
-0.393433	
-0.393433	
-0.393005	
-0.393677	
-0.393555	
-0.392822	
-0.393921	
-0.393555	
-0.394348	
-0.394714	
-0.39386	
-0.393616	
-0.39386	
-0.393677	
-0.393799	
-0.393372	
-0.394104	
-0.394592	
-0.394775	
-0.39563	
-0.395081	
-0.393616	
-0.39325	
-0.392944	
-0.394043	
-0.393738	
-0.394043	
-0.393738	
-0.393433	
-0.39386	
-0.393982	
-0.392151	
-0.391907	
-0.391663	
-0.391724	
-0.391296	
-0.391418	
-0.391235	
-0.391479	
-0.392029	
-0.392151	
-0.39093	
-0.390015	
-0.39093	
-0.390869	
-0.39093	
-0.390259	
-0.391479	
-0.391418	
-0.392273	
-0.393555	
-0.392151	
-0.391113	
-0.39032	
-0.390747	
-0.391663	
-0.391724	
-0.392212	
-0.392395	
-0.393005	
-0.394287	
-0.393616	
-0.393188	
-0.39325	
-0.393799	
-0.394104	
-0.393982	
-0.394043	
-0.394165	
-0.394592	
-0.395264	
-0.395325	
-0.394897	
-0.394836	
-0.395996	
-0.396179	
-0.395996	
-0.395264	
-0.396545	
-0.396667	
-0.397583	
-0.39801	
-0.397583	
-0.396179	
-0.396362	
-0.395569	
-0.397034	
-0.395752	
-0.396851	
-0.397217	
-0.397095	
-0.398071	
-0.3974	
-0.395996	
-0.395996	
-0.39563	
-0.395569	
-0.395081	
-0.39447	
-0.39447	
-0.393982	
-0.393921	
-0.393555	
-0.392517	
-0.392029	
-0.391785	
-0.391968	
-0.391418	
-0.391479	
-0.391785	
-0.391785	
-0.392517	
-0.392639	
-0.392029	
-0.390076	
-0.390625	
-0.39032	
-0.391724	
-0.390808	
-0.391968	
-0.392029	
-0.392578	
-0.393555	
-0.392944	
-0.39209	
-0.391846	
-0.392517	
-0.392883	
-0.3927	
-0.393555	
-0.393372	
-0.39447	
-0.394958	
-0.394348	
-0.394104	
-0.394165	
-0.394287	
-0.394348	
-0.393982	
-0.394348	
-0.394165	
-0.394592	
-0.395447	
-0.395203	
-0.395569	
-0.393677	
-0.39386	
-0.393982	
-0.394836	
-0.394958	
-0.395874	
-0.395996	
-0.397034	
-0.397339	
-0.397278	
-0.395752	
-0.395752	
-0.396301	
-0.396973	
-0.396484	
-0.396912	
-0.396912	
-0.397278	
-0.397705	
-0.3974	
-0.39679	
-0.397278	
-0.396118	
-0.395935	
-0.395813	
-0.396667	
-0.396423	
-0.396423	
-0.396851	
-0.396667	
-0.396118	
-0.396301	
-0.395996	
-0.395935	
-0.395691	
-0.395752	
-0.39624	
-0.395874	
-0.396667	
-0.396729	
-0.395752	
-0.394592	
-0.394348	
-0.395081	
-0.395752	
-0.395813	
-0.395996	
-0.395996	
-0.39624	
-0.397339	
-0.396057	
-0.39563	
-0.395691	
-0.396118	
-0.39624	
-0.395386	
-0.39624	
-0.396301	
-0.396729	
-0.396912	
-0.396423	
-0.396912	
-0.396606	
-0.395691	
-0.394531	
-0.393982	
-0.394592	
-0.394104	
-0.394653	
-0.394897	
-0.394958	
-0.394287	
-0.393616	
-0.392578	
-0.392517	
-0.393372	
-0.394043	
-0.393188	
-0.393311	
-0.39386	
-0.394653	
-0.393433	
-0.392822	
-0.392151	
-0.392944	
-0.392944	
-0.393188	
-0.39325	
-0.393127	
-0.393372	
-0.393799	
-0.39325	
-0.393005	
-0.393433	
-0.392822	
-0.393066	
-0.392212	
-0.39325	
-0.393433	
-0.393433	
-0.394348	
-0.394897	
-0.394653	
-0.39325	
-0.392883	
-0.393005	
-0.394104	
-0.394226	
-0.394592	
-0.39447	
-0.395325	
-0.395569	
-0.395081	
-0.394836	
-0.394043	
-0.394775	
-0.394958	
-0.395325	
-0.395447	
-0.39563	
-0.395935	
-0.396118	
-0.396667	
-0.395447	
-0.395752	
-0.394958	
-0.394653	
-0.393738	
-0.394775	
-0.394348	
-0.394287	
-0.394836	
-0.394897	
-0.394043	
-0.392761	
-0.391602	
-0.392761	
-0.392822	
-0.392639	
-0.392395	
-0.392517	
-0.392822	
-0.393311	
-0.392883	
-0.392151	
-0.390625	
-0.390381	
-0.391052	
-0.391296	
-0.391418	
-0.391174	
-0.391174	
-0.391541	
-0.391663	
-0.389771	
-0.390015	
-0.389954	
-0.390686	
-0.390015	
-0.390137	
-0.390381	
-0.390076	
-0.391357	
-0.391602	
-0.390381	
-0.389771	
-0.388489	
-0.389771	
-0.389648	
-0.39093	
-0.391052	
-0.390625	
-0.390686	
-0.391174	
-0.390564	
-0.390137	
-0.388794	
-0.389709	
-0.389587	
-0.389587	
-0.389221	
-0.389587	
-0.389526	
-0.389771	
-0.390076	
-0.38916	
-0.388611	
-0.388306	
-0.389038	
-0.38916	
-0.388916	
-0.388855	
-0.388916	
-0.389954	
-0.390381	
-0.389282	
-0.387939	
-0.387756	
-0.388977	
-0.388733	
-0.389038	
-0.388916	
-0.389038	
-0.389343	
-0.390259	
-0.38855	
-0.38855	
-0.387268	
-0.388245	
-0.388367	
-0.388672	
-0.388489	
-0.388733	
-0.388916	
-0.389709	
-0.389587	
-0.390259	
-0.389038	
-0.390198	
-0.389404	
-0.390503	
-0.390503	
-0.391052	
-0.390991	
-0.392029	
-0.393066	
-0.391418	
-0.389648	
-0.388245	
-0.391296	
-0.391541	
-0.391235	
-0.391296	
-0.391235	
-0.392273	
-0.393188	
-0.391174	
-0.391174	
-0.389587	
-0.390625	
-0.390991	
-0.391235	
-0.391113	
-0.390991	
-0.39093	
-0.391541	
-0.390442	
-0.390503	
-0.389099	
-0.38916	
-0.388123	
-0.388977	
-0.388489	
-0.388428	
-0.388428	
-0.389282	
-0.389893	
-0.388184	
-0.386963	
-0.386047	
-0.386902	
-0.387024	
-0.386841	
-0.386597	
-0.386475	
-0.387451	
-0.388367	
-0.386414	
-0.384521	
-0.383728	
-0.38562	
-0.385803	
-0.385742	
-0.385986	
-0.385742	
-0.386719	
-0.38678	
-0.385864	
-0.385681	
-0.385315	
-0.38562	
-0.384949	
-0.38623	
-0.386719	
-0.387024	
-0.388	
-0.38855	
-0.388489	
-0.389038	
-0.388672	
-0.389038	
-0.388916	
-0.389709	
-0.390076	
-0.390198	
-0.390564	
-0.390686	
-0.391907	
-0.390198	
-0.390686	
-0.388672	
-0.390747	
-0.391357	
-0.391235	
-0.391418	
-0.391296	
-0.391785	
-0.392822	
-0.390869	
-0.389954	
-0.38916	
-0.390503	
-0.389771	
-0.390442	
-0.390137	
-0.389404	
-0.389526	
-0.389954	
-0.388611	
-0.389038	
-0.387756	
-0.388123	
-0.387634	
-0.388245	
-0.388	
-0.387756	
-0.388123	
-0.389038	
-0.388672	
-0.388306	
-0.387756	
-0.387024	
-0.387634	
-0.387451	
-0.387268	
-0.387085	
-0.387268	
-0.387939	
-0.389099	
-0.38623	
-0.385193	
-0.383362	
-0.385925	
-0.385864	
-0.386047	
-0.385742	
-0.385742	
-0.386536	
-0.387451	
-0.385925	
-0.385559	
-0.38446	
-0.385681	
-0.384827	
-0.386169	
-0.386108	
-0.386475	
-0.38678	
-0.386902	
-0.386719	
-0.385986	
-0.385803	
-0.384888	
-0.385681	
-0.386292	
-0.386597	
-0.386353	
-0.386536	
-0.386719	
-0.387207	
-0.38678	
-0.386658	
-0.386292	
-0.386475	
-0.386902	
-0.38678	
-0.386597	
-0.386719	
-0.387695	
-0.387817	
-0.386169	
-0.386047	
-0.38446	
-0.385986	
-0.385132	
-0.386597	
-0.386475	
-0.386353	
-0.386414	
-0.387634	
-0.386292	
-0.386169	
-0.384277	
-0.386108	
-0.386414	
-0.386658	
-0.386719	
-0.387268	
-0.387878	
-0.388306	
-0.38855	
-0.388	
-0.387451	
-0.387024	
-0.38855	
-0.388428	
-0.388123	
-0.388367	
-0.389038	
-0.390015	
-0.389343	
-0.388916	
-0.388062	
-0.388611	
-0.388672	
-0.388489	
-0.389221	
-0.389404	
-0.388977	
-0.389709	
-0.390503	
-0.389038	
-0.389221	
-0.387695	
-0.389221	
-0.388367	
-0.389404	
-0.389343	
-0.389343	
-0.390015	
-0.390076	
-0.389587	
-0.389343	
-0.387573	
-0.388672	
-0.387878	
-0.388	
-0.387756	
-0.388123	
-0.388123	
-0.388916	
-0.388855	
-0.387756	
-0.387146	
-0.386475	
-0.387268	
-0.386841	
-0.386902	
-0.386597	
-0.387024	
-0.387695	
-0.388245	
	
