E:\DOCUMENTS AND SETTINGS\JPOTAS\MEUS DOCUMENTOS\UFRJ\RSCI-BM 12 WK SERIES\070719-RSCI-BM-02\RSCI-BM-02-REMG\070719-RSCI-BM-02-REMG-0004.ACQ
0.025000 msec/sample
1 channel
Analog input
Volts
CH1	
2000	
-0.396301	
-0.396301	
-0.395996	
-0.395996	
-0.395264	
-0.396667	
-0.395996	
-0.395447	
-0.394592	
-0.39563	
-0.395386	
-0.396362	
-0.395874	
-0.39502	
-0.393555	
-0.395691	
-0.395386	
-0.395813	
-0.394531	
-0.395325	
-0.394043	
-0.395874	
-0.396606	
-0.395691	
-0.395691	
-0.395203	
-0.395996	
-0.397217	
-0.395691	
-0.395996	
-0.39502	
-0.396301	
-0.397766	
-0.397217	
-0.397644	
-0.397217	
-0.398987	
-0.398926	
-0.399231	
-0.398071	
-0.398499	
-0.398987	
-0.399963	
-0.399536	
-0.39917	
-0.398865	
-0.39856	
-0.399292	
-0.40033	
-0.398804	
-0.398926	
-0.396667	
-0.39917	
-0.399414	
-0.398682	
-0.398315	
-0.397705	
-0.397766	
-0.398254	
-0.397034	
-0.396606	
-0.396301	
-0.396301	
-0.396545	
-0.395081	
-0.394226	
-0.392151	
-0.39386	
-0.392639	
-0.392029	
-0.390442	
-0.39093	
-0.389404	
-0.390808	
-0.391113	
-0.389893	
-0.390015	
-0.389771	
-0.390137	
-0.39093	
-0.389648	
-0.389648	
-0.388733	
-0.389832	
-0.390442	
-0.389404	
-0.389893	
-0.389832	
-0.389954	
-0.390564	
-0.389771	
-0.389954	
-0.389465	
-0.390076	
-0.391479	
-0.390442	
-0.390869	
-0.390198	
-0.391724	
-0.391663	
-0.392456	
-0.390869	
-0.391541	
-0.392151	
-0.393738	
-0.394531	
-0.394409	
-0.394348	
-0.394836	
-0.395386	
-0.395447	
-0.394653	
-0.39502	
-0.394043	
-0.395447	
-0.396118	
-0.395813	
-0.395386	
-0.395203	
-0.395996	
-0.396606	
-0.396484	
-0.395386	
-0.394897	
-0.394714	
-0.396667	
-0.396545	
-0.395508	
-0.394043	
-0.394531	
-0.395203	
-0.395447	
-0.393738	
-0.39386	
-0.393921	
-0.394348	
-0.394287	
-0.393616	
-0.39325	
-0.393738	
-0.39386	
-0.394287	
-0.393616	
-0.393677	
-0.393127	
-0.393372	
-0.39386	
-0.39325	
-0.393494	
-0.393188	
-0.393616	
-0.394531	
-0.394043	
-0.392639	
-0.392212	
-0.392395	
-0.394043	
-0.393616	
-0.392761	
-0.391907	
-0.392883	
-0.393433	
-0.3927	
-0.392334	
-0.392822	
-0.392761	
-0.393738	
-0.393188	
-0.393372	
-0.392761	
-0.39325	
-0.393738	
-0.393738	
-0.394409	
-0.393616	
-0.393616	
-0.393188	
-0.394409	
-0.394592	
-0.393982	
-0.394409	
-0.394348	
-0.39563	
-0.395447	
-0.394653	
-0.394531	
-0.395813	
-0.396667	
-0.396423	
-0.395874	
-0.395081	
-0.396912	
-0.396484	
-0.396851	
-0.396606	
-0.396179	
-0.396423	
-0.394409	
-0.393311	
-0.392639	
-0.392273	
-0.3927	
-0.392151	
-0.395447	
-0.396545	
-0.395874	
-0.395142	
-0.395752	
-0.395508	
-0.396057	
-0.394897	
-0.394775	
-0.394958	
-0.395081	
-0.393494	
-0.391846	
-0.392212	
-0.391724	
-0.392151	
-0.391357	
-0.39093	
-0.389526	
-0.390503	
-0.39093	
-0.390747	
-0.391174	
-0.390564	
-0.390686	
-0.390686	
-0.390991	
-0.391663	
-0.390564	
-0.390747	
-0.390198	
-0.391663	
-0.392151	
-0.390747	
-0.388184	
-0.387329	
-0.388245	
-0.389099	
-0.389099	
-0.389221	
-0.392517	
-0.393677	
-0.394165	
-0.393311	
-0.394043	
-0.394836	
-0.395813	
-0.396301	
-0.396301	
-0.396179	
-0.397583	
-0.397522	
-0.397766	
-0.398071	
-0.397522	
-0.397766	
-0.398438	
-0.397644	
-0.398254	
-0.396484	
-0.396729	
-0.395935	
-0.396362	
-0.395447	
-0.392944	
-0.393005	
-0.391907	
-0.392639	
-0.392273	
-0.390869	
-0.390869	
-0.390747	
-0.390259	
-0.390076	
-0.388733	
-0.388428	
-0.388367	
-0.388733	
-0.387695	
-0.388123	
-0.387146	
-0.388611	
-0.388245	
-0.389404	
-0.389221	
-0.389954	
-0.390137	
-0.391785	
-0.391724	
-0.393188	
-0.393188	
-0.394958	
-0.395447	
-0.398254	
-0.399475	
-0.39978	
-0.400208	
-0.401794	
-0.403015	
-0.404724	
-0.404419	
-0.405762	
-0.406799	
-0.408875	
-0.409973	
-0.410339	
-0.41272	
-0.41571	
-0.418457	
-0.422302	
-0.424561	
-0.427429	
-0.430237	
-0.434204	
-0.436401	
-0.438049	
-0.440491	
-0.443542	
-0.446167	
-0.448547	
-0.44873	
-0.449707	
-0.450928	
-0.452393	
-0.453186	
-0.452759	
-0.454712	
-0.456116	
-0.457275	
-0.459229	
-0.4599	
-0.461304	
-0.463806	
-0.464661	
-0.466309	
-0.466736	
-0.467896	
-0.468506	
-0.469421	
-0.470154	
-0.470276	
-0.470337	
-0.470642	
-0.471008	
-0.470947	
-0.470337	
-0.469421	
-0.469604	
-0.468689	
-0.467529	
-0.466675	
-0.464783	
-0.465088	
-0.464539	
-0.464417	
-0.462952	
-0.461609	
-0.459961	
-0.458435	
-0.457336	
-0.456177	
-0.452881	
-0.452026	
-0.449036	
-0.448181	
-0.445679	
-0.442932	
-0.439453	
-0.437866	
-0.435791	
-0.434021	
-0.43042	
-0.429077	
-0.426941	
-0.425293	
-0.422852	
-0.420471	
-0.419739	
-0.418823	
-0.418457	
-0.417664	
-0.417236	
-0.416809	
-0.416748	
-0.41626	
-0.415771	
-0.415283	
-0.413818	
-0.413086	
-0.411682	
-0.410095	
-0.408142	
-0.40509	
-0.40387	
-0.401306	
-0.399658	
-0.397095	
-0.394104	
-0.390259	
-0.388733	
-0.38623	
-0.385132	
-0.381531	
-0.379333	
-0.37738	
-0.375244	
-0.373169	
-0.369324	
-0.368225	
-0.366394	
-0.364441	
-0.362	
-0.359314	
-0.357117	
-0.355957	
-0.35321	
-0.351501	
-0.348572	
-0.348083	
-0.347229	
-0.347046	
-0.346985	
-0.346985	
-0.346497	
-0.349243	
-0.349609	
-0.351685	
-0.352539	
-0.353943	
-0.355042	
-0.356873	
-0.358521	
-0.359192	
-0.359619	
-0.361023	
-0.361511	
-0.362915	
-0.362671	
-0.363281	
-0.363953	
-0.364502	
-0.365723	
-0.365967	
-0.367065	
-0.368286	
-0.368652	
-0.370544	
-0.370239	
-0.37146	
-0.371399	
-0.372803	
-0.374695	
-0.375427	
-0.376648	
-0.37793	
-0.378113	
-0.380432	
-0.380371	
-0.381104	
-0.380371	
-0.38208	
-0.383667	
-0.383789	
-0.384644	
-0.385864	
-0.386108	
-0.387939	
-0.387695	
-0.388245	
-0.388367	
-0.388611	
-0.390381	
-0.390991	
-0.391541	
-0.393005	
-0.393372	
-0.394226	
-0.39386	
-0.393921	
-0.393555	
-0.392212	
-0.393494	
-0.39209	
-0.391724	
-0.390686	
-0.389465	
-0.388489	
-0.386597	
-0.384888	
-0.382935	
-0.381653	
-0.380005	
-0.378174	
-0.375244	
-0.374207	
-0.371643	
-0.369446	
-0.366638	
-0.363892	
-0.361267	
-0.359497	
-0.356689	
-0.35376	
-0.350342	
-0.349365	
-0.347046	
-0.345825	
-0.344482	
-0.343506	
-0.342651	
-0.343262	
-0.343079	
-0.343811	
-0.343018	
-0.345215	
-0.345642	
-0.346985	
-0.347534	
-0.348572	
-0.349548	
-0.351074	
-0.35144	
-0.352722	
-0.352356	
-0.355225	
-0.355164	
-0.356567	
-0.356812	
-0.358276	
-0.358582	
-0.360352	
-0.36084	
-0.361206	
-0.361328	
-0.363831	
-0.364014	
-0.364868	
-0.365234	
-0.367004	
-0.368042	
-0.36969	
-0.3703	
-0.371582	
-0.371826	
-0.375122	
-0.375732	
-0.377075	
-0.377197	
-0.378784	
-0.379028	
-0.380615	
-0.379822	
-0.3797	
-0.378967	
-0.380432	
-0.379395	
-0.380005	
-0.379089	
-0.380554	
-0.3797	
-0.380737	
-0.379211	
-0.381226	
-0.380798	
-0.380615	
-0.379395	
-0.380676	
-0.379944	
-0.380127	
-0.378967	
-0.379333	
-0.378601	
-0.379761	
-0.379028	
-0.378601	
-0.378052	
-0.378601	
-0.378784	
-0.378662	
-0.378296	
-0.377869	
-0.378174	
-0.377563	
-0.377319	
-0.375793	
-0.37677	
-0.376648	
-0.376587	
-0.376099	
-0.376221	
-0.375854	
-0.376953	
-0.376953	
-0.377136	
-0.377014	
-0.378601	
-0.378296	
-0.379272	
-0.378601	
-0.379395	
-0.37915	
-0.380737	
-0.381165	
-0.382263	
-0.381714	
-0.382874	
-0.381348	
-0.38324	
-0.382507	
-0.384033	
-0.383423	
-0.384521	
-0.383911	
-0.385559	
-0.385132	
-0.38623	
-0.386108	
-0.387024	
-0.386475	
-0.387573	
-0.387085	
-0.387756	
-0.386841	
-0.388367	
-0.387939	
-0.388672	
-0.388367	
-0.388794	
-0.388977	
-0.390015	
-0.38916	
-0.389221	
-0.388855	
-0.389465	
-0.38916	
-0.38916	
-0.389099	
-0.389099	
-0.388489	
-0.389282	
-0.388977	
-0.388794	
-0.388916	
-0.388489	
-0.388916	
-0.387634	
-0.388184	
-0.38855	
-0.388	
-0.388672	
-0.387756	
-0.387878	
-0.387695	
-0.388	
-0.388672	
-0.388062	
-0.388489	
-0.388062	
-0.388306	
-0.38916	
-0.388	
-0.388367	
-0.388672	
-0.387695	
-0.388306	
-0.387024	
-0.387451	
-0.388	
-0.38739	
-0.388062	
-0.385986	
-0.387146	
-0.387146	
-0.386841	
-0.387634	
-0.386902	
-0.387268	
-0.387817	
-0.387634	
-0.388245	
-0.386536	
-0.387817	
-0.387939	
-0.388306	
-0.388428	
-0.388489	
-0.388977	
-0.389465	
-0.389343	
-0.390076	
-0.389893	
-0.390259	
-0.389832	
-0.390503	
-0.390991	
-0.391235	
-0.391663	
-0.392151	
-0.392212	
-0.393433	
-0.393188	
-0.393372	
-0.393127	
-0.393127	
-0.39325	
-0.393494	
-0.393188	
-0.393127	
-0.391479	
-0.39325	
-0.392578	
-0.3927	
-0.392517	
-0.392639	
-0.392456	
-0.393005	
-0.39325	
-0.39325	
-0.391296	
-0.391785	
-0.391174	
-0.391907	
-0.391541	
-0.391296	
-0.391296	
-0.391235	
-0.391113	
-0.390259	
-0.389404	
-0.389099	
-0.388306	
-0.387512	
-0.387085	
-0.38678	
-0.385925	
-0.385071	
-0.385498	
-0.384888	
-0.384521	
-0.384399	
-0.383911	
-0.383606	
-0.384033	
-0.383728	
-0.383728	
-0.383789	
-0.384277	
-0.383606	
-0.384644	
-0.384033	
-0.384155	
-0.382996	
-0.38385	
-0.384521	
-0.384033	
-0.384155	
-0.384644	
-0.384705	
-0.385071	
-0.385132	
-0.386414	
-0.385803	
-0.38562	
-0.385559	
-0.385864	
-0.386353	
-0.387146	
-0.387878	
-0.388367	
-0.387268	
-0.389282	
-0.389038	
-0.389648	
-0.390503	
-0.389771	
-0.390076	
-0.390625	
-0.390869	
-0.391052	
-0.390564	
-0.391479	
-0.391296	
-0.390686	
-0.39209	
-0.391663	
-0.391418	
-0.391479	
-0.392395	
-0.391602	
-0.391907	
-0.391235	
-0.391174	
-0.390015	
-0.391174	
-0.390747	
-0.390015	
-0.389343	
-0.390015	
-0.389526	
-0.389343	
-0.388428	
-0.389526	
-0.388123	
-0.389465	
-0.387939	
-0.387878	
-0.387695	
-0.388489	
-0.388	
-0.387939	
-0.38739	
-0.388733	
-0.387878	
-0.388306	
-0.38678	
-0.388	
-0.387939	
-0.388489	
-0.388306	
-0.388	
-0.388184	
-0.388977	
-0.388428	
-0.38855	
-0.388184	
-0.388184	
-0.388672	
-0.389771	
-0.388794	
-0.388733	
-0.388733	
-0.389709	
-0.389038	
-0.388733	
-0.389832	
-0.39032	
-0.390442	
-0.391479	
-0.390869	
-0.390625	
-0.390442	
-0.391418	
-0.391541	
-0.391418	
-0.391907	
-0.392151	
-0.392334	
-0.393066	
-0.392761	
-0.392822	
-0.393311	
-0.39386	
-0.394592	
-0.394104	
-0.39447	
-0.392944	
-0.394348	
-0.393982	
-0.394836	
-0.394043	
-0.393616	
-0.39325	
-0.394592	
-0.393677	
-0.394043	
-0.392761	
-0.39325	
-0.392212	
-0.393921	
-0.392395	
-0.392273	
-0.392029	
-0.392456	
-0.391907	
-0.391052	
-0.390442	
-0.390808	
-0.389282	
-0.390869	
-0.388977	
-0.388489	
-0.387695	
-0.388	
-0.387451	
-0.387146	
-0.387024	
-0.386902	
-0.385925	
-0.387268	
-0.386292	
-0.386658	
-0.386047	
-0.386108	
-0.38623	
-0.385864	
-0.385742	
-0.385681	
-0.385742	
-0.386536	
-0.386963	
-0.38623	
-0.386108	
-0.385071	
-0.387085	
-0.386475	
-0.386353	
-0.385803	
-0.386963	
-0.387573	
-0.387817	
-0.387756	
-0.387695	
-0.388306	
-0.389221	
-0.38916	
-0.389954	
-0.390015	
-0.390564	
-0.391174	
-0.392395	
-0.392761	
-0.392822	
-0.3927	
-0.394043	
-0.393677	
-0.393921	
-0.393799	
-0.393738	
-0.394165	
-0.395142	
-0.395386	
-0.394775	
-0.393799	
-0.393372	
-0.394836	
-0.395142	
-0.394165	
-0.394409	
-0.394043	
-0.394592	
-0.394897	
-0.393738	
-0.394043	
-0.393372	
-0.394287	
-0.393127	
-0.392944	
-0.391541	
-0.391235	
-0.392456	
-0.3927	
-0.392334	
-0.392517	
-0.392029	
-0.392822	
-0.391724	
-0.39209	
-0.391113	
-0.39093	
-0.391113	
-0.392212	
-0.391663	
-0.391418	
-0.39093	
-0.39032	
-0.390747	
-0.390747	
-0.390198	
-0.390137	
-0.390259	
-0.391357	
-0.391418	
-0.390625	
-0.389343	
-0.390137	
-0.391174	
-0.390747	
-0.390991	
-0.389832	
-0.390747	
-0.391968	
-0.391296	
-0.391357	
-0.391785	
-0.391541	
-0.392883	
-0.391663	
-0.391846	
-0.390442	
-0.391357	
-0.391846	
-0.391602	
-0.391846	
-0.391846	
-0.391174	
-0.391968	
-0.391479	
-0.391785	
-0.39209	
-0.391479	
-0.392273	
-0.392517	
-0.393188	
-0.393188	
-0.3927	
-0.392151	
-0.392822	
-0.392822	
-0.392761	
-0.392151	
-0.393738	
-0.394043	
-0.394592	
-0.394226	
-0.39325	
-0.39325	
-0.393494	
-0.392944	
-0.392883	
-0.392578	
-0.393188	
-0.393494	
-0.393005	
-0.392761	
-0.391785	
-0.392639	
-0.393066	
-0.392273	
-0.392151	
-0.390747	
-0.391174	
-0.391479	
-0.390503	
-0.39032	
-0.389282	
-0.389526	
-0.390259	
-0.389465	
-0.389404	
-0.388489	
-0.389343	
-0.389404	
-0.389404	
-0.389526	
-0.389954	
-0.389099	
-0.389221	
-0.388611	
-0.389465	
-0.388733	
-0.389648	
-0.389771	
-0.390015	
-0.390625	
-0.390442	
-0.390442	
-0.390015	
-0.391052	
-0.390991	
-0.391296	
-0.391357	
-0.3927	
-0.39325	
-0.39447	
-0.394531	
-0.394836	
-0.395386	
-0.396851	
-0.396118	
-0.396301	
-0.39624	
-0.3974	
-0.397766	
-0.397583	
-0.397644	
-0.397827	
-0.397766	
-0.398315	
-0.396729	
-0.397888	
-0.397644	
-0.398132	
-0.39917	
-0.398804	
-0.399109	
-0.398315	
-0.398499	
-0.399048	
-0.397888	
-0.398438	
-0.3974	
-0.398315	
-0.398987	
-0.398376	
-0.398865	
-0.397766	
-0.397949	
-0.3974	
-0.397827	
-0.396973	
-0.395569	
-0.394165	
-0.395142	
-0.39502	
-0.394531	
-0.393799	
-0.394165	
-0.393677	
-0.393494	
-0.392273	
-0.392639	
-0.39209	
-0.392395	
-0.393555	
-0.392761	
-0.3927	
-0.391724	
-0.392273	
-0.392212	
-0.391479	
-0.392212	
-0.392456	
-0.393005	
-0.393311	
-0.393127	
-0.393738	
-0.393066	
-0.39325	
-0.393494	
-0.393372	
-0.393433	
-0.393127	
-0.393311	
-0.394104	
-0.393677	
-0.394287	
-0.394043	
-0.394226	
-0.394836	
-0.394714	
-0.393799	
-0.392883	
-0.393005	
-0.393677	
-0.393738	
-0.393799	
-0.393799	
-0.394592	
-0.39447	
-0.393982	
-0.392822	
-0.393311	
-0.393555	
-0.394104	
-0.394714	
-0.394043	
-0.395203	
-0.393982	
-0.39502	
-0.393433	
-0.394226	
-0.393982	
-0.394226	
-0.394043	
-0.394958	
-0.394348	
-0.39447	
-0.393311	
-0.393494	
-0.393188	
-0.394043	
-0.393372	
-0.393127	
-0.392212	
-0.393433	
-0.393127	
-0.392639	
-0.392761	
-0.3927	
-0.392151	
-0.392395	
-0.391602	
-0.391296	
-0.391113	
-0.390991	
-0.391296	
-0.390991	
-0.390686	
-0.391541	
-0.39093	
-0.391174	
-0.390015	
-0.389954	
-0.390686	
-0.391113	
-0.391602	
-0.391541	
-0.391602	
-0.391296	
-0.391968	
-0.391724	
-0.391174	
-0.391357	
-0.392334	
-0.391907	
-0.393127	
-0.392517	
-0.393127	
-0.392212	
-0.393433	
-0.392761	
-0.394409	
-0.39447	
-0.394958	
-0.394897	
-0.39624	
-0.396057	
-0.397278	
-0.396118	
-0.397339	
-0.396057	
-0.397705	
-0.396179	
-0.396729	
-0.396179	
-0.397461	
-0.397644	
-0.397034	
-0.396851	
-0.397339	
-0.397522	
-0.397217	
-0.39563	
-0.395691	
-0.395874	
-0.396423	
-0.397217	
-0.39624	
-0.396118	
-0.395264	
-0.396118	
-0.395386	
-0.394592	
-0.393982	
-0.394348	
-0.394043	
-0.393921	
-0.393677	
-0.393372	
-0.391907	
-0.391418	
-0.390076	
-0.39093	
-0.390137	
-0.389771	
-0.388672	
-0.389954	
-0.390137	
-0.390686	
-0.389709	
-0.389465	
-0.389893	
-0.389954	
-0.389282	
-0.388855	
-0.388977	
-0.389832	
-0.390686	
-0.390625	
-0.390869	
-0.389832	
-0.391357	
-0.39093	
-0.390442	
-0.390747	
-0.391052	
-0.391052	
-0.39209	
-0.392334	
-0.39209	
-0.393311	
-0.392578	
-0.393127	
-0.392151	
-0.3927	
-0.392944	
-0.393005	
-0.393311	
-0.393433	
-0.393738	
-0.393799	
-0.393677	
-0.393799	
-0.394287	
-0.39325	
-0.393921	
-0.392761	
-0.394348	
-0.395325	
-0.395081	
-0.394226	
-0.393188	
-0.393494	
-0.394775	
-0.394165	
-0.393433	
-0.394531	
-0.394836	
-0.395264	
-0.395447	
-0.394775	
-0.39502	
-0.394409	
-0.394714	
-0.393127	
-0.393433	
-0.393677	
-0.393555	
-0.39386	
-0.394226	
-0.393555	
-0.393921	
-0.393921	
-0.393982	
-0.39447	
-0.394043	
-0.39386	
-0.392761	
-0.393982	
-0.393982	
-0.39386	
-0.39325	
-0.393005	
-0.393555	
-0.393555	
-0.392822	
-0.392395	
-0.392578	
-0.393066	
-0.393738	
-0.392517	
-0.392273	
-0.391663	
-0.392944	
-0.39209	
-0.391907	
-0.391479	
-0.392212	
-0.39209	
-0.392944	
-0.392944	
-0.392578	
-0.392151	
-0.392944	
-0.392517	
-0.392517	
-0.391785	
-0.392212	
-0.3927	
-0.393127	
-0.394165	
-0.393677	
-0.394226	
-0.393921	
-0.394775	
-0.394958	
-0.395386	
-0.395569	
-0.39502	
-0.396118	
-0.396423	
-0.395935	
-0.39624	
-0.395508	
-0.396301	
-0.39563	
-0.395691	
-0.395386	
-0.396057	
-0.395874	
-0.396729	
-0.396484	
-0.395935	
-0.394104	
-0.395386	
-0.395264	
-0.394897	
-0.39386	
-0.393799	
-0.393982	
-0.393982	
-0.393921	
-0.392822	
-0.392883	
-0.391602	
-0.391357	
-0.390259	
-0.389832	
-0.38916	
-0.387878	
-0.388794	
-0.388245	
-0.387207	
-0.387756	
-0.386902	
-0.387451	
-0.386292	
-0.386475	
-0.386902	
-0.386536	
-0.386719	
-0.387268	
-0.386902	
-0.38678	
-0.38562	
-0.386597	
-0.386414	
-0.386597	
-0.385437	
-0.385742	
-0.386292	
-0.387207	
-0.387268	
-0.386536	
-0.386536	
-0.38678	
-0.386963	
-0.388367	
-0.387207	
-0.387451	
-0.386536	
-0.388306	
-0.389221	
-0.389648	
-0.389404	
-0.390137	
-0.390381	
-0.391357	
-0.390991	
-0.390503	
-0.391113	
-0.391724	
-0.39209	
-0.391907	
-0.392456	
-0.391357	
-0.392517	
-0.391357	
-0.391968	
-0.391846	
-0.392151	
-0.391907	
-0.392822	
-0.392151	
-0.392212	
-0.390625	
-0.391479	
-0.391418	
-0.391602	
-0.391113	
-0.390808	
-0.390869	
-0.391296	
-0.391296	
-0.390808	
-0.389832	
-0.388794	
-0.390259	
-0.390442	
-0.390015	
-0.389404	
-0.389343	
-0.389648	
-0.390015	
-0.390015	
-0.389404	
-0.389648	
-0.390198	
-0.39032	
-0.389709	
-0.389099	
-0.388184	
-0.389709	
-0.390076	
-0.389038	
-0.38916	
-0.387634	
-0.38916	
-0.38916	
-0.389343	
-0.388794	
-0.388489	
-0.389282	
-0.389771	
-0.389587	
-0.389771	
-0.388367	
-0.388672	
-0.388855	
-0.389282	
-0.389038	
-0.388489	
-0.389587	
-0.389893	
-0.390442	
-0.390259	
-0.389771	
-0.389038	
-0.390991	
-0.390503	
-0.390259	
-0.390076	
-0.39093	
-0.39093	
-0.39209	
-0.391968	
-0.391724	
-0.391296	
-0.391968	
-0.392517	
-0.39209	
-0.392334	
-0.391968	
-0.392639	
-0.393494	
-0.392761	
-0.392456	
-0.391235	
-0.391663	
-0.393372	
-0.392212	
-0.392334	
-0.390442	
-0.392151	
-0.39209	
-0.392639	
-0.392456	
-0.391235	
-0.390503	
-0.391724	
-0.391174	
-0.390442	
-0.388916	
-0.389709	
-0.389648	
-0.389221	
-0.388489	
-0.387573	
-0.38739	
-0.387329	
-0.386658	
-0.386414	
-0.385864	
-0.386108	
-0.386292	
-0.387085	
-0.386719	
-0.38623	
-0.385803	
-0.38623	
-0.386414	
-0.386169	
-0.385864	
-0.386292	
-0.386169	
-0.386536	
-0.387329	
-0.387268	
-0.386169	
-0.386169	
-0.387085	
-0.387451	
-0.387146	
-0.386047	
-0.387817	
-0.388367	
-0.388611	
-0.389221	
-0.388428	
-0.388733	
-0.390381	
-0.390381	
-0.390869	
-0.39032	
-0.391663	
-0.39209	
-0.393616	
-0.39386	
-0.393188	
-0.391602	
-0.393188	
-0.392944	
-0.393311	
-0.392761	
-0.393005	
-0.393188	
-0.393799	
-0.39386	
-0.393127	
-0.392639	
-0.392273	
-0.393433	
-0.392639	
-0.3927	
-0.391602	
-0.392456	
-0.392334	
-0.392578	
-0.3927	
-0.391663	
-0.391235	
-0.39093	
-0.390564	
-0.390015	
-0.388977	
-0.390259	
-0.390259	
-0.390381	
-0.390442	
-0.389282	
-0.38855	
-0.389771	
-0.389343	
-0.389282	
-0.38855	
-0.388977	
-0.389465	
-0.389648	
-0.390015	
-0.388733	
-0.387695	
-0.387512	
-0.388855	
-0.388245	
-0.388123	
-0.38739	
-0.388428	
-0.388855	
-0.388733	
-0.388184	
-0.387878	
-0.388123	
-0.389099	
-0.388	
-0.387939	
-0.387695	
-0.388611	
-0.388428	
-0.389099	
-0.389771	
-0.388855	
-0.389038	
-0.388733	
-0.389404	
-0.388977	
-0.387939	
-0.388794	
-0.389099	
-0.389282	
-0.390442	
-0.388611	
-0.388428	
-0.387573	
-0.389648	
-0.38916	
-0.389099	
-0.387817	
-0.389221	
-0.39032	
-0.390198	
-0.389587	
-0.388611	
-0.389771	
-0.390808	
-0.389587	
-0.389709	
-0.389709	
-0.390137	
-0.390442	
-0.390442	
-0.390747	
-0.390259	
-0.390076	
-0.390015	
-0.390137	
-0.390076	
-0.389038	
-0.389832	
-0.390076	
-0.389832	
-0.391296	
-0.389221	
-0.389526	
-0.388062	
-0.389832	
-0.388855	
-0.388428	
-0.386719	
-0.387695	
-0.387634	
-0.387085	
-0.386414	
-0.386108	
-0.385925	
-0.386536	
-0.386353	
-0.385986	
-0.386169	
-0.386108	
-0.386658	
-0.386719	
-0.386169	
-0.385376	
-0.385986	
-0.386719	
-0.386597	
-0.38678	
-0.385559	
-0.386902	
-0.387634	
-0.387573	
-0.388489	
-0.387817	
-0.388123	
-0.388245	
-0.389587	
-0.389404	
-0.388977	
-0.389832	
-0.391418	
-0.392029	
-0.393188	
-0.39325	
-0.393433	
-0.394165	
-0.395386	
-0.394653	
-0.394226	
-0.394531	
-0.395081	
-0.395813	
-0.396179	
-0.395447	
-0.394409	
-0.394287	
-0.396179	
-0.395508	
-0.395142	
-0.39502	
-0.396118	
-0.396057	
-0.39624	
-0.39679	
-0.395386	
-0.395203	
-0.39563	
-0.396118	
-0.395813	
-0.39502	
-0.394348	
-0.395142	
-0.395325	
-0.394958	
-0.393982	
-0.394104	
-0.393677	
-0.39386	
-0.392456	
-0.39209	
-0.390991	
-0.391724	
-0.391968	
-0.391174	
-0.390686	
-0.389282	
-0.389832	
-0.390686	
-0.390076	
-0.389648	
-0.38916	
-0.389526	
-0.39032	
-0.390686	
-0.390137	
-0.389404	
-0.389526	
-0.390137	
-0.390808	
-0.389893	
-0.389099	
-0.390259	
-0.390442	
-0.391235	
-0.391479	
-0.390503	
-0.390503	
-0.391235	
-0.391907	
-0.391846	
-0.391602	
-0.39093	
-0.391724	
-0.392151	
-0.391785	
-0.391907	
-0.391296	
-0.391785	
-0.393372	
-0.39209	
-0.391724	
-0.391296	
-0.391907	
-0.392761	
-0.392883	
-0.392639	
-0.391296	
-0.39093	
-0.392395	
-0.392212	
-0.392639	
-0.391296	
-0.392334	
-0.392944	
-0.393005	
-0.393005	
-0.392334	
-0.392761	
-0.393738	
-0.393555	
-0.3927	
-0.392029	
-0.392151	
-0.393066	
-0.393005	
-0.392639	
-0.391785	
-0.391541	
-0.391418	
-0.392151	
-0.391724	
-0.391113	
-0.39032	
-0.391479	
-0.391357	
-0.391113	
-0.391174	
-0.39032	
-0.39032	
-0.389832	
-0.390015	
-0.389587	
-0.38916	
-0.388916	
-0.389709	
-0.389709	
-0.389648	
-0.387573	
-0.387512	
-0.389221	
-0.388855	
-0.388855	
-0.387756	
-0.389282	
-0.389587	
-0.389832	
-0.389221	
-0.389221	
-0.388916	
-0.390259	
-0.390381	
-0.389954	
-0.389771	
-0.389282	
-0.390869	
-0.391113	
-0.391113	
-0.391174	
-0.392212	
-0.3927	
-0.393311	
-0.393433	
-0.39325	
-0.393799	
-0.394653	
-0.395752	
-0.395142	
-0.395691	
-0.393433	
-0.39502	
-0.394836	
-0.394958	
-0.395203	
-0.394226	
-0.395386	
-0.395569	
-0.395752	
-0.395508	
-0.394958	
-0.39447	
-0.395691	
-0.395752	
-0.394714	
-0.394226	
-0.393555	
-0.394775	
-0.395325	
-0.393921	
-0.393433	
-0.392578	
-0.393188	
-0.393616	
-0.3927	
-0.39209	
-0.391724	
-0.391052	
-0.391968	
-0.390076	
-0.389771	
-0.388062	
-0.388672	
-0.388672	
-0.388489	
-0.388062	
-0.387878	
-0.387756	
-0.388489	
-0.388123	
-0.388977	
-0.387756	
-0.388062	
-0.388123	
-0.388977	
-0.388428	
-0.387268	
-0.387878	
-0.389343	
-0.389587	
-0.389282	
-0.389038	
-0.389404	
-0.389832	
-0.390198	
-0.389709	
-0.389648	
-0.390381	
-0.390869	
-0.392639	
-0.391357	
-0.391296	
-0.39032	
-0.391418	
-0.391907	
-0.391785	
-0.391907	
-0.391724	
-0.392151	
-0.393311	
-0.391846	
-0.393066	
-0.391113	
-0.392273	
-0.392517	
-0.393433	
-0.392822	
-0.391602	
-0.391846	
-0.393738	
-0.393433	
-0.393311	
-0.392578	
-0.392578	
-0.393127	
-0.394226	
-0.393555	
-0.393188	
-0.393005	
-0.393982	
-0.394043	
-0.393066	
-0.392639	
-0.39209	
-0.3927	
-0.392822	
-0.392578	
-0.39209	
-0.392029	
-0.392273	
-0.392822	
-0.392517	
-0.393433	
-0.392334	
-0.392639	
-0.392273	
-0.392944	
-0.3927	
-0.391235	
-0.392334	
	
