E:\DOCUMENTS AND SETTINGS\JPOTAS\MEUS DOCUMENTOS\UFRJ\RSCI-BM 12 WK SERIES\070719-RSCI-BM-02\RSCI-BM-02-REMG\070719-RSCI-BM-02-REMG-0003.ACQ
0.025000 msec/sample
1 channel
Analog input
Volts
CH1	
2000	
-0.395447	
-0.394958	
-0.395142	
-0.394714	
-0.395508	
-0.394775	
-0.394592	
-0.394409	
-0.394958	
-0.394836	
-0.39386	
-0.394653	
-0.394287	
-0.395142	
-0.39447	
-0.393738	
-0.392639	
-0.39325	
-0.392761	
-0.393005	
-0.391846	
-0.392029	
-0.391296	
-0.391968	
-0.391785	
-0.391602	
-0.390564	
-0.390991	
-0.390503	
-0.390808	
-0.390015	
-0.39093	
-0.389709	
-0.390137	
-0.389343	
-0.390198	
-0.389648	
-0.390198	
-0.390564	
-0.390503	
-0.391418	
-0.389771	
-0.390503	
-0.389648	
-0.392456	
-0.390991	
-0.390625	
-0.389832	
-0.391052	
-0.39093	
-0.391418	
-0.391052	
-0.391357	
-0.391174	
-0.392029	
-0.390991	
-0.392151	
-0.391235	
-0.391968	
-0.391296	
-0.392578	
-0.39209	
-0.393433	
-0.392944	
-0.393799	
-0.393127	
-0.394775	
-0.39563	
-0.39563	
-0.39679	
-0.396484	
-0.397644	
-0.396973	
-0.397156	
-0.396301	
-0.39801	
-0.397705	
-0.398315	
-0.396973	
-0.397522	
-0.396667	
-0.397888	
-0.397461	
-0.397278	
-0.396606	
-0.3974	
-0.396545	
-0.397156	
-0.395081	
-0.396179	
-0.395996	
-0.396179	
-0.395935	
-0.396545	
-0.395386	
-0.396118	
-0.395264	
-0.396301	
-0.395935	
-0.396484	
-0.397156	
-0.396545	
-0.397766	
-0.395752	
-0.397034	
-0.396118	
-0.397095	
-0.397583	
-0.398438	
-0.397339	
-0.397949	
-0.396362	
-0.397705	
-0.397034	
-0.397217	
-0.396484	
-0.397339	
-0.396423	
-0.397034	
-0.39563	
-0.397217	
-0.396301	
-0.396729	
-0.396606	
-0.397766	
-0.396545	
-0.396973	
-0.39624	
-0.39679	
-0.396606	
-0.396301	
-0.396301	
-0.395691	
-0.397095	
-0.396301	
-0.39679	
-0.395813	
-0.396667	
-0.396423	
-0.397217	
-0.39679	
-0.397705	
-0.396423	
-0.396973	
-0.396423	
-0.397278	
-0.396912	
-0.39801	
-0.396606	
-0.397034	
-0.396545	
-0.396912	
-0.395996	
-0.395569	
-0.395996	
-0.395874	
-0.394775	
-0.393738	
-0.394165	
-0.394409	
-0.39447	
-0.393738	
-0.393372	
-0.392212	
-0.393982	
-0.392639	
-0.392456	
-0.3927	
-0.393005	
-0.392517	
-0.3927	
-0.391418	
-0.393127	
-0.392151	
-0.392334	
-0.392029	
-0.393372	
-0.3927	
-0.392822	
-0.39209	
-0.393372	
-0.393616	
-0.393738	
-0.393494	
-0.393982	
-0.394592	
-0.394531	
-0.393799	
-0.392883	
-0.393738	
-0.39386	
-0.394592	
-0.394409	
-0.394531	
-0.393433	
-0.394653	
-0.394043	
-0.391113	
-0.389343	
-0.390076	
-0.389587	
-0.390259	
-0.389587	
-0.393982	
-0.395325	
-0.395996	
-0.396118	
-0.397522	
-0.397278	
-0.397461	
-0.396606	
-0.398376	
-0.399414	
-0.399353	
-0.399353	
-0.398254	
-0.399841	
-0.400146	
-0.399658	
-0.39856	
-0.399841	
-0.396973	
-0.39502	
-0.393616	
-0.395325	
-0.394653	
-0.395996	
-0.397034	
-0.399292	
-0.399414	
-0.400085	
-0.399414	
-0.39917	
-0.398743	
-0.399353	
-0.398743	
-0.399048	
-0.398254	
-0.399841	
-0.398254	
-0.398254	
-0.396973	
-0.398254	
-0.398987	
-0.398621	
-0.398682	
-0.397156	
-0.398865	
-0.397766	
-0.398315	
-0.39679	
-0.398438	
-0.398193	
-0.398132	
-0.396667	
-0.398193	
-0.397522	
-0.397522	
-0.396729	
-0.396851	
-0.39624	
-0.396423	
-0.395447	
-0.395203	
-0.394348	
-0.39386	
-0.392822	
-0.392029	
-0.392334	
-0.392639	
-0.391052	
-0.390747	
-0.389771	
-0.390198	
-0.390442	
-0.389587	
-0.389709	
-0.388794	
-0.389771	
-0.388672	
-0.389404	
-0.389404	
-0.390564	
-0.390808	
-0.391663	
-0.391174	
-0.3927	
-0.391907	
-0.392456	
-0.392029	
-0.393433	
-0.393616	
-0.394958	
-0.395264	
-0.396301	
-0.3974	
-0.398804	
-0.399719	
-0.400574	
-0.402161	
-0.404358	
-0.40387	
-0.404968	
-0.404358	
-0.406799	
-0.407898	
-0.408264	
-0.409668	
-0.410583	
-0.413635	
-0.416504	
-0.418884	
-0.422363	
-0.424072	
-0.427795	
-0.43158	
-0.43335	
-0.436646	
-0.437622	
-0.440369	
-0.443604	
-0.444885	
-0.447021	
-0.446899	
-0.448303	
-0.449768	
-0.4505	
-0.451599	
-0.451721	
-0.453064	
-0.453674	
-0.455017	
-0.456665	
-0.457581	
-0.459351	
-0.46106	
-0.462585	
-0.464661	
-0.465027	
-0.466003	
-0.466431	
-0.466553	
-0.467773	
-0.468201	
-0.468445	
-0.468689	
-0.469666	
-0.470154	
-0.469543	
-0.47052	
-0.469421	
-0.46991	
-0.467896	
-0.468933	
-0.467468	
-0.467773	
-0.466431	
-0.465881	
-0.465027	
-0.464478	
-0.463379	
-0.46283	
-0.460388	
-0.460205	
-0.456665	
-0.455688	
-0.453552	
-0.452026	
-0.44989	
-0.446838	
-0.444702	
-0.442139	
-0.439453	
-0.437256	
-0.434082	
-0.431763	
-0.429626	
-0.427429	
-0.425415	
-0.422302	
-0.420471	
-0.41803	
-0.416443	
-0.415222	
-0.413513	
-0.412659	
-0.411011	
-0.409363	
-0.40863	
-0.40741	
-0.406616	
-0.40448	
-0.403442	
-0.400085	
-0.399719	
-0.396118	
-0.394592	
-0.391602	
-0.388672	
-0.385803	
-0.381592	
-0.378723	
-0.375793	
-0.371887	
-0.369141	
-0.365051	
-0.362061	
-0.359375	
-0.356079	
-0.352722	
-0.348328	
-0.345154	
-0.341187	
-0.339172	
-0.33667	
-0.333618	
-0.330872	
-0.328796	
-0.326355	
-0.324646	
-0.322388	
-0.320557	
-0.318359	
-0.316895	
-0.316223	
-0.315369	
-0.315491	
-0.315674	
-0.316284	
-0.317993	
-0.318298	
-0.319824	
-0.320801	
-0.322205	
-0.32373	
-0.325012	
-0.326599	
-0.327759	
-0.329163	
-0.33136	
-0.332153	
-0.332947	
-0.333435	
-0.334961	
-0.336975	
-0.338013	
-0.339783	
-0.34137	
-0.342468	
-0.344299	
-0.344727	
-0.346069	
-0.346924	
-0.348938	
-0.350525	
-0.351135	
-0.352234	
-0.352722	
-0.35376	
-0.355469	
-0.355469	
-0.355896	
-0.355713	
-0.356689	
-0.357971	
-0.358093	
-0.358704	
-0.358765	
-0.360046	
-0.360779	
-0.360962	
-0.361023	
-0.361572	
-0.362061	
-0.363464	
-0.36322	
-0.364319	
-0.363831	
-0.365906	
-0.366455	
-0.36676	
-0.367371	
-0.368103	
-0.368469	
-0.370361	
-0.370789	
-0.371094	
-0.371216	
-0.372925	
-0.373718	
-0.374023	
-0.374451	
-0.375183	
-0.375122	
-0.376587	
-0.375793	
-0.376221	
-0.375305	
-0.376709	
-0.376587	
-0.376648	
-0.376526	
-0.376831	
-0.375977	
-0.376953	
-0.376038	
-0.376221	
-0.375732	
-0.376099	
-0.376282	
-0.376343	
-0.375366	
-0.376343	
-0.375488	
-0.376709	
-0.375977	
-0.376465	
-0.376709	
-0.377441	
-0.378052	
-0.378906	
-0.378479	
-0.379517	
-0.378601	
-0.3797	
-0.379639	
-0.380188	
-0.380127	
-0.380493	
-0.380798	
-0.380249	
-0.379211	
-0.378906	
-0.379822	
-0.379333	
-0.379028	
-0.379211	
-0.378906	
-0.379211	
-0.37915	
-0.378357	
-0.377136	
-0.377319	
-0.377747	
-0.378113	
-0.376648	
-0.376465	
-0.376526	
-0.377075	
-0.37738	
-0.37616	
-0.374451	
-0.374329	
-0.374939	
-0.375732	
-0.375305	
-0.374878	
-0.374878	
-0.375732	
-0.375793	
-0.375183	
-0.374329	
-0.374878	
-0.375793	
-0.376526	
-0.376465	
-0.376953	
-0.377197	
-0.377441	
-0.377625	
-0.377014	
-0.37616	
-0.376282	
-0.376831	
-0.377502	
-0.377563	
-0.377747	
-0.376953	
-0.377441	
-0.378479	
-0.377747	
-0.377014	
-0.377319	
-0.378235	
-0.378357	
-0.379028	
-0.378174	
-0.378418	
-0.378479	
-0.378723	
-0.378845	
-0.378479	
-0.378357	
-0.378784	
-0.378357	
-0.379395	
-0.379333	
-0.3797	
-0.380371	
-0.380371	
-0.379822	
-0.379761	
-0.379944	
-0.380249	
-0.380066	
-0.380432	
-0.380066	
-0.380066	
-0.38031	
-0.379944	
-0.379883	
-0.379578	
-0.379333	
-0.379639	
-0.379272	
-0.379456	
-0.379211	
-0.3797	
-0.380005	
-0.379822	
-0.382446	
-0.381836	
-0.383789	
-0.383362	
-0.384399	
-0.383972	
-0.38501	
-0.385803	
-0.386597	
-0.386292	
-0.387756	
-0.387329	
-0.388123	
-0.388123	
-0.388428	
-0.388123	
-0.388123	
-0.388306	
-0.388733	
-0.388245	
-0.388428	
-0.388428	
-0.388367	
-0.387878	
-0.387573	
-0.387329	
-0.387756	
-0.387512	
-0.387573	
-0.387024	
-0.387207	
-0.386902	
-0.387085	
-0.387329	
-0.387085	
-0.386963	
-0.385925	
-0.387451	
-0.387817	
-0.386902	
-0.386902	
-0.387146	
-0.387085	
-0.387756	
-0.386841	
-0.386963	
-0.385681	
-0.38739	
-0.387085	
-0.387207	
-0.386047	
-0.387512	
-0.387024	
-0.387451	
-0.386597	
-0.387329	
-0.386536	
-0.388245	
-0.387268	
-0.387329	
-0.386841	
-0.387573	
-0.386963	
-0.387085	
-0.386169	
-0.386047	
-0.38562	
-0.386475	
-0.38562	
-0.385559	
-0.384949	
-0.385742	
-0.385742	
-0.385559	
-0.384521	
-0.384827	
-0.384338	
-0.385254	
-0.384033	
-0.384033	
-0.383057	
-0.384644	
-0.383789	
-0.384644	
-0.383606	
-0.384338	
-0.384094	
-0.384827	
-0.38501	
-0.385071	
-0.383911	
-0.385376	
-0.384277	
-0.385254	
-0.384583	
-0.38501	
-0.384583	
-0.384521	
-0.385376	
-0.38562	
-0.385071	
-0.386658	
-0.384583	
-0.385681	
-0.385376	
-0.38562	
-0.38623	
-0.385864	
-0.386169	
-0.387024	
-0.386963	
-0.388245	
-0.387756	
-0.388672	
-0.388916	
-0.389832	
-0.389771	
-0.389954	
-0.391052	
-0.390869	
-0.390869	
-0.391602	
-0.391052	
-0.391296	
-0.392456	
-0.391602	
-0.391174	
-0.389465	
-0.39093	
-0.390991	
-0.390991	
-0.390686	
-0.39032	
-0.389404	
-0.389832	
-0.389465	
-0.389404	
-0.389038	
-0.390808	
-0.389404	
-0.39032	
-0.388733	
-0.389343	
-0.389099	
-0.389709	
-0.390747	
-0.39032	
-0.390625	
-0.390442	
-0.390808	
-0.39093	
-0.390381	
-0.391174	
-0.391479	
-0.391663	
-0.392517	
-0.392456	
-0.392212	
-0.391846	
-0.391785	
-0.391846	
-0.391907	
-0.391602	
-0.391724	
-0.391418	
-0.392273	
-0.391541	
-0.391418	
-0.391052	
-0.391479	
-0.391724	
-0.392761	
-0.392151	
-0.391602	
-0.390503	
-0.391785	
-0.391846	
-0.391418	
-0.390198	
-0.390869	
-0.391296	
-0.391602	
-0.391907	
-0.391602	
-0.39093	
-0.391785	
-0.392761	
-0.39209	
-0.391724	
-0.391052	
-0.392029	
-0.392334	
-0.3927	
-0.392212	
-0.392029	
-0.392395	
-0.393005	
-0.392761	
-0.391602	
-0.391296	
-0.39093	
-0.391052	
-0.39032	
-0.390503	
-0.389771	
-0.388733	
-0.390076	
-0.389465	
-0.388977	
-0.389221	
-0.388672	
-0.388428	
-0.388123	
-0.387756	
-0.387573	
-0.387085	
-0.388123	
-0.387512	
-0.387573	
-0.387817	
-0.387451	
-0.387329	
-0.388733	
-0.388306	
-0.388245	
-0.387268	
-0.389587	
-0.38916	
-0.388977	
-0.388306	
-0.388611	
-0.388794	
-0.389832	
-0.389221	
-0.38916	
-0.388489	
-0.390198	
-0.390076	
-0.389099	
-0.388611	
-0.388428	
-0.389526	
-0.390259	
-0.389465	
-0.389709	
-0.389832	
-0.390564	
-0.391113	
-0.390198	
-0.389954	
-0.39093	
-0.39093	
-0.391602	
-0.391174	
-0.391968	
-0.391968	
-0.392212	
-0.393616	
-0.393921	
-0.394226	
-0.394958	
-0.394836	
-0.395081	
-0.396057	
-0.395569	
-0.395935	
-0.39386	
-0.395813	
-0.395508	
-0.395386	
-0.395081	
-0.395081	
-0.395264	
-0.395752	
-0.395264	
-0.394592	
-0.393799	
-0.395508	
-0.394958	
-0.394043	
-0.392761	
-0.393494	
-0.393799	
-0.394409	
-0.393188	
-0.39325	
-0.392883	
-0.394165	
-0.393738	
-0.393127	
-0.39209	
-0.393616	
-0.393005	
-0.393188	
-0.392761	
-0.392822	
-0.392334	
-0.393005	
-0.392456	
-0.392822	
-0.391846	
-0.392456	
-0.392517	
-0.392212	
-0.393066	
-0.392334	
-0.391846	
-0.391052	
-0.391724	
-0.391846	
-0.39032	
-0.390869	
-0.390808	
-0.391174	
-0.39209	
-0.389526	
-0.390991	
-0.389771	
-0.390686	
-0.391602	
-0.390686	
-0.390564	
-0.390808	
-0.390625	
-0.391357	
-0.390808	
-0.391113	
-0.390137	
-0.391174	
-0.391602	
-0.391296	
-0.391541	
-0.391418	
-0.391357	
-0.390625	
-0.39032	
-0.390076	
-0.388916	
-0.389771	
-0.38916	
-0.389099	
-0.38739	
-0.388489	
-0.387878	
-0.387939	
-0.388184	
-0.386414	
-0.386658	
-0.386169	
-0.386719	
-0.387024	
-0.385559	
-0.385925	
-0.385864	
-0.38623	
-0.386475	
-0.38623	
-0.385681	
-0.386353	
-0.386292	
-0.386658	
-0.386169	
-0.386597	
-0.386902	
-0.387085	
-0.387146	
-0.386902	
-0.387512	
-0.387756	
-0.387878	
-0.387939	
-0.388062	
-0.388	
-0.388306	
-0.388672	
-0.389526	
-0.389099	
-0.388977	
-0.387695	
-0.389709	
-0.389221	
-0.389954	
-0.388123	
-0.38916	
-0.38855	
-0.390381	
-0.390015	
-0.388733	
-0.388489	
-0.388733	
-0.389587	
-0.390442	
-0.389587	
-0.39032	
-0.391174	
-0.391418	
-0.391357	
-0.39032	
-0.390747	
-0.391479	
-0.391846	
-0.392212	
-0.391846	
-0.392029	
-0.392395	
-0.392395	
-0.392334	
-0.392029	
-0.392151	
-0.392395	
-0.392883	
-0.393372	
-0.393433	
-0.392578	
-0.393799	
-0.39325	
-0.393799	
-0.393921	
-0.393127	
-0.393127	
-0.393494	
-0.393127	
-0.393616	
-0.392212	
-0.393738	
-0.393188	
-0.393982	
-0.39386	
-0.392029	
-0.391968	
-0.393005	
-0.392761	
-0.393005	
-0.392578	
-0.392944	
-0.392944	
-0.393494	
-0.392944	
-0.392578	
-0.392273	
-0.392578	
-0.392517	
-0.392395	
-0.392517	
-0.391907	
-0.391296	
-0.390564	
-0.390564	
-0.389832	
-0.389343	
-0.389038	
-0.389038	
-0.388611	
-0.389343	
-0.387573	
-0.388184	
-0.38855	
-0.388245	
-0.388672	
-0.387634	
-0.388306	
-0.389221	
-0.38855	
-0.389099	
-0.388062	
-0.389648	
-0.390503	
-0.390808	
-0.391174	
-0.389343	
-0.389648	
-0.390259	
-0.391052	
-0.391357	
-0.391296	
-0.391663	
-0.391724	
-0.392029	
-0.391968	
-0.391541	
-0.390564	
-0.390808	
-0.390625	
-0.390442	
-0.390686	
-0.389526	
-0.389832	
-0.388367	
-0.389404	
-0.388184	
-0.388062	
-0.388245	
-0.388733	
-0.387939	
-0.389038	
-0.387756	
-0.388	
-0.388	
-0.388916	
-0.387878	
-0.386841	
-0.387146	
-0.388977	
-0.388428	
-0.388977	
-0.387207	
-0.388672	
-0.38916	
-0.389771	
-0.389526	
-0.388062	
-0.387878	
-0.388977	
-0.389221	
-0.389404	
-0.388977	
-0.38855	
-0.388733	
-0.388977	
-0.389038	
-0.387695	
-0.387573	
-0.38739	
-0.387878	
-0.388184	
-0.387878	
-0.387939	
-0.387756	
-0.388123	
-0.388123	
-0.387573	
-0.388245	
-0.388794	
-0.389465	
-0.389648	
-0.390015	
-0.390442	
-0.390015	
-0.391418	
-0.391907	
-0.391296	
-0.391418	
-0.391174	
-0.3927	
-0.39209	
-0.393127	
-0.391418	
-0.392761	
-0.392578	
-0.393677	
-0.393616	
-0.392212	
-0.392822	
-0.392761	
-0.392944	
-0.393311	
-0.392456	
-0.392639	
-0.392456	
-0.392517	
-0.393494	
-0.391296	
-0.391418	
-0.391357	
-0.391846	
-0.392029	
-0.391357	
-0.391479	
-0.392029	
-0.391724	
-0.392456	
-0.391174	
-0.391418	
-0.391357	
-0.392273	
-0.391235	
-0.391357	
-0.390076	
-0.390991	
-0.390625	
-0.391541	
-0.390381	
-0.390015	
-0.389648	
-0.390747	
-0.390259	
-0.390625	
-0.388916	
-0.389648	
-0.388672	
-0.389771	
-0.388916	
-0.387817	
-0.387451	
-0.386353	
-0.387329	
-0.386902	
-0.386169	
-0.386169	
-0.38623	
-0.386292	
-0.386902	
-0.385376	
-0.385864	
-0.386047	
-0.385986	
-0.386475	
-0.38623	
-0.386353	
-0.387634	
-0.38678	
-0.387573	
-0.386597	
-0.387329	
-0.386292	
-0.388611	
-0.38739	
-0.388367	
-0.386475	
-0.387695	
-0.387329	
-0.388855	
-0.388489	
-0.387756	
-0.387207	
-0.38855	
-0.387939	
-0.388489	
-0.387512	
-0.388428	
-0.388428	
-0.388489	
-0.38916	
-0.388245	
-0.388428	
-0.387451	
-0.388611	
-0.388977	
-0.388672	
-0.388611	
-0.388672	
-0.389221	
-0.389465	
-0.38916	
-0.389282	
-0.389526	
-0.390625	
-0.390259	
-0.390137	
-0.388855	
-0.390808	
-0.390686	
-0.390686	
-0.389832	
-0.389709	
-0.388672	
-0.389709	
-0.389832	
-0.390137	
-0.389343	
-0.390137	
-0.388	
-0.389648	
-0.387756	
-0.388733	
-0.387756	
-0.388977	
-0.389587	
-0.390991	
-0.390015	
-0.391357	
-0.39032	
-0.391724	
-0.391418	
-0.391663	
-0.391174	
-0.390869	
-0.392944	
-0.392761	
-0.3927	
-0.391907	
-0.392517	
-0.393372	
-0.39386	
-0.393433	
-0.393555	
-0.393066	
-0.394348	
-0.393982	
-0.393799	
-0.39325	
-0.393188	
-0.393372	
-0.394348	
-0.392883	
-0.393005	
-0.391846	
-0.393372	
-0.392822	
-0.39325	
-0.392517	
-0.393127	
-0.391907	
-0.392883	
-0.390991	
-0.391541	
-0.391418	
-0.391418	
-0.391663	
-0.392029	
-0.391052	
-0.390869	
-0.389954	
-0.391052	
-0.391235	
-0.390564	
-0.390564	
-0.389404	
-0.391418	
-0.390991	
-0.390381	
-0.389771	
-0.390625	
-0.390503	
-0.390991	
-0.39032	
-0.390442	
-0.389832	
-0.390381	
-0.390198	
-0.389282	
-0.389038	
-0.389282	
-0.388367	
-0.388855	
-0.386902	
-0.387817	
-0.387268	
-0.387268	
-0.387817	
-0.387268	
-0.386353	
-0.387756	
-0.386536	
-0.386658	
-0.386353	
-0.385986	
-0.385986	
-0.385132	
-0.386902	
-0.386963	
-0.386169	
-0.385864	
-0.385376	
-0.386963	
-0.387024	
-0.386902	
-0.386414	
-0.386475	
-0.387268	
-0.38739	
-0.386963	
-0.386841	
-0.387024	
-0.387512	
-0.388672	
-0.38739	
-0.387329	
-0.387146	
-0.388184	
-0.388306	
-0.388	
-0.388062	
-0.388916	
-0.388672	
-0.389526	
-0.387939	
-0.389404	
-0.388611	
-0.390137	
-0.391846	
-0.392151	
-0.391418	
-0.391235	
-0.391174	
-0.393311	
-0.393799	
-0.393372	
-0.392944	
-0.392639	
-0.39386	
-0.394226	
-0.393616	
-0.393311	
-0.392944	
-0.393188	
-0.393677	
-0.393372	
-0.392273	
-0.391846	
-0.392456	
-0.39209	
-0.391907	
-0.391785	
-0.392212	
-0.391785	
-0.392456	
-0.390747	
-0.391418	
-0.390625	
-0.391541	
-0.392334	
-0.392212	
-0.392029	
-0.392273	
-0.392517	
-0.393066	
-0.392273	
-0.392578	
-0.392029	
-0.391968	
-0.393677	
-0.393982	
-0.393188	
-0.393005	
-0.392212	
-0.393066	
-0.393188	
-0.392822	
-0.392517	
-0.392456	
-0.393005	
-0.392944	
-0.392883	
-0.392151	
-0.39209	
-0.392761	
-0.392517	
-0.392273	
-0.392273	
-0.39209	
-0.392151	
-0.392944	
-0.39209	
-0.39209	
-0.391418	
-0.391418	
-0.391968	
-0.391724	
-0.391907	
-0.391785	
-0.391479	
-0.393005	
-0.393127	
-0.3927	
-0.392578	
-0.392395	
-0.393372	
-0.392883	
-0.392517	
-0.391418	
-0.391968	
-0.392517	
-0.392639	
-0.392456	
-0.392029	
-0.391296	
-0.391663	
-0.390564	
-0.390808	
-0.390015	
-0.389954	
-0.389709	
-0.390808	
-0.389709	
-0.38916	
-0.388245	
-0.388977	
-0.389221	
-0.387512	
-0.387878	
-0.387878	
-0.388184	
-0.388123	
-0.388489	
-0.387756	
-0.387634	
-0.386597	
-0.388611	
-0.388672	
-0.388184	
-0.388	
-0.387634	
-0.389282	
-0.389282	
-0.389038	
-0.388977	
-0.389404	
-0.390503	
-0.389954	
-0.389099	
-0.389526	
-0.389404	
-0.389709	
-0.390259	
-0.389954	
-0.390137	
-0.390564	
-0.390564	
-0.39032	
-0.388977	
-0.390137	
-0.390503	
-0.39093	
-0.391663	
-0.391663	
-0.391052	
-0.390442	
-0.39032	
-0.391418	
-0.392151	
-0.391785	
-0.392273	
-0.391785	
-0.394226	
-0.394653	
-0.39386	
-0.394409	
-0.394348	
-0.395508	
-0.395203	
-0.395386	
-0.394897	
-0.395447	
-0.395264	
-0.395447	
-0.39502	
-0.394958	
-0.395447	
-0.395447	
-0.394592	
-0.393982	
-0.393616	
-0.393982	
-0.393738	
-0.39447	
-0.39325	
-0.393127	
-0.39325	
-0.393188	
-0.393005	
-0.393127	
-0.392395	
-0.392334	
-0.391663	
-0.393005	
-0.393372	
-0.392456	
-0.392273	
-0.391052	
-0.392395	
-0.392578	
-0.391968	
-0.391357	
-0.391113	
-0.391968	
-0.391968	
-0.391479	
-0.391785	
-0.391479	
-0.392639	
-0.391785	
-0.391296	
-0.390259	
-0.390747	
-0.391052	
-0.391418	
-0.390747	
-0.39032	
-0.389893	
-0.390259	
-0.390442	
-0.390564	
-0.390259	
-0.390259	
-0.38916	
-0.390869	
-0.391296	
-0.39032	
-0.390198	
-0.389893	
-0.391052	
-0.391602	
-0.391235	
-0.391357	
-0.391296	
-0.391968	
-0.392029	
-0.392395	
-0.391663	
-0.391724	
-0.391602	
-0.390442	
-0.389465	
-0.388855	
-0.389587	
-0.389465	
-0.389709	
-0.389282	
-0.38855	
-0.388672	
-0.388245	
-0.387695	
-0.388123	
-0.386902	
-0.387451	
-0.386536	
-0.388184	
-0.387756	
-0.386658	
-0.385803	
-0.386414	
-0.386719	
-0.386841	
-0.386902	
-0.387146	
-0.387146	
-0.387939	
-0.387939	
-0.387573	
-0.387939	
-0.387939	
-0.387817	
-0.387817	
-0.388245	
-0.387939	
-0.388245	
-0.387939	
-0.388855	
-0.388611	
-0.388855	
-0.389709	
-0.390015	
-0.389343	
-0.389221	
-0.38855	
-0.389832	
-0.389587	
-0.390259	
-0.390747	
-0.389771	
-0.390747	
-0.389832	
-0.390381	
-0.39032	
-0.390259	
-0.390381	
-0.390442	
-0.391724	
-0.391296	
-0.391235	
-0.390625	
-0.391296	
-0.392029	
-0.392456	
-0.392151	
-0.392273	
-0.392456	
-0.393127	
-0.393127	
-0.392883	
-0.392761	
-0.393555	
-0.393555	
-0.393188	
-0.393005	
-0.392212	
-0.393677	
-0.3927	
-0.394165	
-0.394409	
-0.394104	
-0.394836	
-0.394836	
-0.394043	
-0.393555	
-0.393677	
-0.393555	
-0.393372	
-0.394226	
-0.393799	
-0.392822	
-0.392761	
-0.392334	
-0.393127	
-0.393005	
-0.392761	
-0.392761	
-0.392639	
-0.392578	
-0.392883	
-0.392334	
-0.391785	
-0.391541	
-0.392334	
-0.391357	
-0.392151	
-0.390625	
-0.390991	
-0.390503	
-0.390869	
-0.390381	
-0.389404	
-0.389832	
-0.389038	
-0.38855	
-0.387756	
-0.387146	
-0.387329	
-0.386108	
-0.387817	
-0.387756	
-0.386902	
-0.385925	
-0.385925	
-0.387085	
-0.386902	
-0.386719	
-0.386841	
-0.386475	
-0.387573	
-0.387695	
-0.387512	
-0.387634	
-0.387817	
-0.388794	
-0.388184	
-0.388123	
-0.387634	
-0.388123	
-0.388977	
-0.388672	
-0.388123	
-0.388306	
-0.388977	
-0.389038	
-0.388489	
-0.387207	
-0.387573	
-0.387268	
-0.386841	
-0.387695	
-0.387878	
-0.387146	
-0.38623	
-0.386047	
-0.38739	
-0.387451	
-0.386719	
-0.385681	
-0.385986	
-0.387878	
-0.388245	
-0.387085	
-0.386841	
-0.386719	
-0.387939	
-0.387695	
-0.387634	
-0.387695	
-0.387817	
-0.388062	
-0.388184	
-0.388	
-0.388367	
-0.388611	
-0.388611	
-0.388428	
-0.387512	
-0.388062	
-0.388184	
-0.388428	
-0.388977	
-0.388123	
-0.387573	
-0.388489	
-0.387695	
-0.388245	
-0.387085	
-0.387451	
-0.386536	
-0.38678	
-0.388428	
-0.388489	
-0.387512	
-0.38739	
-0.387268	
-0.388794	
-0.388428	
-0.388672	
-0.388489	
-0.388916	
-0.389587	
-0.390259	
-0.390198	
-0.390259	
-0.390259	
-0.390686	
-0.391235	
-0.391113	
-0.391174	
-0.390991	
-0.391541	
-0.392151	
-0.391968	
-0.391968	
-0.393066	
-0.392578	
-0.393311	
-0.392517	
-0.392639	
-0.391602	
-0.392151	
-0.39325	
-0.392212	
-0.39209	
-0.390991	
-0.391479	
-0.391968	
-0.39209	
-0.39093	
-0.390686	
-0.39032	
-0.391479	
-0.391174	
-0.390625	
-0.390564	
-0.389893	
-0.390686	
-0.390564	
-0.390259	
-0.389587	
-0.390259	
-0.390137	
-0.391113	
-0.390076	
-0.389709	
-0.389648	
-0.38916	
-0.389954	
-0.389587	
-0.389221	
-0.387756	
-0.388184	
-0.389648	
-0.388489	
-0.388489	
-0.387573	
-0.387085	
-0.387207	
-0.386658	
-0.386292	
-0.385559	
-0.384399	
-0.385559	
-0.385559	
-0.384705	
-0.385132	
-0.384033	
-0.385315	
-0.385132	
-0.385193	
-0.384888	
-0.385071	
-0.38623	
-0.386475	
-0.385803	
-0.386108	
-0.385498	
-0.38623	
-0.386902	
-0.386841	
-0.386475	
-0.385986	
-0.386475	
-0.387756	
-0.386719	
-0.38739	
-0.386475	
-0.387817	
-0.387756	
-0.387756	
-0.38739	
-0.386719	
-0.386719	
-0.387695	
-0.388	
-0.388123	
-0.388184	
-0.387146	
-0.388	
-0.38739	
-0.387878	
-0.38739	
-0.387756	
-0.388306	
-0.389099	
-0.388123	
-0.388977	
-0.387512	
-0.389282	
-0.388733	
-0.389099	
-0.389221	
-0.389038	
-0.389771	
-0.390686	
-0.389832	
-0.389709	
-0.388489	
-0.38916	
-0.39032	
-0.390015	
-0.388916	
-0.388123	
-0.387756	
-0.389038	
-0.389038	
-0.38855	
-0.387756	
-0.387451	
-0.38855	
-0.388672	
-0.388489	
-0.38855	
-0.389099	
-0.390137	
-0.391052	
-0.390442	
-0.391296	
-0.389771	
-0.391357	
-0.390686	
-0.391052	
-0.391418	
-0.391357	
-0.392273	
-0.393433	
-0.392883	
-0.393188	
-0.391968	
-0.393005	
-0.393982	
-0.39386	
-0.393372	
-0.39209	
-0.3927	
-0.393372	
-0.392944	
-0.392883	
-0.3927	
-0.392883	
-0.393066	
-0.393494	
-0.392517	
-0.392395	
-0.391907	
-0.392212	
-0.392517	
-0.391907	
-0.391602	
-0.391113	
-0.391541	
-0.391724	
-0.39093	
-0.39093	
-0.390015	
-0.390686	
-0.392456	
-0.390442	
	
