E:\DOCUMENTS AND SETTINGS\JPOTAS\MEUS DOCUMENTOS\UFRJ\RSCI-BM 12 WK SERIES\070719-RSCI-BM-02\RSCI-BM-02-REMG\070719-RSCI-BM-02-REMG-0007.ACQ
0.025000 msec/sample
1 channel
Analog input
Volts
CH1	
2000	
-0.398865	
-0.397949	
-0.398193	
-0.397827	
-0.398926	
-0.399475	
-0.398987	
-0.398804	
-0.398132	
-0.399902	
-0.401672	
-0.399536	
-0.399597	
-0.39801	
-0.399414	
-0.400146	
-0.399597	
-0.399231	
-0.398621	
-0.399658	
-0.399902	
-0.398865	
-0.397644	
-0.396851	
-0.398193	
-0.398132	
-0.397278	
-0.397095	
-0.396729	
-0.3974	
-0.397705	
-0.397339	
-0.396118	
-0.39563	
-0.394897	
-0.39563	
-0.39563	
-0.395325	
-0.395325	
-0.395325	
-0.39624	
-0.396484	
-0.395264	
-0.39447	
-0.394348	
-0.395386	
-0.396667	
-0.395752	
-0.396301	
-0.394775	
-0.396729	
-0.397827	
-0.39624	
-0.395813	
-0.395264	
-0.396729	
-0.396973	
-0.396851	
-0.396851	
-0.397156	
-0.397217	
-0.397766	
-0.398132	
-0.397339	
-0.397095	
-0.396606	
-0.398071	
-0.397766	
-0.3974	
-0.3974	
-0.397705	
-0.398804	
-0.399231	
-0.398132	
-0.397278	
-0.396057	
-0.398376	
-0.399536	
-0.398621	
-0.398682	
-0.39801	
-0.399536	
-0.400696	
-0.400696	
-0.400391	
-0.399841	
-0.399902	
-0.401428	
-0.401611	
-0.401917	
-0.401184	
-0.401306	
-0.403076	
-0.402771	
-0.401978	
-0.400269	
-0.401184	
-0.401306	
-0.401184	
-0.401184	
-0.400818	
-0.400574	
-0.400879	
-0.401672	
-0.399597	
-0.398987	
-0.397278	
-0.398987	
-0.399902	
-0.399109	
-0.39856	
-0.398071	
-0.399353	
-0.399597	
-0.399536	
-0.39917	
-0.398987	
-0.39856	
-0.399719	
-0.399719	
-0.39978	
-0.400146	
-0.40033	
-0.401184	
-0.401367	
-0.400208	
-0.399597	
-0.39856	
-0.399902	
-0.400391	
-0.399048	
-0.398865	
-0.397156	
-0.398315	
-0.399231	
-0.39801	
-0.397827	
-0.396362	
-0.396545	
-0.397583	
-0.397156	
-0.396912	
-0.396606	
-0.396667	
-0.397827	
-0.397156	
-0.395996	
-0.394775	
-0.396057	
-0.396423	
-0.396545	
-0.39624	
-0.396118	
-0.39563	
-0.397217	
-0.398132	
-0.396606	
-0.395813	
-0.394104	
-0.39679	
-0.397339	
-0.396912	
-0.397095	
-0.397278	
-0.397339	
-0.398499	
-0.398743	
-0.398132	
-0.398315	
-0.398254	
-0.399292	
-0.399719	
-0.399475	
-0.399475	
-0.399719	
-0.400879	
-0.401306	
-0.39978	
-0.398926	
-0.400269	
-0.400208	
-0.400818	
-0.400269	
-0.399841	
-0.398743	
-0.400269	
-0.401367	
-0.399048	
-0.398438	
-0.397095	
-0.398804	
-0.398804	
-0.398987	
-0.398499	
-0.398071	
-0.398071	
-0.398376	
-0.395813	
-0.39386	
-0.393799	
-0.393921	
-0.39447	
-0.395142	
-0.396301	
-0.396667	
-0.396362	
-0.397949	
-0.397461	
-0.396179	
-0.39502	
-0.395264	
-0.395874	
-0.396301	
-0.395935	
-0.39563	
-0.395447	
-0.395935	
-0.397156	
-0.396118	
-0.394958	
-0.393555	
-0.394226	
-0.395447	
-0.395752	
-0.395569	
-0.394775	
-0.395081	
-0.395935	
-0.395935	
-0.395569	
-0.395264	
-0.395813	
-0.395996	
-0.396423	
-0.396545	
-0.396484	
-0.395935	
-0.396912	
-0.396973	
-0.396545	
-0.395264	
-0.394897	
-0.394836	
-0.39624	
-0.396301	
-0.396301	
-0.395386	
-0.396423	
-0.396606	
-0.395691	
-0.393982	
-0.394043	
-0.394714	
-0.394165	
-0.394104	
-0.393066	
-0.392334	
-0.390869	
-0.39209	
-0.391174	
-0.390198	
-0.389587	
-0.388062	
-0.38739	
-0.388184	
-0.386902	
-0.385803	
-0.384827	
-0.38562	
-0.384888	
-0.383484	
-0.381714	
-0.380737	
-0.380981	
-0.381287	
-0.380554	
-0.379944	
-0.379333	
-0.380615	
-0.380859	
-0.380066	
-0.379944	
-0.380127	
-0.381104	
-0.382324	
-0.384277	
-0.383667	
-0.384705	
-0.384888	
-0.387085	
-0.389099	
-0.389038	
-0.390259	
-0.390747	
-0.393188	
-0.395264	
-0.396118	
-0.3974	
-0.398743	
-0.401062	
-0.401794	
-0.403076	
-0.402283	
-0.404358	
-0.404846	
-0.407349	
-0.40863	
-0.410522	
-0.412598	
-0.415955	
-0.419189	
-0.422119	
-0.424255	
-0.427795	
-0.432434	
-0.436584	
-0.439758	
-0.442749	
-0.446594	
-0.4505	
-0.453003	
-0.455078	
-0.45575	
-0.457153	
-0.459778	
-0.462036	
-0.463501	
-0.465027	
-0.466492	
-0.468323	
-0.470032	
-0.470337	
-0.471497	
-0.472168	
-0.474304	
-0.476074	
-0.477722	
-0.477844	
-0.477905	
-0.478394	
-0.479858	
-0.479553	
-0.47876	
-0.479248	
-0.47937	
-0.480103	
-0.480408	
-0.479614	
-0.478821	
-0.477783	
-0.478516	
-0.47821	
-0.477295	
-0.476135	
-0.474854	
-0.47467	
-0.474976	
-0.473572	
-0.4729	
-0.471619	
-0.471497	
-0.46991	
-0.468445	
-0.464844	
-0.463806	
-0.462219	
-0.461548	
-0.459167	
-0.457642	
-0.455383	
-0.453552	
-0.450745	
-0.448242	
-0.444824	
-0.442749	
-0.441101	
-0.439697	
-0.438477	
-0.436462	
-0.434998	
-0.434509	
-0.434143	
-0.432678	
-0.431335	
-0.430298	
-0.429504	
-0.427979	
-0.427917	
-0.426331	
-0.424988	
-0.422974	
-0.421936	
-0.420715	
-0.418884	
-0.415466	
-0.412292	
-0.410156	
-0.406372	
-0.402771	
-0.399597	
-0.396912	
-0.394653	
-0.391724	
-0.389709	
-0.385803	
-0.381836	
-0.379333	
-0.376587	
-0.373657	
-0.368713	
-0.365784	
-0.361511	
-0.360718	
-0.355713	
-0.353027	
-0.348694	
-0.346985	
-0.344604	
-0.342651	
-0.339966	
-0.337708	
-0.33606	
-0.335754	
-0.334656	
-0.334595	
-0.333252	
-0.332764	
-0.333984	
-0.336304	
-0.336548	
-0.337952	
-0.339355	
-0.341003	
-0.342224	
-0.344055	
-0.344116	
-0.34491	
-0.34613	
-0.348694	
-0.349792	
-0.351013	
-0.35144	
-0.354004	
-0.354797	
-0.35614	
-0.355774	
-0.357056	
-0.357605	
-0.359741	
-0.360291	
-0.361084	
-0.361511	
-0.363464	
-0.363464	
-0.364197	
-0.363037	
-0.363525	
-0.363892	
-0.365112	
-0.365601	
-0.365784	
-0.365845	
-0.367859	
-0.367981	
-0.368286	
-0.366699	
-0.36731	
-0.366943	
-0.367737	
-0.367554	
-0.367615	
-0.367188	
-0.368347	
-0.367493	
-0.367493	
-0.366028	
-0.365784	
-0.366028	
-0.366699	
-0.366394	
-0.366882	
-0.36731	
-0.369141	
-0.369019	
-0.370178	
-0.369141	
-0.370361	
-0.370605	
-0.371887	
-0.372681	
-0.373535	
-0.374512	
-0.376709	
-0.377197	
-0.379333	
-0.378845	
-0.381409	
-0.381958	
-0.384583	
-0.384949	
-0.385742	
-0.386475	
-0.388672	
-0.389282	
-0.391174	
-0.390991	
-0.393799	
-0.395752	
-0.398987	
-0.401245	
-0.404541	
-0.408081	
-0.413269	
-0.416199	
-0.41925	
-0.42041	
-0.425171	
-0.42804	
-0.431946	
-0.434448	
-0.437012	
-0.439209	
-0.442932	
-0.444519	
-0.447266	
-0.447998	
-0.450073	
-0.450623	
-0.453979	
-0.454895	
-0.455994	
-0.455811	
-0.458191	
-0.459412	
-0.460327	
-0.460876	
-0.461365	
-0.462036	
-0.46344	
-0.463135	
-0.463562	
-0.463684	
-0.465759	
-0.465576	
-0.465332	
-0.462585	
-0.463501	
-0.464355	
-0.464539	
-0.463135	
-0.462952	
-0.461853	
-0.463318	
-0.461304	
-0.460022	
-0.45697	
-0.457153	
-0.455872	
-0.454834	
-0.452759	
-0.450928	
-0.449036	
-0.448181	
-0.445007	
-0.442261	
-0.439758	
-0.438538	
-0.436584	
-0.434265	
-0.432861	
-0.431091	
-0.429443	
-0.428284	
-0.426636	
-0.425049	
-0.423889	
-0.422485	
-0.421387	
-0.420898	
-0.420959	
-0.418457	
-0.416992	
-0.415588	
-0.41571	
-0.413208	
-0.411011	
-0.407898	
-0.406494	
-0.40448	
-0.404175	
-0.400635	
-0.397949	
-0.394897	
-0.394287	
-0.390625	
-0.387268	
-0.382568	
-0.38031	
-0.378601	
-0.376709	
-0.373962	
-0.371155	
-0.36853	
-0.367126	
-0.363831	
-0.362061	
-0.358521	
-0.356445	
-0.35376	
-0.352234	
-0.349487	
-0.347778	
-0.345886	
-0.345215	
-0.343872	
-0.343201	
-0.341797	
-0.341858	
-0.341675	
-0.342712	
-0.342712	
-0.342896	
-0.343079	
-0.344116	
-0.344482	
-0.345154	
-0.34491	
-0.345398	
-0.34613	
-0.347168	
-0.348572	
-0.348694	
-0.349792	
-0.350586	
-0.352417	
-0.352844	
-0.353638	
-0.354431	
-0.355652	
-0.356812	
-0.358643	
-0.35907	
-0.360046	
-0.361206	
-0.362732	
-0.36377	
-0.363647	
-0.364685	
-0.36554	
-0.366882	
-0.367493	
-0.367737	
-0.368347	
-0.36969	
-0.36969	
-0.370605	
-0.36969	
-0.371155	
-0.370667	
-0.372009	
-0.372437	
-0.37262	
-0.37262	
-0.373962	
-0.374084	
-0.374512	
-0.372559	
-0.374023	
-0.373779	
-0.375061	
-0.375549	
-0.375671	
-0.37616	
-0.377747	
-0.377502	
-0.378296	
-0.376343	
-0.377808	
-0.378296	
-0.379211	
-0.380615	
-0.380066	
-0.380554	
-0.381836	
-0.381836	
-0.382568	
-0.380554	
-0.382141	
-0.38208	
-0.382874	
-0.383423	
-0.382813	
-0.382813	
-0.383423	
-0.383057	
-0.383728	
-0.381531	
-0.383179	
-0.382935	
-0.383484	
-0.384521	
-0.383789	
-0.383911	
-0.383911	
-0.383667	
-0.384888	
-0.382813	
-0.384583	
-0.38385	
-0.385986	
-0.387085	
-0.387268	
-0.387268	
-0.387695	
-0.387939	
-0.389282	
-0.388062	
-0.388794	
-0.388245	
-0.389648	
-0.390503	
-0.390503	
-0.391296	
-0.391541	
-0.391663	
-0.393127	
-0.392212	
-0.392456	
-0.3927	
-0.39325	
-0.394348	
-0.394043	
-0.394592	
-0.394531	
-0.395325	
-0.395813	
-0.395813	
-0.39624	
-0.396301	
-0.396301	
-0.397766	
-0.397766	
-0.397888	
-0.397339	
-0.399353	
-0.39978	
-0.399902	
-0.399353	
-0.400269	
-0.401306	
-0.402405	
-0.402466	
-0.403442	
-0.403931	
-0.404907	
-0.405212	
-0.405273	
-0.405273	
-0.406128	
-0.406433	
-0.40686	
-0.407043	
-0.406982	
-0.407104	
-0.407654	
-0.407349	
-0.406372	
-0.405029	
-0.40509	
-0.405273	
-0.404358	
-0.404053	
-0.404114	
-0.404175	
-0.404419	
-0.404297	
-0.403076	
-0.401611	
-0.402039	
-0.402649	
-0.402832	
-0.402954	
-0.402893	
-0.403198	
-0.403992	
-0.403992	
-0.402893	
-0.401855	
-0.402466	
-0.403625	
-0.403259	
-0.402954	
-0.402588	
-0.402954	
-0.402649	
-0.402039	
-0.400818	
-0.398682	
-0.398621	
-0.397705	
-0.398193	
-0.3974	
-0.39679	
-0.396851	
-0.397522	
-0.396423	
-0.396057	
-0.394836	
-0.394653	
-0.394165	
-0.395874	
-0.394226	
-0.394165	
-0.393066	
-0.395569	
-0.394287	
-0.394653	
-0.392517	
-0.393799	
-0.393372	
-0.394531	
-0.393982	
-0.394287	
-0.393494	
-0.39502	
-0.39447	
-0.394531	
-0.393799	
-0.394226	
-0.394104	
-0.394226	
-0.394409	
-0.39447	
-0.394958	
-0.395691	
-0.395996	
-0.396057	
-0.395813	
-0.395813	
-0.395508	
-0.396118	
-0.396301	
-0.395935	
-0.396118	
-0.396423	
-0.396912	
-0.39679	
-0.396484	
-0.395447	
-0.395874	
-0.395691	
-0.397156	
-0.396179	
-0.396118	
-0.395386	
-0.398193	
-0.397461	
-0.397095	
-0.394714	
-0.395508	
-0.396118	
-0.397278	
-0.39624	
-0.395569	
-0.395264	
-0.397156	
-0.396057	
-0.395508	
-0.39386	
-0.395203	
-0.395386	
-0.395996	
-0.395447	
-0.394897	
-0.394714	
-0.396301	
-0.39502	
-0.395203	
-0.394104	
-0.394592	
-0.394592	
-0.395081	
-0.39447	
-0.39447	
-0.394775	
-0.395203	
-0.394043	
-0.394165	
-0.394714	
-0.394287	
-0.394653	
-0.393982	
-0.395386	
-0.394836	
-0.394714	
-0.394165	
-0.395386	
-0.395264	
-0.395569	
-0.394409	
-0.394653	
-0.39447	
-0.395569	
-0.395203	
-0.395447	
-0.39502	
-0.396301	
-0.395691	
-0.39502	
-0.393677	
-0.393677	
-0.394958	
-0.395081	
-0.394897	
-0.394836	
-0.394836	
-0.396423	
-0.396179	
-0.395142	
-0.393982	
-0.394897	
-0.395264	
-0.395203	
-0.395691	
-0.395508	
-0.395325	
-0.396118	
-0.395691	
-0.395203	
-0.39502	
-0.394226	
-0.394897	
-0.393616	
-0.395325	
-0.394836	
-0.394714	
-0.394043	
-0.39563	
-0.394287	
-0.394287	
-0.393005	
-0.393921	
-0.393799	
-0.394592	
-0.394165	
-0.394165	
-0.393982	
-0.394592	
-0.394348	
-0.394348	
-0.393677	
-0.393616	
-0.393799	
-0.39502	
-0.394958	
-0.395081	
-0.395386	
-0.396912	
-0.397156	
-0.396362	
-0.395142	
-0.395874	
-0.396545	
-0.396606	
-0.397217	
-0.396973	
-0.39679	
-0.396912	
-0.397888	
-0.3974	
-0.397278	
-0.396545	
-0.396973	
-0.396118	
-0.3974	
-0.396912	
-0.396423	
-0.395691	
-0.397278	
-0.39679	
-0.397034	
-0.395691	
-0.396423	
-0.395874	
-0.397095	
-0.397034	
-0.396912	
-0.396484	
-0.397583	
-0.397217	
-0.397278	
-0.396423	
-0.396912	
-0.396545	
-0.396606	
-0.396179	
-0.395874	
-0.396057	
-0.397339	
-0.396118	
-0.395752	
-0.394348	
-0.395081	
-0.39563	
-0.396057	
-0.395691	
-0.395508	
-0.395508	
-0.395935	
-0.396423	
-0.395447	
-0.394897	
-0.394348	
-0.39563	
-0.395996	
-0.396973	
-0.396179	
-0.396851	
-0.395447	
-0.397949	
-0.397278	
-0.3974	
-0.395874	
-0.397644	
-0.398193	
-0.398376	
-0.39801	
-0.398315	
-0.398499	
-0.400574	
-0.399292	
-0.400024	
-0.397827	
-0.399414	
-0.398682	
-0.400391	
-0.39978	
-0.399597	
-0.400024	
-0.400818	
-0.40094	
-0.399902	
-0.39856	
-0.397766	
-0.398315	
-0.39856	
-0.39917	
-0.398376	
-0.39801	
-0.397217	
-0.398987	
-0.397522	
-0.396851	
-0.396301	
-0.396362	
-0.396301	
-0.396606	
-0.396057	
-0.395691	
-0.395508	
-0.397095	
-0.395569	
-0.395264	
-0.393799	
-0.394653	
-0.394897	
-0.395813	
-0.395935	
-0.395325	
-0.395081	
-0.39679	
-0.395386	
-0.395691	
-0.393494	
-0.394409	
-0.393433	
-0.394592	
-0.395142	
-0.394348	
-0.393677	
-0.393738	
-0.394775	
-0.394104	
-0.392456	
-0.391235	
-0.391785	
-0.392578	
-0.393005	
-0.391479	
-0.392151	
-0.39209	
-0.393127	
-0.391724	
-0.391418	
-0.39032	
-0.391174	
-0.391663	
-0.391724	
-0.391663	
-0.391968	
-0.392334	
-0.393127	
-0.393433	
-0.393311	
-0.3927	
-0.39325	
-0.393738	
-0.394165	
-0.394836	
-0.394287	
-0.394409	
-0.39447	
-0.394653	
-0.394714	
-0.393372	
-0.393799	
-0.393066	
-0.39386	
-0.393921	
-0.393127	
-0.39325	
-0.393433	
-0.393738	
-0.392761	
-0.391174	
-0.39093	
-0.392395	
-0.392761	
-0.393311	
-0.39325	
-0.393738	
-0.394409	
-0.395996	
-0.394592	
-0.394958	
-0.393188	
-0.39502	
-0.395203	
-0.39502	
-0.395142	
-0.395203	
-0.395325	
-0.395203	
-0.395264	
-0.39624	
-0.395142	
-0.395386	
-0.394287	
-0.395386	
-0.396484	
-0.39563	
-0.395691	
-0.395386	
-0.396729	
-0.395508	
-0.394775	
-0.394287	
-0.394897	
-0.39447	
-0.39502	
-0.394287	
-0.394897	
-0.39502	
-0.395691	
-0.394043	
-0.392151	
-0.391785	
-0.392822	
-0.392456	
-0.392395	
-0.392273	
-0.392029	
-0.392395	
-0.391907	
-0.391357	
-0.391174	
-0.390442	
-0.390991	
-0.391174	
-0.391296	
-0.391235	
-0.391174	
-0.391724	
-0.39209	
-0.393005	
-0.392517	
-0.391907	
-0.391418	
-0.391418	
-0.392578	
-0.39325	
-0.392639	
-0.392639	
-0.392761	
-0.394653	
-0.393616	
-0.392517	
-0.392456	
-0.393188	
-0.394104	
-0.394531	
-0.393799	
-0.394165	
-0.394653	
-0.394775	
-0.394714	
-0.394287	
-0.394043	
-0.394165	
-0.394897	
-0.394897	
-0.395325	
-0.395081	
-0.395264	
-0.395752	
-0.39679	
-0.395752	
-0.395447	
-0.394165	
-0.395874	
-0.396118	
-0.396912	
-0.396423	
-0.39624	
-0.395691	
-0.397766	
-0.396912	
-0.39563	
-0.395447	
-0.39563	
-0.395813	
-0.396606	
-0.395935	
-0.395874	
-0.396606	
-0.396362	
-0.396484	
-0.394165	
-0.395264	
-0.395203	
-0.395691	
-0.396606	
-0.396057	
-0.396118	
-0.396484	
-0.396301	
-0.397644	
-0.395996	
-0.39624	
-0.39386	
-0.395935	
-0.396301	
-0.396301	
-0.395874	
-0.395874	
-0.39563	
-0.396851	
-0.395813	
-0.395508	
-0.394836	
-0.395386	
-0.396057	
-0.39679	
-0.395752	
-0.395935	
-0.39563	
-0.395996	
-0.396606	
-0.394775	
-0.395569	
-0.394958	
-0.396179	
-0.396301	
-0.395874	
-0.396118	
-0.396301	
-0.396301	
-0.397827	
-0.39563	
-0.395569	
-0.393677	
-0.396118	
-0.396423	
-0.396057	
-0.396057	
-0.396118	
-0.394836	
-0.396057	
-0.394897	
-0.394592	
-0.393738	
-0.393433	
-0.393921	
-0.394348	
-0.393066	
-0.393677	
-0.39325	
-0.393372	
-0.394043	
-0.392822	
-0.392456	
-0.392517	
-0.393127	
-0.393677	
-0.392944	
-0.393433	
-0.394104	
-0.39386	
-0.395874	
-0.393738	
-0.394226	
-0.392334	
-0.394348	
-0.394531	
-0.395081	
-0.394897	
-0.394836	
-0.393494	
-0.396057	
-0.394653	
-0.39447	
-0.392944	
-0.393799	
-0.394592	
-0.395691	
-0.394897	
-0.395325	
-0.395264	
-0.39679	
-0.396423	
-0.394714	
-0.395508	
-0.396118	
-0.396423	
-0.396484	
-0.39624	
-0.396729	
-0.397095	
-0.397522	
-0.397644	
-0.396851	
-0.396729	
-0.396851	
-0.397705	
-0.397461	
-0.397949	
-0.397461	
-0.397461	
-0.397156	
-0.39856	
-0.397278	
-0.396484	
-0.395569	
-0.39624	
-0.396301	
-0.397034	
-0.396179	
-0.395874	
-0.395996	
-0.396484	
-0.395996	
-0.393433	
-0.39447	
-0.393799	
-0.394531	
-0.394714	
-0.39447	
-0.393677	
-0.393738	
-0.394104	
-0.393616	
-0.392578	
-0.39209	
-0.393311	
-0.393616	
-0.39386	
-0.393677	
-0.393433	
-0.394104	
-0.394531	
-0.394958	
-0.394104	
-0.39325	
-0.392944	
-0.394165	
-0.395142	
-0.394653	
-0.394592	
-0.395081	
-0.394958	
-0.395508	
-0.396301	
-0.394897	
-0.395752	
-0.395081	
-0.395752	
-0.396667	
-0.395996	
-0.396057	
-0.39563	
-0.397095	
-0.39624	
-0.395691	
-0.395142	
-0.396179	
-0.396484	
-0.396545	
-0.396667	
-0.397156	
-0.396851	
-0.398438	
-0.398376	
-0.397827	
-0.395935	
-0.397156	
-0.398254	
-0.399109	
-0.39917	
-0.399109	
-0.399231	
-0.400879	
-0.400085	
-0.400879	
-0.400024	
-0.400391	
-0.399353	
-0.400513	
-0.401306	
-0.400513	
-0.400452	
-0.399231	
-0.40094	
-0.40033	
-0.399536	
-0.398315	
-0.39856	
-0.398682	
-0.398926	
-0.39801	
-0.397949	
-0.397888	
-0.399475	
-0.398315	
-0.397766	
-0.395752	
-0.397217	
-0.397339	
-0.39801	
-0.398071	
-0.39801	
-0.398254	
-0.399536	
-0.399292	
-0.399536	
-0.398621	
-0.398926	
-0.398499	
-0.399414	
-0.400391	
-0.399292	
-0.398865	
-0.397827	
-0.398865	
-0.398743	
-0.397095	
-0.39679	
-0.395264	
-0.396667	
-0.39679	
-0.39624	
-0.39624	
-0.396484	
-0.397766	
-0.396912	
-0.39624	
-0.393555	
-0.394592	
-0.395142	
-0.395081	
-0.395447	
-0.395081	
-0.395081	
-0.395935	
-0.395081	
-0.395874	
-0.394775	
-0.394775	
-0.394592	
-0.39563	
-0.396118	
-0.395447	
-0.39563	
-0.39563	
-0.395996	
-0.396179	
-0.395447	
-0.395752	
-0.396301	
-0.396362	
-0.397156	
-0.397888	
-0.398438	
-0.398682	
-0.39978	
-0.399719	
-0.399048	
-0.396973	
-0.397949	
-0.399109	
-0.399231	
-0.399963	
-0.399414	
-0.399475	
-0.399536	
-0.399536	
-0.399841	
-0.398315	
-0.399231	
-0.398315	
-0.398682	
-0.399536	
-0.398621	
-0.398071	
-0.398193	
-0.398499	
-0.398438	
-0.3974	
-0.397583	
-0.397156	
-0.397339	
-0.397278	
-0.396606	
-0.396484	
-0.396667	
-0.397705	
-0.397705	
-0.396484	
-0.395264	
-0.395203	
-0.395325	
-0.396545	
-0.39624	
-0.39563	
-0.395691	
-0.39679	
-0.395813	
-0.395752	
-0.393738	
-0.394897	
-0.394653	
-0.395081	
-0.395691	
-0.395447	
-0.394958	
-0.395142	
-0.394897	
-0.395203	
-0.394592	
-0.394836	
-0.395203	
-0.395203	
-0.395752	
-0.395325	
-0.395325	
-0.395508	
-0.396362	
-0.396057	
-0.395813	
-0.39447	
-0.394714	
-0.394226	
-0.395325	
-0.395081	
-0.394653	
-0.394897	
-0.394287	
-0.395203	
-0.39502	
-0.394104	
-0.394104	
-0.393921	
-0.394775	
-0.395203	
-0.394592	
-0.39447	
-0.39563	
-0.395203	
-0.394897	
-0.393372	
-0.394653	
-0.394714	
-0.394836	
-0.394653	
-0.394409	
-0.394836	
-0.395264	
-0.395752	
-0.395264	
-0.394653	
-0.393738	
-0.39325	
-0.393433	
-0.39447	
-0.395264	
-0.394287	
-0.394409	
-0.393616	
-0.394653	
-0.394714	
-0.394104	
-0.393982	
-0.394104	
-0.394592	
-0.395081	
-0.394287	
-0.394531	
-0.394714	
-0.395142	
-0.39502	
-0.39447	
-0.394653	
-0.395508	
-0.395996	
-0.396301	
-0.396423	
-0.397034	
-0.397705	
-0.397339	
-0.39801	
-0.396912	
-0.396545	
-0.395874	
-0.396851	
-0.397705	
-0.398071	
-0.397156	
-0.397583	
-0.396484	
-0.398132	
-0.397339	
-0.396729	
-0.395935	
-0.395752	
-0.395752	
-0.396118	
-0.395508	
-0.395935	
-0.395874	
-0.396545	
-0.396301	
-0.394775	
-0.394348	
-0.395508	
-0.395691	
-0.395935	
-0.395996	
-0.395752	
-0.395996	
-0.395569	
-0.396484	
-0.394775	
-0.394714	
-0.393494	
-0.394104	
-0.394409	
-0.394958	
-0.393677	
-0.39386	
-0.393188	
-0.393738	
-0.394348	
-0.39325	
-0.393188	
-0.392456	
-0.393311	
-0.39325	
-0.393066	
-0.392822	
-0.393127	
-0.394287	
-0.393921	
-0.392639	
-0.392456	
-0.393494	
-0.394287	
-0.393982	
-0.394592	
-0.393982	
-0.395142	
-0.394165	
-0.395386	
-0.394043	
-0.394287	
-0.394165	
-0.395264	
-0.395386	
-0.396484	
-0.396057	
-0.396362	
-0.396606	
-0.397522	
-0.397766	
-0.396851	
-0.396912	
-0.395752	
-0.396729	
-0.3974	
-0.396912	
-0.39679	
-0.39679	
-0.396729	
-0.397095	
-0.396057	
-0.395874	
-0.396057	
-0.396301	
-0.396057	
-0.396423	
-0.395813	
-0.396301	
-0.395203	
-0.396484	
-0.393677	
-0.393555	
-0.393555	
-0.394653	
-0.394897	
-0.395081	
-0.394653	
-0.394775	
-0.394531	
-0.394287	
-0.394165	
-0.393677	
-0.393982	
-0.394104	
-0.393982	
-0.393982	
-0.394226	
-0.393738	
-0.393616	
-0.393555	
-0.394287	
-0.393005	
-0.392883	
-0.391724	
-0.392578	
-0.392273	
-0.3927	
-0.391724	
-0.392151	
-0.390198	
-0.391968	
-0.389709	
-0.390259	
-0.389038	
-0.390137	
-0.390381	
-0.390625	
-0.39032	
-0.390686	
-0.39093	
-0.390808	
-0.389954	
-0.389526	
-0.390381	
-0.390991	
-0.391357	
-0.391663	
-0.391602	
-0.39209	
-0.392639	
-0.392639	
-0.392883	
-0.392273	
-0.392151	
-0.391846	
-0.392883	
-0.3927	
-0.393311	
-0.3927	
-0.393616	
-0.391174	
-0.392944	
-0.390503	
-0.391541	
-0.389893	
-0.391174	
-0.391296	
-0.391479	
-0.390503	
-0.391541	
-0.391663	
-0.391846	
-0.391296	
-0.391846	
-0.391785	
-0.392578	
-0.3927	
-0.39325	
-0.39325	
-0.393677	
-0.394287	
-0.39386	
-0.39386	
-0.392578	
-0.39325	
-0.3927	
-0.394165	
-0.394226	
-0.395081	
-0.39447	
-0.395325	
-0.393494	
-0.395691	
-0.393372	
-0.394653	
-0.392761	
-0.394409	
-0.394348	
-0.395203	
-0.394226	
-0.39502	
-0.39386	
-0.394653	
-0.393616	
-0.393921	
-0.393433	
-0.393616	
-0.393372	
-0.393372	
-0.392761	
-0.392639	
-0.392822	
-0.391663	
-0.391663	
-0.390137	
-0.39093	
-0.391052	
-0.391052	
-0.390991	
-0.390869	
-0.390686	
-0.391357	
-0.390259	
-0.39209	
-0.389954	
-0.39093	
-0.388916	
-0.390869	
-0.391663	
-0.392578	
-0.392029	
-0.392456	
-0.391296	
-0.392639	
-0.391174	
-0.391785	
-0.391907	
-0.392212	
-0.392334	
-0.392883	
-0.393005	
-0.39325	
-0.393311	
-0.393372	
-0.39325	
-0.392456	
-0.393311	
-0.392822	
-0.393799	
-0.393982	
-0.393799	
-0.393982	
-0.395264	
-0.394592	
-0.395752	
-0.393066	
-0.394287	
-0.393127	
-0.394714	
-0.394958	
-0.395569	
-0.395142	
-0.39563	
-0.394226	
-0.395935	
-0.394653	
-0.394958	
-0.394287	
-0.394958	
-0.395447	
-0.39624	
-0.395569	
-0.39563	
-0.39563	
-0.395386	
-0.395386	
-0.393677	
-0.394287	
-0.393616	
-0.394348	
-0.394714	
-0.394897	
-0.394592	
-0.396057	
-0.394714	
-0.395203	
-0.393677	
-0.394592	
-0.394714	
-0.394714	
-0.395203	
-0.395447	
-0.394836	
-0.395325	
-0.394104	
-0.396057	
-0.394531	
-0.394653	
-0.393982	
-0.39447	
-0.394226	
-0.395142	
-0.394531	
-0.394531	
-0.39386	
-0.394836	
-0.395203	
-0.394165	
-0.39447	
-0.393494	
-0.394409	
-0.394775	
-0.394897	
-0.395142	
-0.39624	
-0.39502	
-0.395447	
-0.393433	
-0.394836	
-0.394104	
-0.395325	
-0.395569	
-0.395386	
-0.394958	
-0.395752	
-0.395081	
-0.39624	
-0.394226	
-0.394775	
-0.393921	
-0.394409	
-0.394287	
-0.394897	
-0.393433	
-0.393921	
-0.392212	
-0.392761	
-0.392822	
-0.391968	
-0.392212	
-0.391357	
-0.391785	
-0.392273	
-0.39209	
-0.392151	
-0.392822	
-0.391968	
-0.392822	
-0.390625	
-0.391785	
-0.390747	
-0.392395	
-0.392822	
-0.393494	
-0.392944	
-0.394836	
-0.392517	
-0.393616	
-0.391602	
-0.393005	
-0.392517	
-0.393066	
-0.393311	
-0.393799	
-0.393188	
-0.393738	
-0.392578	
-0.393066	
-0.393677	
-0.393433	
-0.393005	
-0.392212	
-0.393982	
-0.394226	
-0.394348	
-0.394958	
-0.395081	
-0.394897	
	
