E:\DOCUMENTS AND SETTINGS\JPOTAS\MEUS DOCUMENTOS\UFRJ\RSCI-BM 12 WK SERIES\070719-RSCI-BM-02\RSCI-BM-02-REMG\070719-RSCI-BM-02-REMG-0006.ACQ
0.025000 msec/sample
1 channel
Analog input
Volts
CH1	
2000	
-0.392395	
-0.391907	
-0.391602	
-0.391968	
-0.391968	
-0.392395	
-0.391235	
-0.393005	
-0.391968	
-0.3927	
-0.392151	
-0.392639	
-0.392822	
-0.392944	
-0.392883	
-0.392456	
-0.392639	
-0.392395	
-0.391602	
-0.39032	
-0.390991	
-0.390625	
-0.390564	
-0.389404	
-0.389893	
-0.389648	
-0.389404	
-0.388855	
-0.388672	
-0.388306	
-0.389038	
-0.389221	
-0.38855	
-0.387878	
-0.388	
-0.387512	
-0.387512	
-0.386414	
-0.38855	
-0.387878	
-0.388184	
-0.387207	
-0.388367	
-0.387878	
-0.388794	
-0.389038	
-0.388733	
-0.389465	
-0.38916	
-0.389343	
-0.388367	
-0.389771	
-0.389771	
-0.389893	
-0.389526	
-0.390442	
-0.390686	
-0.391052	
-0.391052	
-0.392456	
-0.392273	
-0.393311	
-0.393311	
-0.393616	
-0.39325	
-0.394104	
-0.394531	
-0.394592	
-0.394348	
-0.395691	
-0.39502	
-0.395325	
-0.395447	
-0.395264	
-0.395386	
-0.395508	
-0.395935	
-0.396301	
-0.396484	
-0.395935	
-0.395569	
-0.39502	
-0.395691	
-0.396362	
-0.395386	
-0.395325	
-0.395203	
-0.395142	
-0.395508	
-0.394653	
-0.395569	
-0.394897	
-0.396057	
-0.394775	
-0.395081	
-0.394653	
-0.396057	
-0.395813	
-0.395996	
-0.395813	
-0.396118	
-0.394897	
-0.395874	
-0.394958	
-0.39563	
-0.394958	
-0.395081	
-0.39502	
-0.395142	
-0.395386	
-0.394531	
-0.394897	
-0.393982	
-0.394409	
-0.395752	
-0.394714	
-0.394897	
-0.395447	
-0.395447	
-0.396118	
-0.394409	
-0.396484	
-0.395264	
-0.395935	
-0.39447	
-0.395386	
-0.394165	
-0.39563	
-0.395325	
-0.395752	
-0.395569	
-0.396057	
-0.395447	
-0.396057	
-0.396301	
-0.396667	
-0.395691	
-0.396057	
-0.394958	
-0.39563	
-0.395691	
-0.394775	
-0.395813	
-0.395569	
-0.396484	
-0.396423	
-0.396362	
-0.39624	
-0.396362	
-0.395508	
-0.396057	
-0.394836	
-0.395447	
-0.393921	
-0.394958	
-0.393188	
-0.394287	
-0.392883	
-0.394165	
-0.393738	
-0.394043	
-0.393188	
-0.393066	
-0.392578	
-0.393677	
-0.3927	
-0.393921	
-0.392029	
-0.392212	
-0.392944	
-0.392395	
-0.392822	
-0.391968	
-0.392639	
-0.392334	
-0.393005	
-0.393127	
-0.392639	
-0.39325	
-0.392578	
-0.392761	
-0.394104	
-0.3927	
-0.393799	
-0.393311	
-0.394226	
-0.392212	
-0.394226	
-0.392029	
-0.394043	
-0.392761	
-0.39386	
-0.39386	
-0.393799	
-0.393738	
-0.39447	
-0.393921	
-0.393311	
-0.391846	
-0.391663	
-0.392578	
-0.392395	
-0.393066	
-0.393494	
-0.39624	
-0.395569	
-0.396667	
-0.396851	
-0.397156	
-0.3974	
-0.397705	
-0.397522	
-0.39856	
-0.398438	
-0.399841	
-0.399353	
-0.400452	
-0.399475	
-0.400269	
-0.398621	
-0.399353	
-0.399048	
-0.399292	
-0.400085	
-0.398804	
-0.399109	
-0.398499	
-0.398743	
-0.399475	
-0.398987	
-0.399475	
-0.399963	
-0.399231	
-0.399597	
-0.398132	
-0.399658	
-0.398865	
-0.398865	
-0.398132	
-0.399231	
-0.399597	
-0.399658	
-0.399963	
-0.399658	
-0.399841	
-0.399719	
-0.399475	
-0.400024	
-0.399292	
-0.399658	
-0.398254	
-0.39856	
-0.398071	
-0.398132	
-0.398132	
-0.396118	
-0.396912	
-0.396057	
-0.395691	
-0.394958	
-0.393738	
-0.39325	
-0.392639	
-0.392212	
-0.391541	
-0.390381	
-0.390503	
-0.388794	
-0.388855	
-0.387024	
-0.387451	
-0.386658	
-0.386169	
-0.385559	
-0.385071	
-0.384949	
-0.383972	
-0.383301	
-0.382446	
-0.382202	
-0.383362	
-0.381958	
-0.383301	
-0.383179	
-0.383972	
-0.385254	
-0.38501	
-0.385925	
-0.386108	
-0.386414	
-0.387024	
-0.387817	
-0.38916	
-0.39093	
-0.39093	
-0.392578	
-0.39325	
-0.396179	
-0.396484	
-0.397644	
-0.397949	
-0.399353	
-0.400024	
-0.401611	
-0.402649	
-0.404053	
-0.405151	
-0.407898	
-0.409546	
-0.411987	
-0.41394	
-0.41803	
-0.422119	
-0.425903	
-0.429565	
-0.43335	
-0.436523	
-0.439514	
-0.44043	
-0.44342	
-0.445862	
-0.448975	
-0.451294	
-0.455261	
-0.458191	
-0.460938	
-0.461731	
-0.464417	
-0.465515	
-0.467468	
-0.467651	
-0.470032	
-0.470276	
-0.473267	
-0.474976	
-0.476196	
-0.477478	
-0.47937	
-0.479187	
-0.480042	
-0.479675	
-0.481323	
-0.47998	
-0.480774	
-0.480835	
-0.480408	
-0.480896	
-0.480164	
-0.479126	
-0.478027	
-0.478577	
-0.478821	
-0.477295	
-0.477234	
-0.476379	
-0.476074	
-0.47583	
-0.473999	
-0.473877	
-0.47229	
-0.471802	
-0.471069	
-0.468628	
-0.467163	
-0.465393	
-0.463684	
-0.462158	
-0.459473	
-0.458069	
-0.45575	
-0.453857	
-0.45105	
-0.447632	
-0.443909	
-0.442566	
-0.439453	
-0.436951	
-0.434387	
-0.433594	
-0.430359	
-0.428894	
-0.42627	
-0.426147	
-0.424438	
-0.423767	
-0.421753	
-0.420593	
-0.4198	
-0.417725	
-0.415588	
-0.413452	
-0.411865	
-0.410889	
-0.407532	
-0.405212	
-0.402893	
-0.400085	
-0.397949	
-0.395081	
-0.391968	
-0.389099	
-0.386475	
-0.383667	
-0.379639	
-0.376831	
-0.373901	
-0.370361	
-0.367798	
-0.364502	
-0.362732	
-0.358887	
-0.356567	
-0.353455	
-0.351624	
-0.348816	
-0.348267	
-0.346619	
-0.345337	
-0.34491	
-0.343628	
-0.343445	
-0.34259	
-0.34259	
-0.342834	
-0.343079	
-0.34491	
-0.345703	
-0.347778	
-0.350525	
-0.353394	
-0.355896	
-0.358154	
-0.361633	
-0.365051	
-0.367615	
-0.37207	
-0.375305	
-0.379211	
-0.383301	
-0.386658	
-0.389648	
-0.392517	
-0.395752	
-0.398926	
-0.400818	
-0.404114	
-0.40625	
-0.408997	
-0.412292	
-0.414246	
-0.416321	
-0.417969	
-0.421692	
-0.424438	
-0.425476	
-0.428162	
-0.42865	
-0.431152	
-0.433411	
-0.434937	
-0.436035	
-0.437073	
-0.438782	
-0.440063	
-0.440247	
-0.44104	
-0.440369	
-0.44165	
-0.4422	
-0.442505	
-0.44281	
-0.442017	
-0.441162	
-0.440796	
-0.43988	
-0.439636	
-0.43866	
-0.4375	
-0.436584	
-0.435181	
-0.435242	
-0.432983	
-0.433472	
-0.431396	
-0.432373	
-0.429993	
-0.430542	
-0.427673	
-0.427429	
-0.426086	
-0.424377	
-0.422668	
-0.42218	
-0.420715	
-0.420227	
-0.417908	
-0.417969	
-0.415466	
-0.414917	
-0.413696	
-0.412415	
-0.411682	
-0.409058	
-0.409241	
-0.40863	
-0.407593	
-0.406738	
-0.404785	
-0.403809	
-0.403442	
-0.401123	
-0.400208	
-0.398132	
-0.396545	
-0.394409	
-0.393799	
-0.392273	
-0.39032	
-0.388245	
-0.386414	
-0.384216	
-0.382446	
-0.379395	
-0.377258	
-0.373291	
-0.371033	
-0.367126	
-0.365112	
-0.361084	
-0.358459	
-0.354797	
-0.352234	
-0.349609	
-0.345886	
-0.342468	
-0.33905	
-0.336426	
-0.334717	
-0.33136	
-0.329834	
-0.328308	
-0.326294	
-0.326172	
-0.324341	
-0.324585	
-0.323669	
-0.324097	
-0.324402	
-0.324707	
-0.325256	
-0.325989	
-0.326965	
-0.328613	
-0.328857	
-0.330017	
-0.33075	
-0.333435	
-0.335144	
-0.336426	
-0.337524	
-0.339355	
-0.340393	
-0.342285	
-0.342346	
-0.343811	
-0.343994	
-0.346497	
-0.347961	
-0.348816	
-0.349976	
-0.351196	
-0.352295	
-0.354065	
-0.354004	
-0.355042	
-0.355225	
-0.356873	
-0.358093	
-0.358032	
-0.35907	
-0.359314	
-0.360291	
-0.361328	
-0.360535	
-0.36145	
-0.361145	
-0.361755	
-0.363159	
-0.36261	
-0.362793	
-0.362671	
-0.363525	
-0.364319	
-0.364319	
-0.364624	
-0.36554	
-0.365906	
-0.366699	
-0.36676	
-0.36676	
-0.366516	
-0.367493	
-0.36853	
-0.368591	
-0.369263	
-0.369629	
-0.371033	
-0.373047	
-0.37323	
-0.374573	
-0.374023	
-0.376038	
-0.37738	
-0.377686	
-0.377991	
-0.378113	
-0.379211	
-0.380066	
-0.379639	
-0.38031	
-0.379761	
-0.381104	
-0.38147	
-0.381531	
-0.381714	
-0.381287	
-0.381958	
-0.38324	
-0.382324	
-0.383118	
-0.38269	
-0.383301	
-0.384216	
-0.383362	
-0.383789	
-0.383362	
-0.383789	
-0.38446	
-0.384277	
-0.384583	
-0.384766	
-0.384888	
-0.385559	
-0.384094	
-0.385193	
-0.384094	
-0.384949	
-0.384827	
-0.385864	
-0.385864	
-0.387085	
-0.386719	
-0.388367	
-0.386841	
-0.389465	
-0.388123	
-0.389648	
-0.388672	
-0.390076	
-0.389221	
-0.39093	
-0.390869	
-0.391296	
-0.390381	
-0.392456	
-0.391785	
-0.392578	
-0.391541	
-0.39209	
-0.391418	
-0.391541	
-0.392578	
-0.392273	
-0.392273	
-0.392883	
-0.392944	
-0.39386	
-0.39447	
-0.393494	
-0.393494	
-0.393677	
-0.394409	
-0.393188	
-0.392883	
-0.392578	
-0.3927	
-0.392334	
-0.391785	
-0.391296	
-0.391296	
-0.390747	
-0.391235	
-0.390198	
-0.390381	
-0.388916	
-0.389526	
-0.389099	
-0.388794	
-0.388367	
-0.389221	
-0.388489	
-0.38916	
-0.387451	
-0.388062	
-0.387573	
-0.387695	
-0.387939	
-0.388367	
-0.387939	
-0.388672	
-0.388794	
-0.388123	
-0.387268	
-0.388672	
-0.388123	
-0.388123	
-0.387939	
-0.387878	
-0.387756	
-0.388794	
-0.388733	
-0.388672	
-0.387268	
-0.38855	
-0.388367	
-0.389404	
-0.389343	
-0.389954	
-0.390259	
-0.391052	
-0.390869	
-0.391785	
-0.39093	
-0.391663	
-0.391113	
-0.392761	
-0.392334	
-0.39325	
-0.392395	
-0.392761	
-0.392029	
-0.393555	
-0.392761	
-0.392883	
-0.392761	
-0.392517	
-0.392395	
-0.392456	
-0.391785	
-0.392029	
-0.392212	
-0.39209	
-0.391602	
-0.390076	
-0.392029	
-0.391296	
-0.391541	
-0.390747	
-0.391357	
-0.391541	
-0.391968	
-0.392151	
-0.393066	
-0.392639	
-0.392944	
-0.391052	
-0.393005	
-0.391968	
-0.392578	
-0.390991	
-0.392212	
-0.391785	
-0.392578	
-0.391785	
-0.392151	
-0.391541	
-0.392334	
-0.391235	
-0.391968	
-0.390564	
-0.391785	
-0.39093	
-0.39209	
-0.39209	
-0.392212	
-0.392639	
-0.393494	
-0.393066	
-0.393677	
-0.393372	
-0.393921	
-0.394531	
-0.393982	
-0.394348	
-0.392944	
-0.394409	
-0.394958	
-0.394836	
-0.394714	
-0.394348	
-0.394714	
-0.395264	
-0.395203	
-0.395142	
-0.393982	
-0.394775	
-0.394104	
-0.394714	
-0.394897	
-0.394775	
-0.395081	
-0.395691	
-0.395691	
-0.396667	
-0.395569	
-0.396118	
-0.395081	
-0.39502	
-0.394043	
-0.394836	
-0.394531	
-0.394958	
-0.394226	
-0.395081	
-0.393982	
-0.395142	
-0.394531	
-0.394226	
-0.392761	
-0.394165	
-0.393799	
-0.393372	
-0.392517	
-0.393005	
-0.393005	
-0.39386	
-0.392883	
-0.393127	
-0.3927	
-0.393738	
-0.393066	
-0.393494	
-0.392883	
-0.393616	
-0.393433	
-0.393066	
-0.393494	
-0.393433	
-0.393005	
-0.394409	
-0.393677	
-0.393982	
-0.394043	
-0.39447	
-0.394958	
-0.394653	
-0.394287	
-0.393921	
-0.393982	
-0.394409	
-0.393677	
-0.394714	
-0.394897	
-0.395203	
-0.395569	
-0.395203	
-0.395996	
-0.396179	
-0.395996	
-0.396423	
-0.395752	
-0.3974	
-0.397705	
-0.398071	
-0.398254	
-0.397827	
-0.398865	
-0.398499	
-0.398804	
-0.398254	
-0.399292	
-0.39978	
-0.400085	
-0.40155	
-0.401001	
-0.400391	
-0.400513	
-0.400513	
-0.400208	
-0.399414	
-0.400574	
-0.399963	
-0.400085	
-0.399292	
-0.400146	
-0.400696	
-0.40033	
-0.400208	
-0.399963	
-0.399902	
-0.400391	
-0.400146	
-0.400085	
-0.39978	
-0.400635	
-0.400696	
-0.400635	
-0.401245	
-0.400146	
-0.400513	
-0.399902	
-0.401062	
-0.400635	
-0.401001	
-0.40155	
-0.401062	
-0.400635	
-0.400146	
-0.399841	
-0.400146	
-0.399475	
-0.400208	
-0.400024	
-0.399719	
-0.400269	
-0.400085	
-0.399475	
-0.399353	
-0.399353	
-0.399231	
-0.398315	
-0.398193	
-0.397644	
-0.397766	
-0.397461	
-0.397583	
-0.397278	
-0.397644	
-0.39856	
-0.397339	
-0.396912	
-0.396729	
-0.396423	
-0.396179	
-0.395081	
-0.396301	
-0.39624	
-0.396179	
-0.396484	
-0.395264	
-0.395325	
-0.394531	
-0.395386	
-0.395569	
-0.394958	
-0.39624	
-0.395935	
-0.395142	
-0.395325	
-0.39447	
-0.394836	
-0.394348	
-0.394958	
-0.395142	
-0.394714	
-0.395264	
-0.395142	
-0.39447	
-0.39447	
-0.393921	
-0.394348	
-0.393616	
-0.395081	
-0.394348	
-0.394104	
-0.393372	
-0.394836	
-0.394531	
-0.394775	
-0.394836	
-0.394775	
-0.394897	
-0.395691	
-0.394897	
-0.395203	
-0.395508	
-0.396484	
-0.39624	
-0.395569	
-0.395386	
-0.395569	
-0.396057	
-0.395081	
-0.396179	
-0.396484	
-0.396179	
-0.39679	
-0.397278	
-0.396729	
-0.397827	
-0.396606	
-0.396912	
-0.395386	
-0.397217	
-0.396667	
-0.396179	
-0.395264	
-0.396423	
-0.396729	
-0.396545	
-0.395874	
-0.395813	
-0.395325	
-0.396179	
-0.395813	
-0.395386	
-0.396057	
-0.397949	
-0.397034	
-0.397339	
-0.397095	
-0.397888	
-0.397583	
-0.397766	
-0.398926	
-0.39917	
-0.398926	
-0.400085	
-0.400757	
-0.399536	
-0.400818	
-0.399719	
-0.40033	
-0.399414	
-0.401001	
-0.400879	
-0.401245	
-0.400574	
-0.401428	
-0.40094	
-0.401306	
-0.400024	
-0.399902	
-0.398865	
-0.401001	
-0.400146	
-0.399597	
-0.398926	
-0.400818	
-0.399658	
-0.400146	
-0.397949	
-0.399048	
-0.397705	
-0.398804	
-0.398376	
-0.397949	
-0.397705	
-0.39801	
-0.397949	
-0.396973	
-0.39679	
-0.394531	
-0.394775	
-0.393677	
-0.394531	
-0.393921	
-0.393616	
-0.39386	
-0.394592	
-0.39325	
-0.393311	
-0.392151	
-0.392639	
-0.392639	
-0.394165	
-0.392944	
-0.392883	
-0.391724	
-0.39447	
-0.392944	
-0.393311	
-0.391479	
-0.392883	
-0.39209	
-0.393616	
-0.393433	
-0.393005	
-0.393677	
-0.394653	
-0.392822	
-0.393494	
-0.392578	
-0.392944	
-0.39209	
-0.391846	
-0.392944	
-0.393127	
-0.392273	
-0.392761	
-0.392761	
-0.392578	
-0.392334	
-0.392395	
-0.392639	
-0.393188	
-0.393616	
-0.393372	
-0.393311	
-0.393616	
-0.394714	
-0.393372	
-0.393433	
-0.391602	
-0.393188	
-0.39325	
-0.393921	
-0.393005	
-0.393433	
-0.393005	
-0.394531	
-0.393677	
-0.394043	
-0.393555	
-0.392944	
-0.392883	
-0.393311	
-0.39325	
-0.392883	
-0.391907	
-0.393311	
-0.392944	
-0.393372	
-0.392029	
-0.392151	
-0.391541	
-0.392578	
-0.392334	
-0.392151	
-0.391968	
-0.392334	
-0.394043	
-0.392639	
-0.391846	
-0.39032	
-0.391418	
-0.391846	
-0.391296	
-0.391785	
-0.392212	
-0.393005	
-0.393799	
-0.393677	
-0.393677	
-0.394043	
-0.393616	
-0.394348	
-0.393982	
-0.393921	
-0.393921	
-0.394043	
-0.395142	
-0.395142	
-0.395447	
-0.395325	
-0.394897	
-0.39502	
-0.396423	
-0.395691	
-0.395874	
-0.39502	
-0.396362	
-0.397583	
-0.396484	
-0.395325	
-0.393616	
-0.394287	
-0.395386	
-0.394897	
-0.395386	
-0.394775	
-0.395142	
-0.395447	
-0.39502	
-0.394775	
-0.395142	
-0.394348	
-0.39447	
-0.393311	
-0.394531	
-0.394226	
-0.394226	
-0.394287	
-0.394592	
-0.393799	
-0.393677	
-0.393005	
-0.393066	
-0.393066	
-0.392822	
-0.393066	
-0.391663	
-0.39209	
-0.393372	
-0.392639	
-0.391785	
-0.389954	
-0.390198	
-0.391541	
-0.390625	
-0.390259	
-0.390198	
-0.390137	
-0.39032	
-0.389465	
-0.388489	
-0.388184	
-0.387268	
-0.388123	
-0.387939	
-0.388611	
-0.388	
-0.388245	
-0.388428	
-0.38916	
-0.388489	
-0.388794	
-0.387878	
-0.388062	
-0.388916	
-0.387939	
-0.388672	
-0.387451	
-0.388428	
-0.390503	
-0.389587	
-0.388733	
-0.387329	
-0.388306	
-0.389099	
-0.388611	
-0.388916	
-0.388611	
-0.388977	
-0.389526	
-0.389587	
-0.389099	
-0.388672	
-0.388855	
-0.389282	
-0.388733	
-0.389099	
-0.389526	
-0.38916	
-0.389648	
-0.389465	
-0.389709	
-0.389587	
-0.389404	
-0.389526	
-0.38916	
-0.390198	
-0.390381	
-0.390564	
-0.390747	
-0.39209	
-0.391052	
-0.391418	
-0.389709	
-0.39093	
-0.391602	
-0.391418	
-0.391235	
-0.391052	
-0.392212	
-0.394287	
-0.393188	
-0.392578	
-0.391174	
-0.39209	
-0.393616	
-0.393066	
-0.392883	
-0.392151	
-0.392395	
-0.392944	
-0.392944	
-0.392639	
-0.393433	
-0.392334	
-0.392944	
-0.391785	
-0.392456	
-0.392578	
-0.39325	
-0.393188	
-0.394043	
-0.393433	
-0.393311	
-0.391846	
-0.393677	
-0.393066	
-0.393433	
-0.393616	
-0.393616	
-0.394104	
-0.395325	
-0.394775	
-0.393799	
-0.392517	
-0.392517	
-0.394104	
-0.39325	
-0.392944	
-0.392334	
-0.393494	
-0.393677	
-0.393433	
-0.392944	
-0.393188	
-0.392517	
-0.393738	
-0.391846	
-0.392212	
-0.390869	
-0.392029	
-0.39209	
-0.392578	
-0.391479	
-0.391113	
-0.388611	
-0.391479	
-0.391357	
-0.391052	
-0.390869	
-0.391418	
-0.391602	
-0.392029	
-0.392029	
-0.391052	
-0.391052	
-0.390686	
-0.390747	
-0.391235	
-0.391846	
-0.391724	
-0.392029	
-0.392395	
-0.39325	
-0.391724	
-0.391724	
-0.39032	
-0.390564	
-0.389404	
-0.389587	
-0.389465	
-0.389404	
-0.388794	
-0.390259	
-0.388428	
-0.388977	
-0.386047	
-0.388794	
-0.387512	
-0.38739	
-0.386536	
-0.387329	
-0.387024	
-0.387634	
-0.387146	
-0.386963	
-0.386475	
-0.387451	
-0.386841	
-0.387329	
-0.386536	
-0.387512	
-0.388184	
-0.387817	
-0.388733	
-0.387878	
-0.388672	
-0.387329	
-0.388306	
-0.387573	
-0.388184	
-0.388977	
-0.389343	
-0.389587	
-0.39093	
-0.389954	
-0.390747	
-0.388977	
-0.391113	
-0.391113	
-0.392029	
-0.392639	
-0.392578	
-0.393005	
-0.39447	
-0.39386	
-0.394165	
-0.393372	
-0.394348	
-0.394165	
-0.393982	
-0.394958	
-0.395142	
-0.394775	
-0.395203	
-0.395935	
-0.395264	
-0.395142	
-0.393738	
-0.394775	
-0.394958	
-0.394653	
-0.394958	
-0.395081	
-0.39447	
-0.395752	
-0.394287	
-0.394714	
-0.393982	
-0.394409	
-0.393066	
-0.392822	
-0.394348	
-0.394714	
-0.394836	
-0.395935	
-0.394531	
-0.39502	
-0.394531	
-0.39447	
-0.394226	
-0.393372	
-0.394348	
-0.394592	
-0.394714	
-0.394409	
-0.395508	
-0.393799	
-0.393921	
-0.391418	
-0.393494	
-0.393494	
-0.393982	
-0.393982	
-0.393982	
-0.394226	
-0.395203	
-0.394165	
-0.394958	
-0.393372	
-0.394165	
-0.393677	
-0.394714	
-0.394104	
-0.393921	
-0.394409	
-0.39563	
-0.394409	
-0.394958	
-0.394226	
-0.394592	
-0.394287	
-0.39386	
-0.394653	
-0.394653	
-0.394836	
-0.395325	
-0.395813	
-0.395081	
-0.396057	
-0.393555	
-0.394897	
-0.393494	
-0.394714	
-0.394958	
-0.395081	
-0.395081	
-0.395813	
-0.394714	
-0.394958	
-0.393066	
-0.393555	
-0.392761	
-0.393066	
-0.392883	
-0.39325	
-0.392944	
-0.394409	
-0.393433	
-0.392456	
-0.390381	
-0.391602	
-0.391968	
-0.391418	
-0.391602	
-0.391479	
-0.391235	
-0.391663	
-0.392029	
-0.391296	
-0.392029	
-0.390625	
-0.391357	
-0.390259	
-0.391602	
-0.391724	
-0.391968	
-0.392273	
-0.391968	
-0.392029	
-0.393188	
-0.392029	
-0.391907	
-0.39093	
-0.392639	
-0.392639	
-0.392212	
-0.392578	
-0.393494	
-0.392944	
-0.393005	
-0.391174	
-0.391846	
-0.392517	
-0.393066	
-0.392822	
-0.393005	
-0.393372	
-0.395264	
-0.394592	
-0.394348	
-0.394165	
-0.394287	
-0.394531	
-0.394043	
-0.395142	
-0.395508	
-0.396179	
-0.395996	
-0.395813	
-0.396729	
-0.396851	
-0.396973	
-0.397461	
-0.398071	
-0.398438	
-0.398193	
-0.398254	
-0.398254	
-0.398926	
-0.39856	
-0.398499	
-0.396301	
-0.396484	
-0.396301	
-0.3974	
-0.3974	
-0.397705	
-0.39801	
-0.39856	
-0.397949	
-0.397888	
-0.396606	
-0.396606	
-0.39624	
-0.395935	
-0.396912	
-0.397095	
-0.396851	
-0.39801	
-0.3974	
-0.397095	
-0.396973	
-0.396301	
-0.39624	
-0.396484	
-0.397339	
-0.396729	
-0.397217	
-0.396851	
-0.397522	
-0.397278	
-0.396423	
-0.395752	
-0.39563	
-0.396301	
-0.396118	
-0.396362	
-0.395935	
-0.395569	
-0.395996	
-0.39563	
-0.395996	
-0.394714	
-0.393982	
-0.393311	
-0.39386	
-0.394348	
-0.394287	
-0.394958	
-0.395508	
-0.394958	
-0.39502	
-0.393555	
-0.392944	
-0.392822	
-0.392639	
-0.392761	
-0.392639	
-0.3927	
-0.39325	
-0.393799	
-0.394104	
-0.393372	
-0.392029	
-0.392029	
-0.392883	
-0.392883	
-0.392639	
-0.392456	
-0.392273	
-0.392822	
-0.393005	
-0.392639	
-0.392273	
-0.392029	
-0.390869	
-0.391357	
-0.391785	
-0.391724	
-0.391541	
-0.391846	
-0.391724	
-0.39209	
-0.391357	
-0.391174	
-0.390259	
-0.390442	
-0.391602	
-0.391968	
-0.391724	
-0.392883	
-0.392761	
-0.39325	
-0.392029	
-0.391418	
-0.391785	
-0.391968	
-0.39209	
-0.392639	
-0.392456	
-0.392883	
-0.393188	
-0.393799	
-0.393555	
-0.393188	
-0.393188	
-0.393188	
-0.393921	
-0.39386	
-0.393921	
-0.394226	
-0.394775	
-0.39447	
-0.395508	
-0.394836	
-0.394104	
-0.392151	
-0.393127	
-0.393982	
-0.39386	
-0.393921	
-0.394348	
-0.393921	
-0.394287	
-0.392273	
-0.392517	
-0.392883	
-0.393799	
-0.394409	
-0.39447	
-0.394836	
-0.395569	
-0.395752	
-0.395813	
-0.395569	
-0.396057	
-0.395996	
-0.396179	
-0.396423	
-0.397034	
-0.3974	
-0.397156	
-0.3974	
-0.397949	
-0.398621	
-0.398865	
-0.397827	
-0.396423	
-0.397156	
-0.398682	
-0.398132	
-0.397522	
-0.398071	
-0.398071	
-0.398499	
-0.396301	
-0.395996	
-0.39563	
-0.396606	
-0.396973	
-0.396729	
-0.396423	
-0.396545	
-0.39679	
-0.396362	
-0.395325	
-0.395386	
-0.394836	
-0.395325	
-0.394409	
-0.394348	
-0.393372	
-0.393494	
-0.39325	
-0.392517	
-0.391663	
-0.392029	
-0.391541	
-0.390869	
-0.390015	
-0.391174	
-0.390625	
-0.39032	
-0.391052	
-0.391602	
-0.392212	
-0.389282	
-0.388916	
-0.388184	
-0.389832	
-0.390015	
-0.390076	
-0.39032	
-0.390686	
-0.39032	
-0.391907	
-0.390503	
-0.390747	
-0.389893	
-0.390564	
-0.390442	
-0.390564	
-0.39032	
-0.390442	
-0.390686	
-0.390869	
-0.390015	
-0.390747	
-0.389465	
-0.389771	
-0.388916	
-0.389771	
-0.390198	
-0.389709	
-0.390686	
-0.391479	
-0.390747	
-0.390625	
-0.389099	
-0.390015	
-0.390381	
-0.390991	
-0.390869	
-0.390747	
-0.391602	
-0.391296	
-0.392456	
-0.389709	
-0.390381	
-0.388428	
-0.390625	
-0.390869	
-0.390747	
-0.390686	
-0.391113	
-0.390747	
-0.391846	
-0.390259	
-0.391296	
-0.389526	
-0.390015	
-0.388794	
-0.390259	
-0.389893	
-0.390259	
-0.389709	
-0.391052	
-0.390015	
-0.389954	
-0.389038	
-0.389526	
-0.389648	
-0.389648	
-0.389771	
-0.389771	
-0.389771	
-0.389648	
-0.390137	
-0.389526	
-0.389465	
-0.388611	
-0.390259	
-0.39093	
-0.390686	
-0.390869	
-0.392151	
-0.391418	
-0.39386	
-0.39032	
-0.392395	
-0.389343	
-0.391479	
-0.390808	
-0.392029	
-0.392395	
-0.393127	
-0.392456	
-0.393433	
-0.392151	
-0.393311	
-0.392395	
-0.39325	
-0.392822	
-0.392883	
-0.3927	
-0.392639	
-0.392456	
-0.392822	
-0.393066	
-0.392273	
-0.391663	
-0.390808	
-0.391968	
-0.392395	
-0.391907	
-0.391785	
-0.392944	
-0.392151	
-0.393066	
-0.390442	
-0.392151	
-0.389954	
-0.391541	
-0.390259	
-0.391663	
-0.391174	
-0.391602	
-0.390869	
-0.392334	
-0.390503	
-0.390564	
-0.388428	
-0.389954	
-0.389709	
-0.389709	
-0.389465	
-0.389343	
-0.389221	
-0.389526	
-0.389404	
-0.388245	
-0.387756	
-0.387695	
-0.387878	
-0.38739	
-0.387085	
-0.386047	
-0.387024	
-0.386353	
-0.387329	
-0.385925	
-0.386047	
-0.384277	
-0.385681	
-0.385315	
-0.385742	
-0.386475	
-0.386292	
-0.386047	
-0.387756	
-0.386108	
-0.387024	
-0.384399	
-0.386169	
-0.38562	
-0.386414	
-0.386353	
-0.386841	
-0.387329	
-0.387695	
-0.387451	
-0.385742	
-0.385437	
-0.385803	
-0.386292	
-0.386475	
-0.386597	
-0.386475	
-0.38739	
-0.387207	
-0.387939	
-0.385925	
-0.386658	
-0.385559	
-0.386597	
-0.386658	
-0.387024	
-0.386963	
-0.387085	
-0.38739	
-0.387817	
-0.387573	
-0.388489	
-0.387512	
-0.388123	
-0.387756	
-0.388611	
-0.388672	
-0.38916	
-0.389465	
-0.390015	
-0.389221	
-0.389587	
-0.388123	
-0.389099	
-0.389465	
-0.390808	
-0.390503	
-0.390442	
-0.391602	
-0.391602	
-0.392212	
-0.390015	
-0.389648	
-0.389404	
-0.389893	
-0.390076	
-0.390503	
-0.390198	
-0.390808	
-0.390747	
-0.391785	
-0.390381	
-0.390442	
-0.389343	
-0.391052	
-0.390808	
-0.390686	
-0.390991	
-0.391479	
-0.391663	
-0.392029	
-0.391907	
-0.391846	
-0.391235	
-0.390625	
-0.391296	
-0.391724	
-0.391846	
-0.391541	
-0.392151	
-0.392395	
-0.391602	
-0.390564	
-0.389893	
-0.390381	
-0.390808	
-0.391052	
-0.391113	
-0.39093	
-0.391113	
-0.391602	
-0.391785	
-0.390442	
-0.390076	
-0.388855	
-0.389771	
-0.388733	
-0.389221	
-0.389099	
-0.388672	
-0.389832	
-0.389099	
-0.389832	
	
