E:\DOCUMENTS AND SETTINGS\JPOTAS\MEUS DOCUMENTOS\UFRJ\RSCI-BM 12 WK SERIES\070719-RSCI-BM-02\RSCI-BM-02-REMG\070719-RSCI-BM-02-REMG-0009.ACQ
0.025000 msec/sample
1 channel
Analog input
Volts
CH1	
2000	
-0.395508	
-0.395813	
-0.395081	
-0.395081	
-0.395447	
-0.39563	
-0.395447	
-0.396057	
-0.395325	
-0.395508	
-0.395081	
-0.395081	
-0.395691	
-0.395996	
-0.395691	
-0.394104	
-0.394653	
-0.395386	
-0.39563	
-0.395813	
-0.395569	
-0.396423	
-0.396118	
-0.396606	
-0.394958	
-0.395447	
-0.396301	
-0.397095	
-0.396912	
-0.396606	
-0.397644	
-0.397278	
-0.397217	
-0.396362	
-0.397034	
-0.397339	
-0.397522	
-0.397766	
-0.398499	
-0.3974	
-0.397766	
-0.396484	
-0.397339	
-0.396912	
-0.397156	
-0.39624	
-0.395813	
-0.395874	
-0.396912	
-0.396606	
-0.397461	
-0.396606	
-0.397888	
-0.397705	
-0.398071	
-0.39679	
-0.397095	
-0.397522	
-0.398071	
-0.397705	
-0.398315	
-0.399231	
-0.398132	
-0.398376	
-0.398071	
-0.398926	
-0.39856	
-0.399048	
-0.398926	
-0.399475	
-0.398621	
-0.398499	
-0.397339	
-0.397888	
-0.397949	
-0.397339	
-0.395325	
-0.395874	
-0.39502	
-0.396179	
-0.39563	
-0.39563	
-0.39563	
-0.396057	
-0.395142	
-0.395081	
-0.394775	
-0.394653	
-0.394714	
-0.395325	
-0.396667	
-0.39624	
-0.397278	
-0.396057	
-0.3974	
-0.398499	
-0.397888	
-0.398193	
-0.397095	
-0.39856	
-0.399109	
-0.398804	
-0.398865	
-0.398254	
-0.398987	
-0.398132	
-0.398438	
-0.396484	
-0.397339	
-0.396484	
-0.397339	
-0.397522	
-0.397888	
-0.398132	
-0.397644	
-0.397522	
-0.397034	
-0.397034	
-0.39679	
-0.397522	
-0.398071	
-0.398499	
-0.397888	
-0.398071	
-0.397095	
-0.398071	
-0.398743	
-0.398071	
-0.398193	
-0.397949	
-0.398315	
-0.398682	
-0.398193	
-0.398071	
-0.398254	
-0.399292	
-0.398438	
-0.398376	
-0.396301	
-0.396973	
-0.395874	
-0.397339	
-0.396545	
-0.396423	
-0.397339	
-0.396912	
-0.396729	
-0.39679	
-0.396179	
-0.396606	
-0.395813	
-0.3974	
-0.398071	
-0.397217	
-0.396973	
-0.396423	
-0.398132	
-0.398438	
-0.398254	
-0.397827	
-0.398499	
-0.398926	
-0.399475	
-0.39917	
-0.399597	
-0.398865	
-0.399902	
-0.399292	
-0.399414	
-0.398499	
-0.398682	
-0.39801	
-0.398682	
-0.398804	
-0.399109	
-0.398804	
-0.398743	
-0.398071	
-0.39917	
-0.397705	
-0.397339	
-0.396729	
-0.397766	
-0.39801	
-0.397461	
-0.397644	
-0.397095	
-0.397766	
-0.396912	
-0.396851	
-0.396484	
-0.396545	
-0.397034	
-0.39801	
-0.397095	
-0.397522	
-0.3974	
-0.396057	
-0.394409	
-0.394836	
-0.39447	
-0.39447	
-0.393494	
-0.397278	
-0.398315	
-0.398682	
-0.399048	
-0.398499	
-0.398682	
-0.399719	
-0.398071	
-0.397949	
-0.397156	
-0.397949	
-0.398376	
-0.3974	
-0.397461	
-0.396179	
-0.397644	
-0.397095	
-0.396484	
-0.395203	
-0.395813	
-0.396118	
-0.395752	
-0.395813	
-0.395691	
-0.396118	
-0.396301	
-0.396362	
-0.39624	
-0.39624	
-0.396301	
-0.395813	
-0.396912	
-0.397888	
-0.397522	
-0.397705	
-0.396667	
-0.398682	
-0.399109	
-0.398376	
-0.398132	
-0.397156	
-0.398499	
-0.398987	
-0.398438	
-0.397888	
-0.397522	
-0.397644	
-0.396118	
-0.394348	
-0.393127	
-0.392578	
-0.392334	
-0.391663	
-0.391113	
-0.389832	
-0.389465	
-0.388123	
-0.387817	
-0.387817	
-0.386597	
-0.386658	
-0.385925	
-0.385864	
-0.386536	
-0.385376	
-0.385315	
-0.383484	
-0.384155	
-0.384705	
-0.383484	
-0.382385	
-0.381653	
-0.382324	
-0.382568	
-0.381409	
-0.381836	
-0.382263	
-0.383118	
-0.382813	
-0.382935	
-0.382813	
-0.383972	
-0.383606	
-0.38562	
-0.385925	
-0.386414	
-0.387695	
-0.387939	
-0.388855	
-0.389771	
-0.391479	
-0.392639	
-0.393188	
-0.395874	
-0.3974	
-0.398376	
-0.400146	
-0.400696	
-0.401733	
-0.403259	
-0.404602	
-0.405762	
-0.406189	
-0.408691	
-0.411682	
-0.413147	
-0.416565	
-0.418884	
-0.422974	
-0.427063	
-0.430237	
-0.434631	
-0.438049	
-0.442261	
-0.446594	
-0.449219	
-0.452209	
-0.454041	
-0.457581	
-0.460083	
-0.462646	
-0.464172	
-0.466736	
-0.469299	
-0.471802	
-0.472778	
-0.474609	
-0.47522	
-0.477844	
-0.47998	
-0.481506	
-0.483887	
-0.485229	
-0.486816	
-0.488464	
-0.488953	
-0.489563	
-0.489685	
-0.491089	
-0.491455	
-0.491455	
-0.49054	
-0.490662	
-0.49115	
-0.490845	
-0.490295	
-0.489624	
-0.48938	
-0.488831	
-0.488464	
-0.486694	
-0.485352	
-0.483826	
-0.482666	
-0.482666	
-0.481018	
-0.47876	
-0.477722	
-0.475586	
-0.473694	
-0.471069	
-0.468628	
-0.466187	
-0.463318	
-0.461426	
-0.460144	
-0.456787	
-0.453674	
-0.450073	
-0.44873	
-0.446167	
-0.44397	
-0.442444	
-0.441467	
-0.440002	
-0.439514	
-0.437317	
-0.43634	
-0.435425	
-0.435669	
-0.43457	
-0.433228	
-0.431458	
-0.430664	
-0.429382	
-0.428284	
-0.426514	
-0.425232	
-0.42395	
-0.422058	
-0.419983	
-0.41687	
-0.414124	
-0.411072	
-0.407776	
-0.405823	
-0.403137	
-0.398987	
-0.395874	
-0.391418	
-0.388916	
-0.385498	
-0.381775	
-0.378418	
-0.375671	
-0.373291	
-0.370544	
-0.367065	
-0.364685	
-0.361877	
-0.360107	
-0.3573	
-0.353882	
-0.351135	
-0.348877	
-0.347778	
-0.346191	
-0.343994	
-0.342651	
-0.342041	
-0.341187	
-0.340515	
-0.337402	
-0.33783	
-0.337646	
-0.338562	
-0.339355	
-0.340088	
-0.341003	
-0.342529	
-0.343201	
-0.344849	
-0.344727	
-0.346008	
-0.347107	
-0.348938	
-0.350708	
-0.351746	
-0.3526	
-0.353699	
-0.354736	
-0.356262	
-0.356628	
-0.357788	
-0.35791	
-0.359436	
-0.361511	
-0.362732	
-0.363647	
-0.36499	
-0.366211	
-0.367065	
-0.366882	
-0.367493	
-0.367737	
-0.368469	
-0.369995	
-0.371033	
-0.371765	
-0.372803	
-0.373413	
-0.37384	
-0.373657	
-0.373474	
-0.372742	
-0.37323	
-0.374878	
-0.375305	
-0.375671	
-0.376587	
-0.376648	
-0.377563	
-0.376709	
-0.376953	
-0.376709	
-0.376404	
-0.377319	
-0.377075	
-0.377014	
-0.378174	
-0.377441	
-0.377625	
-0.376648	
-0.376709	
-0.376404	
-0.375244	
-0.376282	
-0.375366	
-0.375427	
-0.376038	
-0.375488	
-0.375488	
-0.374573	
-0.374329	
-0.374023	
-0.373169	
-0.37384	
-0.373718	
-0.373413	
-0.373779	
-0.373352	
-0.373596	
-0.373779	
-0.373169	
-0.373169	
-0.373108	
-0.373901	
-0.373901	
-0.374634	
-0.375061	
-0.375793	
-0.375916	
-0.375732	
-0.376038	
-0.37677	
-0.377258	
-0.377563	
-0.37793	
-0.378479	
-0.378784	
-0.379028	
-0.379639	
-0.379211	
-0.378967	
-0.378845	
-0.378967	
-0.379761	
-0.379211	
-0.379028	
-0.379211	
-0.379517	
-0.379578	
-0.378906	
-0.378906	
-0.378784	
-0.379578	
-0.379456	
-0.379761	
-0.38031	
-0.38031	
-0.381775	
-0.382019	
-0.382141	
-0.381348	
-0.380676	
-0.381226	
-0.381653	
-0.382629	
-0.382813	
-0.382629	
-0.383728	
-0.384277	
-0.384583	
-0.383423	
-0.383057	
-0.383484	
-0.384644	
-0.384399	
-0.384705	
-0.384338	
-0.385193	
-0.38562	
-0.384888	
-0.384216	
-0.383606	
-0.384277	
-0.384094	
-0.383789	
-0.383728	
-0.383667	
-0.383789	
-0.384644	
-0.383789	
-0.38324	
-0.38324	
-0.383301	
-0.383728	
-0.382874	
-0.384888	
-0.385193	
-0.38562	
-0.386536	
-0.38678	
-0.386963	
-0.387634	
-0.387878	
-0.388123	
-0.389343	
-0.388733	
-0.389038	
-0.388672	
-0.390381	
-0.389709	
-0.39032	
-0.388062	
-0.385315	
-0.384521	
-0.385559	
-0.384766	
-0.384521	
-0.386169	
-0.388611	
-0.388794	
-0.388123	
-0.387085	
-0.387634	
-0.387451	
-0.387756	
-0.386658	
-0.387878	
-0.387512	
-0.387573	
-0.387817	
-0.387817	
-0.387512	
-0.388123	
-0.387634	
-0.387695	
-0.387634	
-0.387817	
-0.387695	
-0.387573	
-0.387878	
-0.387939	
-0.388123	
-0.386841	
-0.387695	
-0.387451	
-0.388245	
-0.388062	
-0.387695	
-0.38678	
-0.388733	
-0.38916	
-0.389587	
-0.388611	
-0.388306	
-0.387939	
-0.390259	
-0.38916	
-0.389771	
-0.389221	
-0.390991	
-0.391357	
-0.391541	
-0.390503	
-0.391174	
-0.390686	
-0.392334	
-0.390991	
-0.391541	
-0.390198	
-0.390991	
-0.390381	
-0.389709	
-0.388733	
-0.389099	
-0.387573	
-0.387207	
-0.384888	
-0.385437	
-0.384888	
-0.384277	
-0.38324	
-0.382813	
-0.380798	
-0.380554	
-0.378967	
-0.379395	
-0.378784	
-0.378357	
-0.377258	
-0.376709	
-0.377197	
-0.376099	
-0.376526	
-0.375427	
-0.37616	
-0.375488	
-0.377869	
-0.377686	
-0.378418	
-0.378113	
-0.379944	
-0.380188	
-0.381165	
-0.381348	
-0.383484	
-0.383606	
-0.385864	
-0.38678	
-0.389099	
-0.389832	
-0.39209	
-0.393738	
-0.396057	
-0.396423	
-0.39856	
-0.398621	
-0.401794	
-0.403259	
-0.405273	
-0.407043	
-0.409973	
-0.41217	
-0.41571	
-0.416626	
-0.42157	
-0.423523	
-0.428833	
-0.43103	
-0.435913	
-0.439209	
-0.444763	
-0.447266	
-0.451904	
-0.453247	
-0.457886	
-0.459167	
-0.463867	
-0.465027	
-0.468933	
-0.471619	
-0.474976	
-0.476746	
-0.480286	
-0.48053	
-0.483093	
-0.482056	
-0.486938	
-0.487366	
-0.489075	
-0.49054	
-0.492126	
-0.491943	
-0.493591	
-0.491516	
-0.491394	
-0.489868	
-0.491394	
-0.490295	
-0.49054	
-0.490417	
-0.489868	
-0.488831	
-0.48999	
-0.488342	
-0.487488	
-0.485535	
-0.486511	
-0.485046	
-0.484131	
-0.483459	
-0.482239	
-0.481506	
-0.481079	
-0.477661	
-0.475647	
-0.473389	
-0.471985	
-0.469177	
-0.46698	
-0.464966	
-0.462891	
-0.461365	
-0.459412	
-0.456299	
-0.453308	
-0.452637	
-0.450562	
-0.449036	
-0.446411	
-0.446228	
-0.444458	
-0.443909	
-0.44281	
-0.440857	
-0.439392	
-0.43927	
-0.437561	
-0.437012	
-0.433716	
-0.4328	
-0.429932	
-0.429016	
-0.426697	
-0.4245	
-0.421021	
-0.418396	
-0.414307	
-0.413147	
-0.408875	
-0.405762	
-0.401855	
-0.398804	
-0.39502	
-0.392639	
-0.386841	
-0.382874	
-0.379028	
-0.376831	
-0.372925	
-0.368835	
-0.365967	
-0.362732	
-0.360657	
-0.357605	
-0.354248	
-0.351501	
-0.350342	
-0.347961	
-0.346558	
-0.344299	
-0.343933	
-0.343079	
-0.343201	
-0.343323	
-0.34259	
-0.342529	
-0.343201	
-0.343872	
-0.344604	
-0.344849	
-0.346191	
-0.347107	
-0.349182	
-0.349976	
-0.350769	
-0.351501	
-0.353149	
-0.353882	
-0.355713	
-0.355713	
-0.3573	
-0.358215	
-0.359497	
-0.360352	
-0.361206	
-0.361877	
-0.363037	
-0.363708	
-0.365295	
-0.364807	
-0.365723	
-0.366089	
-0.367859	
-0.36908	
-0.369568	
-0.36969	
-0.370667	
-0.371521	
-0.372559	
-0.37207	
-0.373047	
-0.374329	
-0.375549	
-0.376465	
-0.375916	
-0.376343	
-0.377136	
-0.377441	
-0.377991	
-0.377197	
-0.378418	
-0.378845	
-0.379578	
-0.380432	
-0.380005	
-0.380615	
-0.38092	
-0.381287	
-0.381714	
-0.380615	
-0.381165	
-0.381409	
-0.381836	
-0.382385	
-0.381104	
-0.380371	
-0.380859	
-0.380432	
-0.380554	
-0.380127	
-0.380371	
-0.380188	
-0.381287	
-0.381287	
-0.380432	
-0.380005	
-0.380859	
-0.380798	
-0.381042	
-0.380554	
-0.381531	
-0.381775	
-0.382935	
-0.383362	
-0.382813	
-0.382751	
-0.384094	
-0.384155	
-0.384644	
-0.383972	
-0.384583	
-0.384827	
-0.385925	
-0.385742	
-0.385498	
-0.385498	
-0.386108	
-0.386169	
-0.385864	
-0.385132	
-0.384949	
-0.384705	
-0.384583	
-0.384583	
-0.383545	
-0.383423	
-0.382996	
-0.383057	
-0.383179	
-0.382507	
-0.382507	
-0.382996	
-0.383606	
-0.384033	
-0.385193	
-0.384644	
-0.385254	
-0.386047	
-0.387268	
-0.386475	
-0.386475	
-0.385986	
-0.38739	
-0.387878	
-0.388855	
-0.387756	
-0.388184	
-0.387451	
-0.389465	
-0.388855	
-0.387939	
-0.388672	
-0.389221	
-0.389221	
-0.391052	
-0.389099	
-0.388977	
-0.388	
-0.390198	
-0.390137	
-0.388977	
-0.389771	
-0.391113	
-0.391418	
-0.392456	
-0.390869	
-0.391113	
-0.39032	
-0.392151	
-0.391602	
-0.390442	
-0.391968	
-0.392334	
-0.392395	
-0.39386	
-0.392151	
-0.392029	
-0.391235	
-0.392883	
-0.39209	
-0.391785	
-0.392517	
-0.392639	
-0.392883	
-0.393127	
-0.392029	
-0.391113	
-0.390442	
-0.391663	
-0.390869	
-0.390442	
-0.390564	
-0.391174	
-0.391724	
-0.392273	
-0.391113	
-0.390076	
-0.39032	
-0.391296	
-0.391479	
-0.390747	
-0.391357	
-0.389954	
-0.391724	
-0.392395	
-0.391602	
-0.391174	
-0.391541	
-0.3927	
-0.392578	
-0.391724	
-0.39093	
-0.391113	
-0.391968	
-0.392334	
-0.392334	
-0.391907	
-0.391296	
-0.392029	
-0.391724	
-0.391479	
-0.390564	
-0.391113	
-0.391357	
-0.392273	
-0.392273	
-0.391052	
-0.390076	
-0.390381	
-0.390808	
-0.390869	
-0.390015	
-0.390442	
-0.390076	
-0.391296	
-0.391785	
-0.390259	
-0.389526	
-0.388489	
-0.390259	
-0.390686	
-0.389832	
-0.389893	
-0.389526	
-0.390625	
-0.391479	
-0.390442	
-0.390869	
-0.390137	
-0.390686	
-0.391113	
-0.390747	
-0.390625	
-0.390564	
-0.390564	
-0.391235	
-0.390198	
-0.390198	
-0.389526	
-0.390381	
-0.390137	
-0.389893	
-0.389099	
-0.389526	
-0.389465	
-0.389771	
-0.388855	
-0.388672	
-0.388062	
-0.389221	
-0.38855	
-0.388489	
-0.388123	
-0.388672	
-0.389038	
-0.390442	
-0.389954	
-0.390381	
-0.389404	
-0.391418	
-0.391418	
-0.39209	
-0.390991	
-0.391724	
-0.392029	
-0.393677	
-0.392944	
-0.392639	
-0.391602	
-0.393555	
-0.39325	
-0.393799	
-0.392273	
-0.393005	
-0.391663	
-0.393066	
-0.392639	
-0.391174	
-0.389343	
-0.389954	
-0.390198	
-0.390564	
-0.388672	
-0.389526	
-0.388733	
-0.390869	
-0.390869	
-0.390381	
-0.389709	
-0.390137	
-0.391296	
-0.391663	
-0.390137	
-0.390747	
-0.390747	
-0.391663	
-0.392029	
-0.390991	
-0.390442	
-0.390869	
-0.391235	
-0.391113	
-0.390625	
-0.390381	
-0.390564	
-0.390869	
-0.390869	
-0.390198	
-0.389709	
-0.389709	
-0.390259	
-0.390076	
-0.389893	
-0.389648	
-0.389404	
-0.389832	
-0.389771	
-0.390259	
-0.38916	
-0.389832	
-0.389038	
-0.390381	
-0.390747	
-0.390503	
-0.390381	
-0.390076	
-0.390747	
-0.391785	
-0.391113	
-0.391052	
-0.390503	
-0.391113	
-0.392151	
-0.390442	
-0.390869	
-0.390076	
-0.391052	
-0.391907	
-0.390381	
-0.389893	
-0.390137	
-0.389465	
-0.389648	
-0.389099	
-0.388855	
-0.388855	
-0.389893	
-0.389343	
-0.389221	
-0.387756	
-0.388916	
-0.388062	
-0.388855	
-0.388428	
-0.388611	
-0.388794	
-0.389221	
-0.389282	
-0.389465	
-0.388062	
-0.389282	
-0.388428	
-0.389099	
-0.389709	
-0.389282	
-0.389465	
-0.389648	
-0.39032	
-0.390259	
-0.389587	
-0.390137	
-0.390564	
-0.390015	
-0.390381	
-0.388733	
-0.390076	
-0.389832	
-0.390015	
-0.390625	
-0.389893	
-0.389771	
-0.389343	
-0.389587	
-0.389832	
-0.389465	
-0.389343	
-0.388977	
-0.390076	
-0.390198	
-0.389709	
-0.38855	
-0.387939	
-0.388062	
-0.389221	
-0.389343	
-0.388916	
-0.38916	
-0.389404	
-0.390503	
-0.390686	
-0.389404	
-0.389832	
-0.390198	
-0.390747	
-0.391663	
-0.391174	
-0.391418	
-0.391174	
-0.39209	
-0.391907	
-0.391785	
-0.391541	
-0.392334	
-0.391663	
-0.391418	
-0.389954	
-0.391235	
-0.391113	
-0.390991	
-0.391113	
-0.390686	
-0.390381	
-0.39093	
-0.390076	
-0.390686	
-0.390015	
-0.390381	
-0.390015	
-0.390564	
-0.391113	
-0.39093	
-0.389893	
-0.39032	
-0.391113	
-0.392273	
-0.392578	
-0.393188	
-0.393127	
-0.394775	
-0.39447	
-0.39447	
-0.39386	
-0.394165	
-0.395142	
-0.39447	
-0.394592	
-0.392761	
-0.393494	
-0.392334	
-0.393127	
-0.3927	
-0.391846	
-0.391663	
-0.392029	
-0.391541	
-0.391907	
-0.390625	
-0.390625	
-0.39032	
-0.391235	
-0.390686	
-0.390991	
-0.389893	
-0.390137	
-0.389587	
-0.389771	
-0.389954	
-0.390137	
-0.389648	
-0.390808	
-0.390503	
-0.390564	
-0.389221	
-0.389099	
-0.390076	
-0.389526	
-0.389709	
-0.388428	
-0.389221	
-0.389709	
-0.389893	
-0.390015	
-0.389404	
-0.389954	
-0.389771	
-0.389648	
-0.390015	
-0.389221	
-0.389648	
-0.390015	
-0.389893	
-0.390442	
-0.390625	
-0.390442	
-0.389832	
-0.390564	
-0.391479	
-0.390503	
-0.391296	
-0.391052	
-0.3927	
-0.392822	
-0.39325	
-0.391541	
-0.392395	
-0.392578	
-0.393921	
-0.392883	
-0.392151	
-0.392395	
-0.39386	
-0.39325	
-0.392883	
-0.392029	
-0.392944	
-0.393311	
-0.392822	
-0.392578	
-0.391785	
-0.391846	
-0.392517	
-0.391846	
-0.392395	
-0.391968	
-0.39209	
-0.391724	
-0.391846	
-0.391602	
-0.391235	
-0.391357	
-0.392456	
-0.392334	
-0.392944	
-0.392639	
-0.391907	
-0.391724	
-0.391235	
-0.392822	
-0.392029	
-0.39209	
-0.392395	
-0.392578	
-0.393433	
-0.393738	
-0.393494	
-0.393433	
-0.394409	
-0.394653	
-0.394043	
-0.39325	
-0.393494	
-0.394836	
-0.394775	
-0.394958	
-0.394348	
-0.394348	
-0.394714	
-0.394653	
-0.394409	
-0.394165	
-0.393799	
-0.394897	
-0.393921	
-0.39447	
-0.392883	
-0.393494	
-0.393066	
-0.393372	
-0.393677	
-0.393799	
-0.393738	
-0.39502	
-0.393982	
-0.394226	
-0.39447	
-0.394592	
-0.39447	
-0.394287	
-0.395264	
-0.394653	
-0.39502	
-0.394714	
-0.395264	
-0.395264	
-0.395874	
-0.395935	
-0.395203	
-0.39563	
-0.395264	
-0.393982	
-0.393005	
-0.393433	
-0.393188	
-0.392761	
-0.39386	
-0.392456	
-0.392456	
-0.391785	
-0.392029	
-0.391724	
-0.391357	
-0.391602	
-0.392029	
-0.391296	
-0.391418	
-0.391296	
-0.391785	
-0.391663	
-0.391785	
-0.393738	
-0.393616	
-0.393677	
-0.39447	
-0.394653	
-0.395325	
-0.395508	
-0.395142	
-0.395325	
-0.396057	
-0.396423	
-0.395264	
-0.393799	
-0.39386	
-0.394287	
-0.394409	
-0.394958	
-0.394165	
-0.393921	
-0.39386	
-0.394592	
-0.394104	
-0.394043	
-0.39447	
-0.394775	
-0.394287	
-0.395325	
-0.394226	
-0.394531	
-0.394043	
-0.394775	
-0.394775	
-0.394958	
-0.394775	
-0.39624	
-0.395142	
-0.395752	
-0.394836	
-0.395508	
-0.395081	
-0.396179	
-0.395874	
-0.395203	
-0.394104	
-0.394653	
-0.394592	
-0.394165	
-0.395569	
-0.394165	
-0.393494	
-0.393066	
-0.394531	
-0.393921	
-0.39325	
-0.392761	
-0.393616	
-0.394043	
-0.39502	
-0.394043	
-0.394653	
-0.39325	
-0.394897	
-0.394165	
-0.39447	
-0.394897	
-0.39563	
-0.395142	
-0.39624	
-0.394836	
-0.396362	
-0.395813	
-0.396484	
-0.396362	
-0.396301	
-0.395996	
-0.39679	
-0.396606	
-0.39679	
-0.396118	
-0.39624	
-0.396057	
-0.397278	
-0.396362	
-0.395752	
-0.394897	
-0.395996	
-0.395752	
-0.395752	
-0.396423	
-0.395142	
-0.395325	
-0.394531	
-0.396179	
-0.39502	
-0.394531	
-0.393677	
-0.395691	
-0.394775	
-0.395996	
-0.393616	
-0.394897	
-0.393799	
-0.39563	
-0.39502	
-0.394714	
-0.394531	
-0.395752	
-0.39563	
-0.396057	
-0.395264	
-0.395813	
-0.395325	
-0.397156	
-0.39624	
-0.395996	
-0.39563	
-0.39624	
-0.396423	
-0.396484	
-0.396912	
-0.395935	
-0.39563	
-0.395569	
-0.395508	
-0.395142	
-0.394836	
-0.394958	
-0.395752	
-0.394714	
-0.395142	
-0.39325	
-0.393738	
-0.393372	
-0.394409	
-0.39386	
-0.393433	
-0.393677	
-0.394653	
-0.394592	
-0.395447	
-0.394409	
-0.394714	
-0.394226	
-0.396301	
-0.39502	
-0.395447	
-0.393677	
-0.395752	
-0.395874	
-0.39679	
-0.395386	
-0.395569	
-0.395203	
-0.396606	
-0.395813	
-0.395386	
-0.394165	
-0.39447	
-0.394653	
-0.393982	
-0.392822	
-0.391113	
-0.392334	
-0.392212	
-0.392334	
-0.391663	
-0.391357	
-0.390869	
-0.392029	
-0.391541	
-0.392761	
-0.392029	
-0.392395	
-0.392151	
-0.395081	
-0.393921	
-0.39386	
-0.392944	
-0.394958	
-0.394958	
-0.395813	
-0.39502	
-0.394531	
-0.39325	
-0.395996	
-0.395203	
-0.395386	
-0.394836	
-0.39563	
-0.396545	
-0.397156	
-0.395813	
-0.39563	
-0.394836	
-0.395935	
-0.396545	
-0.395996	
-0.395569	
-0.395813	
-0.397217	
-0.397217	
-0.396729	
-0.395447	
-0.396057	
-0.396729	
-0.397766	
-0.396423	
-0.396484	
-0.39563	
-0.396667	
-0.396973	
-0.39801	
-0.396667	
-0.396912	
-0.395691	
-0.398193	
-0.396973	
-0.396484	
-0.395447	
-0.395996	
-0.395874	
-0.396851	
-0.395264	
-0.395447	
-0.393616	
-0.39502	
-0.393982	
-0.393555	
-0.39325	
-0.393494	
-0.39447	
-0.394775	
-0.393677	
-0.392944	
-0.393433	
-0.39386	
-0.394531	
-0.393311	
-0.393188	
-0.393066	
-0.394226	
-0.394592	
-0.393738	
-0.393738	
-0.393799	
-0.394409	
-0.396057	
-0.394714	
-0.394226	
-0.392944	
-0.394348	
-0.39563	
-0.39502	
-0.394226	
-0.394043	
-0.394409	
-0.394836	
-0.394897	
-0.394409	
-0.394226	
-0.393799	
-0.395325	
-0.395569	
-0.394104	
-0.393311	
-0.392517	
-0.394043	
-0.394287	
-0.393494	
-0.392883	
-0.392456	
-0.393555	
-0.394653	
-0.392517	
-0.392273	
-0.390991	
-0.3927	
-0.393433	
-0.392639	
-0.392456	
-0.391052	
-0.3927	
-0.393494	
-0.39325	
-0.3927	
-0.392212	
-0.393127	
-0.393555	
-0.39386	
-0.393433	
-0.392761	
-0.392395	
-0.394043	
-0.393372	
-0.3927	
-0.39093	
-0.392273	
-0.392822	
-0.393127	
-0.392029	
-0.391785	
-0.391296	
-0.392212	
-0.392151	
-0.391296	
-0.390991	
-0.389709	
-0.39093	
-0.391418	
-0.390503	
-0.390503	
-0.390442	
-0.391663	
-0.3927	
-0.39209	
-0.392151	
-0.391052	
-0.393311	
-0.394165	
-0.393494	
-0.393616	
-0.392761	
-0.394348	
-0.396118	
-0.394409	
-0.394714	
-0.393555	
-0.394958	
-0.395508	
-0.395508	
-0.394836	
-0.394043	
-0.392761	
-0.394348	
-0.393188	
-0.392029	
-0.390259	
-0.391052	
-0.391479	
-0.391296	
-0.390503	
-0.389954	
-0.389893	
-0.391052	
-0.391968	
-0.390442	
-0.39032	
-0.390015	
-0.391541	
-0.391235	
-0.390869	
-0.391357	
-0.390991	
-0.391296	
-0.392395	
-0.391174	
-0.390503	
-0.389282	
-0.39093	
-0.391846	
-0.391296	
-0.390442	
-0.388916	
-0.389832	
-0.391846	
-0.39093	
-0.389893	
-0.389526	
-0.389587	
-0.390808	
-0.390869	
-0.390076	
-0.389404	
-0.389526	
-0.391235	
-0.390991	
-0.39032	
-0.389771	
-0.390259	
-0.391235	
-0.391174	
-0.391113	
-0.390808	
-0.391357	
-0.392395	
-0.392517	
-0.391174	
-0.390991	
-0.390625	
-0.391846	
-0.391846	
-0.392395	
-0.391357	
-0.391479	
-0.390259	
-0.39209	
-0.391357	
-0.390442	
-0.389648	
-0.389771	
-0.390564	
-0.390503	
-0.390076	
-0.389832	
-0.389648	
-0.389832	
-0.390686	
-0.389404	
-0.388855	
-0.388062	
-0.389954	
-0.389771	
-0.389221	
-0.388733	
-0.389771	
-0.390747	
-0.389648	
-0.389709	
-0.38855	
-0.390015	
-0.390198	
-0.390869	
-0.391235	
-0.390503	
-0.390686	
-0.390259	
-0.391174	
-0.390991	
-0.390564	
-0.390564	
-0.391235	
-0.391296	
-0.391296	
-0.391296	
-0.390869	
-0.390686	
-0.391785	
-0.392273	
-0.390686	
-0.389465	
-0.389587	
-0.391174	
-0.390564	
-0.390625	
-0.388977	
-0.389832	
-0.390625	
-0.390015	
-0.389709	
-0.389282	
-0.389954	
-0.390503	
-0.390076	
-0.390198	
-0.389587	
-0.390198	
-0.391785	
-0.391052	
-0.390747	
-0.389771	
-0.391785	
-0.392029	
-0.391846	
-0.392944	
-0.391907	
-0.392456	
-0.392639	
-0.3927	
-0.393066	
-0.391663	
-0.392151	
-0.391113	
-0.391907	
-0.392029	
-0.391113	
-0.391174	
-0.391663	
-0.391785	
-0.39093	
-0.390503	
-0.389587	
-0.390503	
-0.391907	
-0.390686	
-0.390381	
-0.389221	
-0.390808	
-0.391113	
-0.391479	
-0.390991	
-0.391663	
-0.391846	
-0.393188	
-0.393066	
-0.394043	
-0.393494	
-0.394226	
-0.394531	
-0.394409	
-0.395752	
-0.394165	
-0.395203	
-0.394043	
-0.395264	
-0.395569	
-0.393738	
-0.393616	
-0.393677	
-0.393799	
-0.393311	
-0.391602	
-0.391235	
-0.391296	
-0.392395	
-0.392029	
-0.391602	
-0.391235	
-0.391296	
-0.391479	
-0.391479	
-0.390991	
-0.390686	
-0.390381	
-0.391724	
-0.390869	
-0.390686	
-0.390076	
-0.390747	
-0.390991	
-0.391174	
-0.390564	
-0.390381	
-0.390076	
-0.391235	
-0.390564	
-0.390991	
-0.389954	
-0.390137	
-0.391174	
-0.390991	
-0.390991	
-0.389282	
-0.38916	
-0.389465	
-0.390076	
-0.391174	
-0.390564	
-0.390625	
-0.389526	
-0.391113	
-0.391113	
-0.39093	
-0.390808	
-0.391174	
-0.392639	
-0.392334	
-0.391968	
-0.391296	
-0.392212	
-0.392944	
-0.393311	
-0.393066	
-0.393372	
-0.393494	
-0.394653	
-0.394348	
-0.393799	
-0.393799	
-0.393372	
-0.39386	
-0.394287	
-0.394104	
-0.392822	
-0.393311	
-0.392822	
	
