E:\DOCUMENTS AND SETTINGS\JPOTAS\MEUS DOCUMENTOS\UFRJ\RSCI-BM 12 WK SERIES\070719-RSCI-BM-02\RSCI-BM-02-REMG\070719-RSCI-BM-02-REMG-0013.ACQ
0.025000 msec/sample
1 channel
Analog input
Volts
CH1	
2000	
-0.396667	
-0.395752	
-0.397339	
-0.396973	
-0.396851	
-0.395142	
-0.395996	
-0.396667	
-0.397156	
-0.396179	
-0.395996	
-0.395752	
-0.396362	
-0.397156	
-0.395691	
-0.395203	
-0.394653	
-0.39563	
-0.395569	
-0.395264	
-0.395691	
-0.395447	
-0.395996	
-0.396912	
-0.39624	
-0.395752	
-0.395142	
-0.396667	
-0.39624	
-0.39679	
-0.394775	
-0.396057	
-0.395508	
-0.397278	
-0.397217	
-0.396545	
-0.395508	
-0.396729	
-0.397278	
-0.397827	
-0.397156	
-0.397644	
-0.397766	
-0.398621	
-0.399353	
-0.39856	
-0.398132	
-0.398071	
-0.398987	
-0.398254	
-0.398499	
-0.398376	
-0.398071	
-0.397522	
-0.398987	
-0.398193	
-0.3974	
-0.396667	
-0.397766	
-0.397278	
-0.397949	
-0.396729	
-0.398376	
-0.398376	
-0.400146	
-0.399963	
-0.399414	
-0.397827	
-0.39978	
-0.399658	
-0.400208	
-0.39978	
-0.400024	
-0.400391	
-0.401062	
-0.401917	
-0.401245	
-0.400879	
-0.400635	
-0.401794	
-0.401611	
-0.402283	
-0.402161	
-0.4021	
-0.401184	
-0.402893	
-0.403137	
-0.401794	
-0.401489	
-0.401489	
-0.40155	
-0.401978	
-0.400085	
-0.40155	
-0.40155	
-0.402405	
-0.402039	
-0.401245	
-0.40033	
-0.400818	
-0.401184	
-0.400757	
-0.400818	
-0.400269	
-0.399841	
-0.399353	
-0.400391	
-0.399536	
-0.399353	
-0.39917	
-0.399597	
-0.399353	
-0.399597	
-0.39917	
-0.399231	
-0.399109	
-0.399536	
-0.399902	
-0.398865	
-0.398254	
-0.398621	
-0.397888	
-0.398193	
-0.397034	
-0.396729	
-0.39679	
-0.397827	
-0.397278	
-0.396484	
-0.395325	
-0.39563	
-0.397156	
-0.396851	
-0.396912	
-0.395752	
-0.396362	
-0.396362	
-0.396912	
-0.396362	
-0.395447	
-0.395569	
-0.395508	
-0.395508	
-0.395813	
-0.394653	
-0.395874	
-0.395813	
-0.396118	
-0.396912	
-0.396118	
-0.396301	
-0.396606	
-0.396606	
-0.396729	
-0.397095	
-0.396545	
-0.396545	
-0.396118	
-0.3974	
-0.397217	
-0.395569	
-0.395569	
-0.397095	
-0.396912	
-0.396912	
-0.395813	
-0.396851	
-0.397522	
-0.397888	
-0.39801	
-0.396851	
-0.397034	
-0.3974	
-0.398193	
-0.39856	
-0.398438	
-0.39801	
-0.398376	
-0.398132	
-0.398621	
-0.398254	
-0.398438	
-0.398438	
-0.398132	
-0.397888	
-0.398315	
-0.398376	
-0.398438	
-0.398193	
-0.398132	
-0.397217	
-0.396057	
-0.39679	
-0.397095	
-0.397217	
-0.397827	
-0.397461	
-0.396912	
-0.398071	
-0.399658	
-0.400085	
-0.399109	
-0.398804	
-0.399475	
-0.399292	
-0.399841	
-0.400574	
-0.400269	
-0.400513	
-0.399658	
-0.401001	
-0.400818	
-0.401123	
-0.401489	
-0.401855	
-0.40155	
-0.401917	
-0.401794	
-0.401428	
-0.402039	
-0.401672	
-0.401611	
-0.399902	
-0.400574	
-0.401001	
-0.401428	
-0.401367	
-0.40033	
-0.400696	
-0.401306	
-0.401001	
-0.401001	
-0.400208	
-0.399902	
-0.399841	
-0.400391	
-0.400024	
-0.400269	
-0.399902	
-0.399963	
-0.399902	
-0.399902	
-0.399353	
-0.398254	
-0.398865	
-0.399597	
-0.398254	
-0.397888	
-0.396301	
-0.39679	
-0.396545	
-0.396606	
-0.395752	
-0.394043	
-0.392639	
-0.392395	
-0.3927	
-0.392212	
-0.391846	
-0.390503	
-0.389526	
-0.387878	
-0.387512	
-0.385986	
-0.385071	
-0.384521	
-0.384155	
-0.383362	
-0.382507	
-0.381714	
-0.381531	
-0.381226	
-0.380371	
-0.379517	
-0.378174	
-0.378357	
-0.379333	
-0.378723	
-0.378906	
-0.378235	
-0.379883	
-0.381348	
-0.381104	
-0.381775	
-0.381226	
-0.382385	
-0.383301	
-0.383606	
-0.384644	
-0.38501	
-0.386475	
-0.387512	
-0.388367	
-0.390015	
-0.390076	
-0.390503	
-0.392639	
-0.393738	
-0.394958	
-0.396851	
-0.397461	
-0.39856	
-0.400635	
-0.402039	
-0.40448	
-0.406555	
-0.410217	
-0.414185	
-0.418091	
-0.422119	
-0.425964	
-0.430542	
-0.434753	
-0.438904	
-0.442017	
-0.445801	
-0.450378	
-0.453979	
-0.457764	
-0.461365	
-0.46344	
-0.46637	
-0.470093	
-0.472046	
-0.47406	
-0.475098	
-0.478455	
-0.481262	
-0.482849	
-0.483948	
-0.484924	
-0.486023	
-0.488281	
-0.487915	
-0.488464	
-0.486877	
-0.487732	
-0.487305	
-0.486877	
-0.486328	
-0.485718	
-0.485352	
-0.485229	
-0.484741	
-0.484924	
-0.482483	
-0.482483	
-0.48175	
-0.480774	
-0.479126	
-0.477478	
-0.476624	
-0.47583	
-0.473633	
-0.473145	
-0.470154	
-0.469421	
-0.467224	
-0.465698	
-0.463745	
-0.462036	
-0.459473	
-0.457275	
-0.455505	
-0.453003	
-0.450378	
-0.446716	
-0.44574	
-0.443054	
-0.44043	
-0.438843	
-0.436646	
-0.434509	
-0.434509	
-0.432129	
-0.430542	
-0.428345	
-0.428467	
-0.428528	
-0.427185	
-0.426941	
-0.425171	
-0.425232	
-0.424744	
-0.423218	
-0.423462	
-0.42157	
-0.421265	
-0.420593	
-0.419678	
-0.418579	
-0.417114	
-0.4151	
-0.41272	
-0.410461	
-0.407532	
-0.403687	
-0.399414	
-0.396729	
-0.393127	
-0.390076	
-0.387024	
-0.383911	
-0.381958	
-0.380066	
-0.376892	
-0.374878	
-0.372437	
-0.37085	
-0.369568	
-0.366333	
-0.364868	
-0.362488	
-0.361267	
-0.359497	
-0.356995	
-0.356384	
-0.354553	
-0.354126	
-0.353577	
-0.352966	
-0.352234	
-0.352844	
-0.352783	
-0.352844	
-0.352722	
-0.355164	
-0.354797	
-0.35614	
-0.356812	
-0.358398	
-0.360229	
-0.361694	
-0.362244	
-0.363892	
-0.364502	
-0.366821	
-0.366638	
-0.368042	
-0.368652	
-0.370972	
-0.372131	
-0.373596	
-0.374329	
-0.375366	
-0.376709	
-0.378418	
-0.378357	
-0.378906	
-0.37915	
-0.380493	
-0.381409	
-0.382751	
-0.383484	
-0.384766	
-0.385925	
-0.386658	
-0.386658	
-0.386719	
-0.387085	
-0.388489	
-0.38855	
-0.388916	
-0.389099	
-0.38916	
-0.389282	
-0.389771	
-0.389099	
-0.388977	
-0.388672	
-0.389648	
-0.388855	
-0.389648	
-0.389587	
-0.389587	
-0.390259	
-0.389771	
-0.389221	
-0.388062	
-0.388916	
-0.389465	
-0.389343	
-0.389221	
-0.388855	
-0.389343	
-0.389709	
-0.388916	
-0.387878	
-0.386108	
-0.38739	
-0.387451	
-0.38678	
-0.387268	
-0.386292	
-0.385986	
-0.387085	
-0.386292	
-0.385559	
-0.383911	
-0.384888	
-0.385681	
-0.385376	
-0.38501	
-0.383789	
-0.384277	
-0.385742	
-0.384644	
-0.384399	
-0.382935	
-0.384705	
-0.385742	
-0.385071	
-0.385376	
-0.385071	
-0.38623	
-0.387268	
-0.386719	
-0.387085	
-0.386475	
-0.387756	
-0.388733	
-0.388184	
-0.389526	
-0.389709	
-0.389587	
-0.390808	
-0.388733	
-0.389893	
-0.389526	
-0.389343	
-0.389587	
-0.388855	
-0.388733	
-0.38916	
-0.388245	
-0.388855	
-0.388611	
-0.388428	
-0.388	
-0.388062	
-0.388	
-0.388672	
-0.388062	
-0.388062	
-0.386536	
-0.387512	
-0.388306	
-0.388184	
-0.386963	
-0.386597	
-0.386841	
-0.388306	
-0.387329	
-0.387512	
-0.387207	
-0.388184	
-0.389099	
-0.388489	
-0.388062	
-0.387573	
-0.388184	
-0.388855	
-0.388733	
-0.388794	
-0.389343	
-0.389343	
-0.390503	
-0.390198	
-0.389709	
-0.388306	
-0.389526	
-0.390015	
-0.390259	
-0.390442	
-0.390747	
-0.390137	
-0.391541	
-0.390137	
-0.391541	
-0.389832	
-0.390869	
-0.389954	
-0.392212	
-0.391479	
-0.392151	
-0.390747	
-0.391846	
-0.392456	
-0.392395	
-0.392029	
-0.391602	
-0.392334	
-0.393311	
-0.39325	
-0.393982	
-0.393921	
-0.394775	
-0.394958	
-0.395264	
-0.395569	
-0.395203	
-0.39502	
-0.395813	
-0.395752	
-0.396301	
-0.396973	
-0.396912	
-0.397583	
-0.39679	
-0.398071	
-0.396118	
-0.397095	
-0.396301	
-0.397888	
-0.397095	
-0.397339	
-0.395569	
-0.397461	
-0.39679	
-0.396912	
-0.396423	
-0.396118	
-0.396667	
-0.397217	
-0.397034	
-0.397095	
-0.396667	
-0.397095	
-0.396973	
-0.396912	
-0.396362	
-0.396484	
-0.396606	
-0.397034	
-0.396912	
-0.39679	
-0.396484	
-0.396973	
-0.396484	
-0.396545	
-0.396545	
-0.395386	
-0.394592	
-0.394531	
-0.395935	
-0.395325	
-0.395935	
-0.393982	
-0.395935	
-0.39502	
-0.395752	
-0.394226	
-0.394287	
-0.395203	
-0.396179	
-0.395081	
-0.395203	
-0.394165	
-0.39563	
-0.394714	
-0.394775	
-0.394287	
-0.394653	
-0.394775	
-0.395691	
-0.394836	
-0.394897	
-0.393982	
-0.395203	
-0.39502	
-0.394775	
-0.394775	
-0.394775	
-0.394653	
-0.394653	
-0.394531	
-0.394653	
-0.394348	
-0.394348	
-0.394104	
-0.393982	
-0.395142	
-0.393921	
-0.393799	
-0.392822	
-0.393677	
-0.393799	
-0.394531	
-0.394653	
-0.394653	
-0.394165	
-0.395081	
-0.39447	
-0.394104	
-0.393738	
-0.394836	
-0.394897	
-0.395508	
-0.395447	
-0.395447	
-0.395508	
-0.395325	
-0.394958	
-0.395325	
-0.396179	
-0.396362	
-0.396484	
-0.396362	
-0.397034	
-0.398254	
-0.398193	
-0.397339	
-0.396423	
-0.397034	
-0.397339	
-0.398621	
-0.397766	
-0.397522	
-0.396301	
-0.397766	
-0.397766	
-0.396912	
-0.397339	
-0.396545	
-0.396606	
-0.397034	
-0.39679	
-0.396667	
-0.397522	
-0.397644	
-0.397583	
-0.3974	
-0.39856	
-0.398315	
-0.39856	
-0.397888	
-0.399231	
-0.39917	
-0.399414	
-0.399536	
-0.400085	
-0.399536	
-0.40033	
-0.399414	
-0.39978	
-0.400574	
-0.401001	
-0.400635	
-0.400757	
-0.401611	
-0.401794	
-0.401611	
-0.400208	
-0.400208	
-0.399658	
-0.400696	
-0.401489	
-0.400208	
-0.400879	
-0.400085	
-0.400757	
-0.400757	
-0.399719	
-0.40094	
-0.399963	
-0.400085	
-0.399292	
-0.39978	
-0.399536	
-0.399475	
-0.399719	
-0.399109	
-0.398621	
-0.399231	
-0.398621	
-0.398865	
-0.398682	
-0.398804	
-0.398499	
-0.39856	
-0.399109	
-0.399536	
-0.398254	
-0.397827	
-0.397339	
-0.398376	
-0.398254	
-0.397888	
-0.397095	
-0.397278	
-0.396484	
-0.397156	
-0.396973	
-0.395569	
-0.396484	
-0.395264	
-0.396484	
-0.395813	
-0.396423	
-0.396606	
-0.396301	
-0.395996	
-0.396667	
-0.395691	
-0.396057	
-0.395081	
-0.39563	
-0.395874	
-0.395874	
-0.39563	
-0.395447	
-0.396057	
-0.396729	
-0.395691	
-0.395691	
-0.395447	
-0.396729	
-0.397034	
-0.396912	
-0.396118	
-0.39679	
-0.396545	
-0.397156	
-0.396912	
-0.395996	
-0.396362	
-0.39624	
-0.396545	
-0.396667	
-0.396545	
-0.396729	
-0.39679	
-0.397888	
-0.396851	
-0.396912	
-0.397644	
-0.397278	
-0.397644	
-0.397034	
-0.397644	
-0.398315	
-0.398254	
-0.398621	
-0.399048	
-0.398071	
-0.39917	
-0.397949	
-0.399109	
-0.398926	
-0.399109	
-0.398376	
-0.398621	
-0.399048	
-0.39978	
-0.398438	
-0.397095	
-0.396057	
-0.397583	
-0.397461	
-0.398376	
-0.397705	
-0.398254	
-0.399109	
-0.400024	
-0.398743	
-0.399048	
-0.398376	
-0.399963	
-0.400024	
-0.400269	
-0.400146	
-0.400452	
-0.400574	
-0.401062	
-0.400879	
-0.401184	
-0.401672	
-0.401428	
-0.401794	
-0.401123	
-0.402771	
-0.402039	
-0.402222	
-0.402466	
-0.402588	
-0.402283	
-0.401855	
-0.401611	
-0.40155	
-0.401184	
-0.402466	
-0.402161	
-0.401672	
-0.4021	
-0.403198	
-0.401855	
-0.401001	
-0.399902	
-0.401245	
-0.400879	
-0.400818	
-0.401428	
-0.400391	
-0.40094	
-0.401306	
-0.400513	
-0.400146	
-0.400024	
-0.400269	
-0.399902	
-0.400024	
-0.400757	
-0.400024	
-0.399658	
-0.399902	
-0.400146	
-0.399414	
-0.399292	
-0.399536	
-0.39978	
-0.398743	
-0.400085	
-0.399414	
-0.399353	
-0.399292	
-0.40094	
-0.398865	
-0.398804	
-0.395935	
-0.3974	
-0.396729	
-0.397461	
-0.397095	
-0.396912	
-0.396729	
-0.397705	
-0.396179	
-0.396606	
-0.39502	
-0.395447	
-0.395203	
-0.39563	
-0.395508	
-0.395081	
-0.395142	
-0.39624	
-0.395142	
-0.395569	
-0.394348	
-0.395691	
-0.395752	
-0.396179	
-0.396362	
-0.396179	
-0.395691	
-0.394958	
-0.396851	
-0.39563	
-0.395935	
-0.394836	
-0.395569	
-0.394958	
-0.396301	
-0.395752	
-0.39624	
-0.395813	
-0.3974	
-0.396545	
-0.396912	
-0.394409	
-0.396484	
-0.396179	
-0.396729	
-0.397156	
-0.397278	
-0.397217	
-0.39917	
-0.398315	
-0.398254	
-0.396667	
-0.397522	
-0.398193	
-0.398926	
-0.399109	
-0.398926	
-0.398682	
-0.399109	
-0.400146	
-0.399414	
-0.399231	
-0.399353	
-0.399658	
-0.40033	
-0.400879	
-0.400085	
-0.400024	
-0.399353	
-0.400757	
-0.399597	
-0.400146	
-0.39856	
-0.399841	
-0.39856	
-0.400146	
-0.399902	
-0.400146	
-0.399963	
-0.401367	
-0.400818	
-0.400513	
-0.39856	
-0.399597	
-0.400452	
-0.40094	
-0.401062	
-0.400879	
-0.401123	
-0.401855	
-0.401611	
-0.400574	
-0.400146	
-0.400574	
-0.400269	
-0.400085	
-0.401367	
-0.400146	
-0.400513	
-0.39978	
-0.400757	
-0.400146	
-0.400696	
-0.399719	
-0.399719	
-0.398682	
-0.399963	
-0.400085	
-0.399597	
-0.399536	
-0.40033	
-0.399658	
-0.398926	
-0.397827	
-0.397461	
-0.397766	
-0.398438	
-0.398621	
-0.398315	
-0.398132	
-0.398621	
-0.398804	
-0.39801	
-0.397095	
-0.398132	
-0.398621	
-0.398926	
-0.399292	
-0.398438	
-0.398926	
-0.399292	
-0.400085	
-0.398804	
-0.399109	
-0.397278	
-0.398315	
-0.396729	
-0.397705	
-0.397461	
-0.397034	
-0.397034	
-0.397095	
-0.3974	
-0.396973	
-0.395752	
-0.394836	
-0.395142	
-0.395508	
-0.396057	
-0.395203	
-0.394958	
-0.395691	
-0.395264	
-0.394836	
-0.393494	
-0.393982	
-0.393982	
-0.394653	
-0.39563	
-0.394592	
-0.394775	
-0.394775	
-0.396057	
-0.395752	
-0.395142	
-0.394043	
-0.394897	
-0.394531	
-0.395935	
-0.395508	
-0.395203	
-0.395874	
-0.396179	
-0.396545	
-0.396484	
-0.395996	
-0.395935	
-0.39624	
-0.397156	
-0.397034	
-0.397095	
-0.396973	
-0.397583	
-0.397583	
-0.397949	
-0.397461	
-0.397461	
-0.397766	
-0.398132	
-0.398621	
-0.398743	
-0.398499	
-0.399048	
-0.400269	
-0.400391	
-0.39917	
-0.399048	
-0.399841	
-0.400024	
-0.401001	
-0.400391	
-0.400879	
-0.400818	
-0.400513	
-0.400757	
-0.400452	
-0.399963	
-0.399231	
-0.399597	
-0.400879	
-0.40033	
-0.400574	
-0.400879	
-0.401306	
-0.400879	
-0.400513	
-0.400269	
-0.400146	
-0.400085	
-0.400208	
-0.400146	
-0.39978	
-0.399597	
-0.400269	
-0.400391	
-0.399658	
-0.398315	
-0.397888	
-0.398743	
-0.39917	
-0.399536	
-0.398499	
-0.398499	
-0.397827	
-0.398865	
-0.399414	
-0.399231	
-0.39801	
-0.397339	
-0.397217	
-0.398315	
-0.397644	
-0.397583	
-0.397217	
-0.397339	
-0.397522	
-0.39679	
-0.396423	
-0.396179	
-0.396606	
-0.397095	
-0.396606	
-0.396729	
-0.39679	
-0.397522	
-0.397583	
-0.397156	
-0.396301	
-0.395752	
-0.396362	
-0.396973	
-0.398132	
-0.39801	
-0.397644	
-0.397522	
-0.398621	
-0.398743	
-0.398315	
-0.39679	
-0.395752	
-0.395447	
-0.396729	
-0.395996	
-0.395569	
-0.395203	
-0.396362	
-0.395691	
-0.395386	
-0.393555	
-0.394104	
-0.394409	
-0.394226	
-0.39386	
-0.393738	
-0.393921	
-0.394287	
-0.394531	
-0.394287	
-0.392944	
-0.392029	
-0.392334	
-0.393555	
-0.393921	
-0.393555	
-0.393799	
-0.393372	
-0.394714	
-0.394287	
-0.394226	
-0.39386	
-0.394043	
-0.39325	
-0.39502	
-0.394409	
-0.394287	
-0.394775	
-0.395691	
-0.395142	
-0.395325	
-0.394287	
-0.39502	
-0.394958	
-0.395813	
-0.395996	
-0.39563	
-0.395996	
-0.396606	
-0.396606	
-0.397095	
-0.395691	
-0.395691	
-0.39502	
-0.395996	
-0.397156	
-0.396362	
-0.396484	
-0.396118	
-0.3974	
-0.397522	
-0.397583	
-0.396423	
-0.396912	
-0.396729	
-0.398865	
-0.398254	
-0.398865	
-0.398132	
-0.399353	
-0.399231	
-0.399597	
-0.398499	
-0.398987	
-0.399719	
-0.40033	
-0.39978	
-0.400208	
-0.400452	
-0.401489	
-0.401001	
-0.401367	
-0.399841	
-0.399292	
-0.398804	
-0.399536	
-0.40033	
-0.399841	
-0.399536	
-0.398804	
-0.400208	
-0.400391	
-0.40033	
-0.39917	
-0.398621	
-0.398621	
-0.399841	
-0.399475	
-0.399414	
-0.398987	
-0.400391	
-0.399597	
-0.399597	
-0.398254	
-0.399048	
-0.398682	
-0.399292	
-0.398865	
-0.398682	
-0.398193	
-0.398254	
-0.398376	
-0.397644	
-0.397156	
-0.396484	
-0.397095	
-0.397461	
-0.397705	
-0.396484	
-0.396912	
-0.396301	
-0.398254	
-0.397583	
-0.397522	
-0.395447	
-0.395691	
-0.395325	
-0.396423	
-0.395752	
-0.395813	
-0.395386	
-0.396118	
-0.395996	
-0.39624	
-0.395264	
-0.395142	
-0.395264	
-0.395386	
-0.39563	
-0.394958	
-0.395386	
-0.395447	
-0.396057	
-0.395081	
-0.394592	
-0.393066	
-0.394653	
-0.394653	
-0.395813	
-0.394287	
-0.394226	
-0.393433	
-0.395447	
-0.39502	
-0.394592	
-0.392151	
-0.393677	
-0.392822	
-0.394653	
-0.394104	
-0.394165	
-0.394287	
-0.39502	
-0.395081	
-0.394592	
-0.394348	
-0.393188	
-0.394043	
-0.394531	
-0.394592	
-0.394714	
-0.394897	
-0.39502	
-0.396606	
-0.39563	
-0.395325	
-0.394348	
-0.395569	
-0.396057	
-0.397034	
-0.396118	
-0.396484	
-0.395691	
-0.398071	
-0.397156	
-0.397827	
-0.395691	
-0.397156	
-0.396423	
-0.39679	
-0.396423	
-0.39624	
-0.396179	
-0.39679	
-0.396545	
-0.39624	
-0.395386	
-0.394714	
-0.396118	
-0.396667	
-0.397461	
-0.397278	
-0.397217	
-0.39801	
-0.399475	
-0.398499	
-0.398132	
-0.396606	
-0.39856	
-0.398743	
-0.399841	
-0.39917	
-0.399475	
-0.399292	
-0.401245	
-0.399902	
-0.400818	
-0.398987	
-0.399719	
-0.399536	
-0.400696	
-0.400391	
-0.400208	
-0.40033	
-0.400818	
-0.400757	
-0.400208	
-0.399597	
-0.398743	
-0.399658	
-0.399902	
-0.400879	
-0.399902	
-0.399963	
-0.398987	
-0.400452	
-0.399719	
-0.399414	
-0.397644	
-0.398804	
-0.399109	
-0.398499	
-0.398071	
-0.398315	
-0.397827	
-0.399719	
-0.398376	
-0.398621	
-0.396423	
-0.397461	
-0.396667	
-0.3974	
-0.397827	
-0.397278	
-0.397034	
-0.397461	
-0.398438	
-0.397217	
-0.396057	
-0.395508	
-0.395874	
-0.395447	
-0.396179	
-0.395142	
-0.394714	
-0.394897	
-0.395935	
-0.39502	
-0.39563	
-0.393616	
-0.394592	
-0.39325	
-0.395203	
-0.394592	
-0.394653	
-0.394104	
-0.395996	
-0.394653	
-0.394409	
-0.392212	
-0.393982	
-0.393677	
-0.394409	
-0.394714	
-0.394104	
-0.394409	
-0.394104	
-0.395203	
-0.394897	
-0.394592	
-0.394043	
-0.394775	
-0.39502	
-0.395325	
-0.395264	
-0.395081	
-0.394836	
-0.396423	
-0.394714	
-0.395569	
-0.393311	
-0.394653	
-0.394226	
-0.395325	
-0.395813	
-0.395203	
-0.395325	
-0.396545	
-0.395752	
-0.396301	
-0.394897	
-0.396606	
-0.39624	
-0.396606	
-0.397278	
-0.396851	
-0.396729	
-0.3974	
-0.397278	
-0.396729	
-0.396484	
-0.395874	
-0.396729	
-0.396912	
-0.39679	
-0.396301	
-0.396118	
-0.396057	
-0.3974	
-0.395813	
-0.395935	
-0.393677	
-0.39624	
-0.394958	
-0.396667	
-0.397461	
-0.397278	
-0.397705	
-0.398743	
-0.398254	
-0.39856	
-0.396912	
-0.398438	
-0.39801	
-0.398621	
-0.399414	
-0.399048	
-0.399597	
-0.399536	
-0.40033	
-0.400024	
-0.399597	
-0.399109	
-0.400146	
-0.399597	
-0.400208	
-0.39978	
-0.399902	
-0.399902	
-0.400879	
-0.399353	
-0.399963	
-0.397766	
-0.399048	
-0.399109	
-0.399597	
-0.39978	
-0.399109	
-0.399048	
-0.399658	
-0.398621	
-0.398499	
-0.397156	
-0.39856	
-0.398254	
-0.398132	
-0.398865	
-0.39801	
-0.398438	
-0.398315	
-0.398071	
-0.397461	
-0.397278	
-0.396851	
-0.397095	
-0.397278	
-0.397095	
-0.396912	
-0.397339	
-0.396973	
-0.398926	
-0.397156	
-0.3974	
-0.395508	
-0.396973	
-0.395752	
-0.396667	
-0.396301	
-0.395752	
-0.395386	
-0.395569	
-0.394775	
-0.395508	
-0.393188	
-0.394531	
-0.394043	
-0.393677	
-0.394775	
-0.393921	
-0.39325	
-0.393188	
-0.394409	
-0.392883	
-0.392212	
-0.390503	
-0.392395	
-0.392883	
-0.392944	
-0.393005	
-0.393188	
-0.393494	
-0.394226	
-0.393616	
-0.393494	
-0.393005	
-0.393127	
-0.392456	
-0.393494	
-0.393616	
-0.393433	
-0.393677	
-0.393616	
-0.39386	
-0.394226	
-0.392578	
-0.393188	
-0.39325	
-0.393616	
-0.394287	
-0.394043	
-0.39386	
-0.394165	
-0.396057	
-0.394958	
-0.394531	
-0.393738	
-0.395203	
-0.395996	
-0.396362	
-0.395813	
-0.39624	
-0.396118	
-0.396606	
-0.396545	
-0.396179	
-0.395935	
-0.396301	
-0.396118	
-0.396912	
-0.397766	
-0.397583	
-0.397766	
-0.397095	
-0.398438	
-0.398438	
-0.396606	
-0.396606	
-0.39624	
-0.397217	
-0.397583	
-0.397278	
-0.397278	
-0.397766	
-0.398926	
-0.398193	
-0.397217	
-0.396851	
-0.397583	
-0.397949	
-0.398132	
-0.398071	
-0.398193	
-0.398804	
-0.39917	
-0.399231	
-0.399109	
-0.398926	
-0.398682	
-0.398438	
-0.399292	
-0.399963	
-0.398865	
-0.398682	
-0.398438	
-0.399597	
-0.399048	
-0.398132	
-0.397339	
-0.398438	
-0.398926	
-0.399109	
-0.398132	
-0.398132	
-0.399048	
-0.399231	
-0.398315	
-0.397156	
-0.396484	
-0.397461	
-0.3974	
-0.3974	
-0.397217	
-0.397095	
-0.396729	
-0.397644	
-0.39679	
-0.397583	
-0.39624	
-0.396667	
-0.395508	
-0.396851	
-0.397766	
-0.396606	
-0.397217	
-0.397217	
-0.397461	
-0.397217	
-0.395813	
-0.397034	
-0.397278	
-0.397827	
-0.397766	
-0.397156	
-0.397156	
-0.397095	
-0.396912	
-0.395813	
-0.395508	
-0.395203	
-0.394836	
-0.395081	
-0.395081	
-0.395203	
-0.394714	
-0.39502	
-0.394287	
-0.394714	
-0.394714	
-0.392822	
-0.392761	
-0.392395	
-0.393188	
-0.393799	
-0.393066	
-0.392639	
-0.393555	
-0.393433	
-0.392822	
-0.391479	
-0.392456	
-0.392944	
-0.392883	
-0.393311	
-0.393311	
-0.393311	
-0.393188	
-0.393311	
-0.393005	
-0.39325	
-0.392517	
-0.393372	
-0.393066	
-0.393738	
-0.394897	
-0.393921	
-0.394531	
-0.393616	
-0.395203	
-0.395508	
-0.394775	
-0.394348	
-0.394531	
-0.395325	
-0.396362	
-0.395508	
-0.395508	
-0.395752	
-0.396057	
-0.396118	
-0.395691	
-0.39624	
-0.396606	
-0.397461	
-0.397827	
-0.397705	
-0.398071	
-0.398987	
-0.398926	
-0.398315	
-0.397888	
-0.397949	
-0.397827	
-0.396973	
-0.398132	
-0.399048	
-0.39801	
-0.399048	
-0.398743	
-0.399597	
-0.399109	
-0.398254	
-0.398071	
-0.398987	
-0.399109	
-0.399536	
-0.398804	
-0.398987	
-0.399353	
-0.399292	
-0.398987	
-0.397949	
-0.398438	
-0.398499	
-0.398315	
-0.398376	
-0.39856	
-0.398315	
-0.398804	
-0.398682	
-0.398743	
-0.398193	
-0.397156	
-0.397827	
-0.397644	
-0.398132	
-0.39917	
-0.398193	
-0.398071	
-0.397583	
-0.398743	
-0.39801	
-0.396973	
-0.397156	
-0.396729	
-0.397034	
-0.3974	
-0.396667	
-0.396606	
-0.397034	
-0.396729	
-0.397034	
-0.39563	
-0.396912	
-0.396912	
-0.396729	
-0.397217	
-0.397278	
-0.3974	
-0.397705	
-0.398376	
-0.398621	
-0.398193	
-0.397034	
-0.396606	
-0.397217	
-0.398071	
-0.397827	
-0.3974	
-0.396912	
-0.3974	
-0.396423	
-0.396423	
-0.395386	
-0.395325	
-0.395386	
-0.395386	
-0.395874	
-0.394775	
-0.394836	
-0.39502	
-0.394714	
-0.394165	
-0.393433	
-0.393921	
-0.393677	
-0.393616	
-0.393494	
-0.393494	
-0.393494	
-0.393677	
-0.394409	
-0.39447	
-0.394165	
-0.392822	
-0.393188	
-0.393311	
-0.394043	
-0.394531	
-0.394104	
-0.394226	
-0.394775	
-0.394958	
-0.394348	
-0.394043	
-0.394348	
-0.394958	
-0.395325	
-0.395386	
-0.395264	
-0.395264	
-0.395813	
-0.396118	
-0.395508	
-0.395081	
-0.395935	
-0.395874	
-0.395081	
-0.397339	
-0.396057	
-0.396423	
-0.396362	
-0.396912	
-0.396973	
-0.396545	
-0.39563	
-0.395935	
-0.396729	
-0.397034	
-0.397156	
-0.396973	
-0.3974	
-0.398987	
-0.398743	
-0.398621	
-0.398193	
-0.398438	
-0.399109	
-0.398499	
-0.399658	
-0.399109	
-0.399719	
-0.400818	
-0.400024	
-0.399963	
-0.399719	
-0.400574	
-0.400513	
-0.400391	
-0.401123	
-0.400696	
-0.400635	
-0.400574	
-0.399963	
-0.400452	
-0.399475	
-0.39978	
-0.398987	
-0.399597	
-0.40033	
-0.399658	
-0.399414	
-0.399963	
-0.401062	
-0.400696	
-0.399597	
-0.399536	
-0.399597	
-0.39917	
-0.398499	
-0.399841	
-0.399231	
-0.399414	
-0.399719	
-0.399475	
-0.399048	
-0.398193	
-0.398132	
-0.398315	
-0.398438	
-0.398865	
-0.397888	
-0.397461	
-0.397217	
-0.398376	
-0.397156	
-0.396973	
-0.395996	
-0.396851	
-0.397095	
-0.397339	
-0.396912	
-0.396851	
-0.396973	
-0.397522	
-0.396606	
-0.396118	
-0.396057	
-0.395081	
-0.395508	
-0.395142	
-0.395935	
-0.396118	
-0.396179	
-0.396362	
	
