E:\DOCUMENTS AND SETTINGS\JPOTAS\MEUS DOCUMENTOS\UFRJ\RSCI-BM 12 WK SERIES\070719-RSCI-BM-02\RSCI-BM-02-REMG\070719-RSCI-BM-02-REMG-0008.ACQ
0.025000 msec/sample
1 channel
Analog input
Volts
CH1	
2000	
-0.400818	
-0.400757	
-0.401733	
-0.401733	
-0.400269	
-0.399841	
-0.400696	
-0.40033	
-0.400452	
-0.399597	
-0.400391	
-0.400635	
-0.400024	
-0.400879	
-0.401184	
-0.400635	
-0.401062	
-0.399414	
-0.401001	
-0.401001	
-0.401062	
-0.400879	
-0.400818	
-0.401733	
-0.401733	
-0.401367	
-0.400513	
-0.400391	
-0.401245	
-0.401306	
-0.40094	
-0.401123	
-0.40094	
-0.40155	
-0.401489	
-0.401611	
-0.400391	
-0.400452	
-0.399597	
-0.400208	
-0.400085	
-0.398987	
-0.398376	
-0.3974	
-0.397766	
-0.397827	
-0.396851	
-0.396484	
-0.396118	
-0.396362	
-0.396301	
-0.395874	
-0.396118	
-0.395935	
-0.396667	
-0.397095	
-0.395508	
-0.395325	
-0.395813	
-0.395874	
-0.395935	
-0.395752	
-0.396057	
-0.396423	
-0.395325	
-0.396973	
-0.397034	
-0.396423	
-0.39679	
-0.396118	
-0.397034	
-0.3974	
-0.397644	
-0.39801	
-0.397766	
-0.399719	
-0.399292	
-0.398926	
-0.397949	
-0.399048	
-0.39917	
-0.39917	
-0.39917	
-0.399292	
-0.399231	
-0.398987	
-0.400513	
-0.39917	
-0.399048	
-0.398987	
-0.399475	
-0.399048	
-0.399109	
-0.399292	
-0.399353	
-0.399231	
-0.400269	
-0.400635	
-0.399841	
-0.399963	
-0.398743	
-0.400024	
-0.399902	
-0.399658	
-0.399231	
-0.399353	
-0.399963	
-0.399963	
-0.398987	
-0.397278	
-0.398682	
-0.398254	
-0.398315	
-0.398376	
-0.397766	
-0.397522	
-0.397278	
-0.398193	
-0.397339	
-0.397095	
-0.397095	
-0.397156	
-0.396973	
-0.396362	
-0.396973	
-0.39679	
-0.396545	
-0.397217	
-0.397522	
-0.396179	
-0.39624	
-0.395508	
-0.39679	
-0.39624	
-0.397339	
-0.396484	
-0.396423	
-0.396729	
-0.397888	
-0.39679	
-0.395691	
-0.395935	
-0.396973	
-0.396973	
-0.396667	
-0.397217	
-0.396973	
-0.397705	
-0.398071	
-0.397583	
-0.397034	
-0.396606	
-0.39679	
-0.396851	
-0.396606	
-0.396851	
-0.396729	
-0.396912	
-0.397156	
-0.397766	
-0.396484	
-0.396301	
-0.395081	
-0.397095	
-0.396667	
-0.3974	
-0.397278	
-0.397583	
-0.397339	
-0.398621	
-0.396973	
-0.396667	
-0.396606	
-0.396912	
-0.3974	
-0.396606	
-0.397339	
-0.3974	
-0.397339	
-0.397827	
-0.3974	
-0.397095	
-0.3974	
-0.397278	
-0.3974	
-0.396973	
-0.398254	
-0.396851	
-0.397156	
-0.39679	
-0.397949	
-0.396606	
-0.395203	
-0.395142	
-0.396118	
-0.395386	
-0.395508	
-0.393188	
-0.392334	
-0.392517	
-0.393494	
-0.392151	
-0.392456	
-0.394409	
-0.395691	
-0.395874	
-0.395325	
-0.395569	
-0.395752	
-0.395813	
-0.396118	
-0.395752	
-0.395264	
-0.395691	
-0.395935	
-0.395203	
-0.395569	
-0.39624	
-0.395874	
-0.395813	
-0.395752	
-0.397644	
-0.39679	
-0.395325	
-0.395569	
-0.397034	
-0.397461	
-0.3974	
-0.397949	
-0.397949	
-0.398193	
-0.398682	
-0.397278	
-0.396973	
-0.396912	
-0.39679	
-0.396912	
-0.396912	
-0.396729	
-0.396667	
-0.397095	
-0.397034	
-0.396973	
-0.396606	
-0.396667	
-0.396973	
-0.396484	
-0.396118	
-0.395691	
-0.39563	
-0.395142	
-0.39502	
-0.39624	
-0.39386	
-0.392151	
-0.390991	
-0.391724	
-0.39093	
-0.39032	
-0.389832	
-0.389221	
-0.388977	
-0.388428	
-0.387695	
-0.386658	
-0.38562	
-0.385498	
-0.384583	
-0.384338	
-0.384521	
-0.383545	
-0.383179	
-0.382202	
-0.383667	
-0.382202	
-0.381775	
-0.38092	
-0.381653	
-0.381042	
-0.380737	
-0.381531	
-0.381714	
-0.382019	
-0.383667	
-0.383118	
-0.382263	
-0.383118	
-0.384094	
-0.384521	
-0.385498	
-0.385925	
-0.386963	
-0.387817	
-0.388794	
-0.389465	
-0.390503	
-0.392273	
-0.393433	
-0.394592	
-0.395935	
-0.396667	
-0.3974	
-0.398254	
-0.39978	
-0.401001	
-0.401733	
-0.404175	
-0.405945	
-0.408264	
-0.410583	
-0.414185	
-0.417603	
-0.421387	
-0.424988	
-0.42926	
-0.432434	
-0.436218	
-0.439758	
-0.443115	
-0.446411	
-0.44928	
-0.451111	
-0.45343	
-0.455872	
-0.458252	
-0.458862	
-0.460876	
-0.462402	
-0.464539	
-0.466553	
-0.46759	
-0.469482	
-0.471191	
-0.472473	
-0.47583	
-0.476074	
-0.477356	
-0.477417	
-0.47937	
-0.480103	
-0.480225	
-0.480652	
-0.481079	
-0.48114	
-0.482666	
-0.481567	
-0.480408	
-0.480225	
-0.480591	
-0.480286	
-0.479065	
-0.478394	
-0.477966	
-0.477966	
-0.476685	
-0.47522	
-0.473999	
-0.473022	
-0.472229	
-0.471008	
-0.469299	
-0.467834	
-0.46582	
-0.463745	
-0.461792	
-0.460022	
-0.457092	
-0.455078	
-0.453064	
-0.450684	
-0.44812	
-0.446045	
-0.443665	
-0.4422	
-0.440552	
-0.43988	
-0.437866	
-0.436279	
-0.434692	
-0.434937	
-0.43396	
-0.43396	
-0.432617	
-0.432007	
-0.430359	
-0.431702	
-0.429382	
-0.427795	
-0.426697	
-0.425598	
-0.424072	
-0.422546	
-0.421143	
-0.419128	
-0.417419	
-0.415405	
-0.41217	
-0.408875	
-0.406433	
-0.403076	
-0.399841	
-0.396118	
-0.3927	
-0.388977	
-0.38562	
-0.382385	
-0.379639	
-0.374634	
-0.371582	
-0.367065	
-0.364319	
-0.361145	
-0.358093	
-0.354492	
-0.351501	
-0.348389	
-0.347717	
-0.344299	
-0.341553	
-0.339539	
-0.339233	
-0.337097	
-0.335754	
-0.335754	
-0.335266	
-0.335632	
-0.335938	
-0.335754	
-0.335449	
-0.33783	
-0.338623	
-0.340088	
-0.340637	
-0.342224	
-0.34314	
-0.344666	
-0.346069	
-0.346375	
-0.346985	
-0.349792	
-0.350403	
-0.350952	
-0.351318	
-0.353577	
-0.354797	
-0.356018	
-0.357117	
-0.357605	
-0.35791	
-0.360352	
-0.361023	
-0.362366	
-0.363647	
-0.364502	
-0.365417	
-0.366882	
-0.36792	
-0.368286	
-0.36853	
-0.370361	
-0.371216	
-0.371765	
-0.373291	
-0.373596	
-0.374451	
-0.375549	
-0.375916	
-0.375488	
-0.374817	
-0.375793	
-0.376465	
-0.376404	
-0.37793	
-0.377563	
-0.377808	
-0.378052	
-0.377869	
-0.377014	
-0.373779	
-0.373962	
-0.374451	
-0.375244	
-0.375549	
-0.376831	
-0.37793	
-0.378723	
-0.379517	
-0.37854	
-0.377747	
-0.378113	
-0.378906	
-0.378418	
-0.379333	
-0.378662	
-0.37854	
-0.378845	
-0.378723	
-0.378113	
-0.37738	
-0.377197	
-0.377258	
-0.377441	
-0.37793	
-0.376587	
-0.376587	
-0.376648	
-0.376526	
-0.375916	
-0.37561	
-0.375549	
-0.375977	
-0.375916	
-0.377075	
-0.376587	
-0.376465	
-0.377136	
-0.377625	
-0.378296	
-0.377869	
-0.377808	
-0.377869	
-0.378784	
-0.379944	
-0.379456	
-0.380127	
-0.380615	
-0.381165	
-0.381653	
-0.380981	
-0.380737	
-0.380066	
-0.380981	
-0.380981	
-0.381287	
-0.380737	
-0.38031	
-0.380432	
-0.379883	
-0.379211	
-0.378845	
-0.37854	
-0.377747	
-0.377502	
-0.377747	
-0.376709	
-0.375854	
-0.375305	
-0.375061	
-0.37384	
-0.373352	
-0.372803	
-0.372253	
-0.370911	
-0.371887	
-0.3703	
-0.36969	
-0.36908	
-0.369263	
-0.368591	
-0.368713	
-0.368225	
-0.368958	
-0.369446	
-0.371399	
-0.371521	
-0.372131	
-0.373169	
-0.375061	
-0.375793	
-0.375732	
-0.375793	
-0.37677	
-0.37915	
-0.381226	
-0.382507	
-0.38446	
-0.386169	
-0.388367	
-0.389526	
-0.39093	
-0.391907	
-0.393555	
-0.396118	
-0.398193	
-0.400391	
-0.402344	
-0.404907	
-0.407959	
-0.411194	
-0.413574	
-0.416931	
-0.420227	
-0.424988	
-0.429626	
-0.432617	
-0.435669	
-0.440002	
-0.443848	
-0.446167	
-0.447388	
-0.449585	
-0.452698	
-0.455322	
-0.458008	
-0.460022	
-0.461975	
-0.464417	
-0.466187	
-0.467163	
-0.467834	
-0.469421	
-0.470764	
-0.472656	
-0.47406	
-0.475159	
-0.475586	
-0.476135	
-0.477051	
-0.4776	
-0.477112	
-0.476685	
-0.476563	
-0.477722	
-0.477661	
-0.477844	
-0.477722	
-0.477905	
-0.477722	
-0.477905	
-0.477112	
-0.477234	
-0.476257	
-0.475891	
-0.475281	
-0.475403	
-0.473389	
-0.47229	
-0.470154	
-0.470032	
-0.46814	
-0.467102	
-0.464111	
-0.462158	
-0.459229	
-0.459167	
-0.456177	
-0.45459	
-0.452881	
-0.45166	
-0.449768	
-0.447937	
-0.44635	
-0.445374	
-0.444092	
-0.443787	
-0.442078	
-0.440979	
-0.440247	
-0.438843	
-0.436951	
-0.434448	
-0.433228	
-0.431702	
-0.430786	
-0.42926	
-0.427124	
-0.425171	
-0.42334	
-0.420715	
-0.418152	
-0.414307	
-0.411316	
-0.407288	
-0.404541	
-0.401978	
-0.398865	
-0.395691	
-0.392334	
-0.388977	
-0.386047	
-0.381897	
-0.379333	
-0.375671	
-0.372864	
-0.36853	
-0.367004	
-0.363586	
-0.360901	
-0.357849	
-0.356812	
-0.352844	
-0.350586	
-0.346985	
-0.346436	
-0.345276	
-0.345764	
-0.344055	
-0.343506	
-0.343872	
-0.345276	
-0.344788	
-0.344666	
-0.345337	
-0.346863	
-0.347412	
-0.348633	
-0.348755	
-0.348816	
-0.349304	
-0.35083	
-0.351074	
-0.351196	
-0.352173	
-0.353333	
-0.354126	
-0.356323	
-0.356323	
-0.357483	
-0.358276	
-0.359863	
-0.360107	
-0.360046	
-0.361206	
-0.362122	
-0.363098	
-0.365234	
-0.365784	
-0.366272	
-0.36676	
-0.369019	
-0.368958	
-0.369446	
-0.369446	
-0.370911	
-0.371582	
-0.372803	
-0.372986	
-0.374023	
-0.375	
-0.375977	
-0.375671	
-0.37616	
-0.375916	
-0.377014	
-0.377686	
-0.378479	
-0.378113	
-0.378479	
-0.378601	
-0.380249	
-0.379578	
-0.379883	
-0.379517	
-0.380249	
-0.38031	
-0.38092	
-0.380188	
-0.38031	
-0.380798	
-0.38147	
-0.38092	
-0.381592	
-0.381348	
-0.382507	
-0.383057	
-0.383484	
-0.383301	
-0.383362	
-0.384216	
-0.38562	
-0.384155	
-0.383728	
-0.383667	
-0.384888	
-0.384888	
-0.385315	
-0.385315	
-0.385376	
-0.385986	
-0.386719	
-0.386047	
-0.385925	
-0.386353	
-0.38678	
-0.387207	
-0.387329	
-0.387207	
-0.387207	
-0.38739	
-0.387939	
-0.388	
-0.386963	
-0.388733	
-0.38739	
-0.388367	
-0.388855	
-0.388733	
-0.389282	
-0.388794	
-0.390076	
-0.390381	
-0.389404	
-0.389771	
-0.389099	
-0.389954	
-0.390381	
-0.39032	
-0.390625	
-0.391052	
-0.391296	
-0.391907	
-0.391357	
-0.391663	
-0.391724	
-0.392395	
-0.393005	
-0.392456	
-0.392273	
-0.392334	
-0.392334	
-0.39325	
-0.391968	
-0.3927	
-0.391663	
-0.392639	
-0.392639	
-0.392578	
-0.392578	
-0.392761	
-0.393188	
-0.393982	
-0.392639	
-0.393555	
-0.392456	
-0.393677	
-0.393921	
-0.394226	
-0.394409	
-0.39502	
-0.395142	
-0.395691	
-0.394775	
-0.395447	
-0.394287	
-0.395081	
-0.395142	
-0.394958	
-0.39502	
-0.39502	
-0.395508	
-0.395935	
-0.394836	
-0.395874	
-0.394409	
-0.395081	
-0.394104	
-0.394714	
-0.394592	
-0.394531	
-0.394348	
-0.394409	
-0.393372	
-0.393921	
-0.392944	
-0.393311	
-0.392883	
-0.393372	
-0.393555	
-0.393494	
-0.394104	
-0.394409	
-0.393433	
-0.394165	
-0.392578	
-0.393921	
-0.393799	
-0.393921	
-0.394287	
-0.39386	
-0.39447	
-0.394958	
-0.393982	
-0.393738	
-0.393066	
-0.394104	
-0.394531	
-0.395264	
-0.394897	
-0.39563	
-0.395691	
-0.39679	
-0.396118	
-0.395508	
-0.396118	
-0.396912	
-0.396973	
-0.398132	
-0.397217	
-0.396484	
-0.396362	
-0.397583	
-0.396118	
-0.395203	
-0.395569	
-0.396057	
-0.395752	
-0.39563	
-0.395691	
-0.395813	
-0.396118	
-0.396423	
-0.39563	
-0.395386	
-0.396057	
-0.395996	
-0.395264	
-0.394653	
-0.395813	
-0.395325	
-0.395996	
-0.395874	
-0.395569	
-0.394714	
-0.394836	
-0.394348	
-0.394348	
-0.394287	
-0.394531	
-0.394287	
-0.39447	
-0.394165	
-0.39447	
-0.393799	
-0.393921	
-0.393799	
-0.394653	
-0.394592	
-0.395813	
-0.395081	
-0.395569	
-0.39502	
-0.395691	
-0.395447	
-0.395569	
-0.395996	
-0.395386	
-0.395508	
-0.395447	
-0.395325	
-0.395264	
-0.394226	
-0.395264	
-0.39447	
-0.394043	
-0.394348	
-0.394409	
-0.394409	
-0.393921	
-0.39386	
-0.39386	
-0.393738	
-0.394409	
-0.393005	
-0.3927	
-0.391907	
-0.392578	
-0.392578	
-0.392334	
-0.391785	
-0.392395	
-0.392334	
-0.393188	
-0.391602	
-0.391602	
-0.391113	
-0.391724	
-0.391541	
-0.391479	
-0.390747	
-0.390869	
-0.391052	
-0.392029	
-0.39032	
-0.389954	
-0.389893	
-0.391357	
-0.390503	
-0.390381	
-0.389343	
-0.390198	
-0.391113	
-0.390991	
-0.390503	
-0.389099	
-0.389038	
-0.391113	
-0.39093	
-0.391174	
-0.391174	
-0.391052	
-0.391663	
-0.391541	
-0.391174	
-0.389832	
-0.391052	
-0.391907	
-0.391418	
-0.391052	
-0.39209	
-0.391052	
-0.391663	
-0.390808	
-0.392151	
-0.390503	
-0.390442	
-0.389832	
-0.390869	
-0.390808	
-0.390808	
-0.390686	
-0.390991	
-0.390808	
-0.391724	
-0.390259	
-0.390747	
-0.389709	
-0.391357	
-0.390198	
-0.390564	
-0.389221	
-0.39032	
-0.390625	
-0.391541	
-0.390259	
-0.389954	
-0.389038	
-0.39093	
-0.390198	
-0.390503	
-0.390808	
-0.391785	
-0.392761	
-0.393372	
-0.393188	
-0.392761	
-0.393311	
-0.394165	
-0.394287	
-0.394714	
-0.395569	
-0.394897	
-0.395264	
-0.394104	
-0.395264	
-0.394714	
-0.394592	
-0.394104	
-0.395386	
-0.394958	
-0.395508	
-0.394714	
-0.394958	
-0.394348	
-0.395752	
-0.393982	
-0.39386	
-0.393066	
-0.394592	
-0.393799	
-0.393677	
-0.392395	
-0.393555	
-0.392883	
-0.393494	
-0.391846	
-0.391602	
-0.390747	
-0.391907	
-0.39093	
-0.391174	
-0.390198	
-0.391357	
-0.391052	
-0.391479	
-0.391174	
-0.390808	
-0.391052	
-0.391357	
-0.391357	
-0.391479	
-0.391602	
-0.390991	
-0.391663	
-0.390686	
-0.391357	
-0.389404	
-0.390442	
-0.389587	
-0.390564	
-0.390503	
-0.390991	
-0.390869	
-0.390808	
-0.389526	
-0.391296	
-0.390503	
-0.390747	
-0.390503	
-0.391968	
-0.391418	
-0.392151	
-0.391113	
-0.391663	
-0.391724	
-0.392212	
-0.391663	
-0.392151	
-0.392151	
-0.392395	
-0.392395	
-0.392578	
-0.392395	
-0.393005	
-0.392639	
-0.393738	
-0.39325	
-0.3927	
-0.391663	
-0.392578	
-0.393677	
-0.393433	
-0.393616	
-0.393677	
-0.394897	
-0.394592	
-0.394775	
-0.393066	
-0.393372	
-0.393005	
-0.394104	
-0.393738	
-0.393799	
-0.392395	
-0.392883	
-0.391785	
-0.3927	
-0.392151	
-0.392395	
-0.392456	
-0.3927	
-0.392456	
-0.393433	
-0.3927	
-0.393066	
-0.393005	
-0.393555	
-0.393372	
-0.392883	
-0.392883	
-0.393066	
-0.39325	
-0.392883	
-0.392883	
-0.39209	
-0.393677	
-0.393738	
-0.393738	
-0.392273	
-0.391907	
-0.392212	
-0.393555	
-0.393433	
-0.392761	
-0.391968	
-0.3927	
-0.393005	
-0.393311	
-0.392273	
-0.392517	
-0.392822	
-0.393127	
-0.393127	
-0.393677	
-0.392883	
-0.392761	
-0.392334	
-0.393555	
-0.392944	
-0.393188	
-0.393066	
-0.393921	
-0.394165	
-0.394897	
-0.394409	
-0.393738	
-0.394897	
-0.396057	
-0.395447	
-0.394348	
-0.394348	
-0.394897	
-0.395874	
-0.395813	
-0.395691	
-0.394531	
-0.39624	
-0.396423	
-0.396362	
-0.394714	
-0.395569	
-0.394592	
-0.395813	
-0.395508	
-0.39563	
-0.395386	
-0.396179	
-0.395813	
-0.396423	
-0.395203	
-0.395264	
-0.394653	
-0.394958	
-0.395203	
-0.394775	
-0.394226	
-0.394287	
-0.393738	
-0.394775	
-0.393066	
-0.393188	
-0.39209	
-0.39386	
-0.394592	
-0.394653	
-0.394226	
-0.393555	
-0.394226	
-0.395142	
-0.394775	
-0.393738	
-0.394348	
-0.394958	
-0.39563	
-0.39502	
-0.394409	
-0.393738	
-0.395325	
-0.395508	
-0.395691	
-0.395142	
-0.395325	
-0.394958	
-0.396118	
-0.395569	
-0.395447	
-0.395386	
-0.395752	
-0.395874	
-0.397278	
-0.395142	
-0.395325	
-0.394653	
-0.395874	
-0.395447	
-0.396301	
-0.395447	
-0.395569	
-0.394958	
-0.395325	
-0.394531	
-0.393066	
-0.393799	
-0.394592	
-0.394592	
-0.394836	
-0.39386	
-0.394348	
-0.39447	
-0.394714	
-0.395386	
-0.394165	
-0.394165	
-0.393005	
-0.395081	
-0.394287	
-0.394592	
-0.393616	
-0.394592	
-0.394531	
-0.395874	
-0.394287	
-0.394287	
-0.393921	
-0.394836	
-0.395325	
-0.395142	
-0.394958	
-0.395264	
-0.396423	
-0.396606	
-0.395935	
-0.394897	
-0.395691	
-0.396912	
-0.396423	
-0.397095	
-0.396362	
-0.396851	
-0.397034	
-0.397461	
-0.397705	
-0.396667	
-0.397461	
-0.397766	
-0.398804	
-0.399109	
-0.398193	
-0.397888	
-0.398132	
-0.398987	
-0.400452	
-0.399048	
-0.399109	
-0.397644	
-0.400269	
-0.39978	
-0.400208	
-0.399292	
-0.400146	
-0.400635	
-0.40094	
-0.399841	
-0.398682	
-0.399048	
-0.399963	
-0.399658	
-0.399414	
-0.398987	
-0.398987	
-0.399536	
-0.399414	
-0.399353	
-0.398438	
-0.398621	
-0.398804	
-0.398865	
-0.39978	
-0.399231	
-0.39917	
-0.398499	
-0.399353	
-0.399963	
-0.398804	
-0.399353	
-0.399414	
-0.399963	
-0.399841	
-0.399658	
-0.399536	
-0.399658	
-0.399902	
-0.400818	
-0.400024	
-0.399841	
-0.398804	
-0.400452	
-0.400024	
-0.400269	
-0.399353	
-0.39917	
-0.39978	
-0.39917	
-0.39917	
-0.397217	
-0.397705	
-0.39624	
-0.39679	
-0.396851	
-0.395142	
-0.395386	
-0.394409	
-0.395081	
-0.39563	
-0.394409	
-0.394226	
-0.393738	
-0.394775	
-0.394165	
-0.393921	
-0.393311	
-0.393921	
-0.394409	
-0.395447	
-0.393921	
-0.394226	
-0.39325	
-0.395203	
-0.394592	
-0.394409	
-0.394287	
-0.394836	
-0.395874	
-0.396118	
-0.395142	
-0.394714	
-0.395691	
-0.396606	
-0.396362	
-0.397461	
-0.397034	
-0.396973	
-0.396667	
-0.397827	
-0.398071	
-0.397278	
-0.3974	
-0.396912	
-0.398132	
-0.398376	
-0.397766	
-0.397461	
-0.397461	
-0.397705	
-0.399353	
-0.397278	
-0.397339	
-0.396423	
-0.399109	
-0.398254	
-0.398132	
-0.3974	
-0.398438	
-0.399475	
-0.399292	
-0.398315	
-0.397339	
-0.397949	
-0.398132	
-0.397949	
-0.39856	
-0.397888	
-0.397949	
-0.396973	
-0.397461	
-0.397217	
-0.396545	
-0.396484	
-0.396606	
-0.396667	
-0.39679	
-0.396179	
-0.396118	
-0.395874	
-0.395996	
-0.397339	
-0.395386	
-0.395691	
-0.394104	
-0.396362	
-0.395447	
-0.395447	
-0.394104	
-0.394653	
-0.395691	
-0.396057	
-0.395386	
-0.395081	
-0.394226	
-0.396118	
-0.395996	
-0.396301	
-0.395752	
-0.395874	
-0.395142	
-0.396545	
-0.395996	
-0.395325	
-0.395142	
-0.396179	
-0.396606	
-0.397339	
-0.396423	
-0.396423	
-0.395813	
-0.39624	
-0.39679	
-0.395508	
-0.395691	
-0.395386	
-0.396545	
-0.396362	
-0.395691	
-0.394775	
-0.395813	
-0.396484	
-0.39624	
-0.395874	
-0.395386	
-0.395935	
-0.396912	
-0.396484	
-0.396667	
-0.395203	
-0.396301	
-0.397095	
-0.3974	
-0.396851	
-0.395752	
-0.396667	
-0.396362	
-0.396606	
-0.397034	
-0.396179	
-0.396545	
-0.396057	
-0.397278	
-0.397339	
-0.396301	
-0.395447	
-0.395874	
-0.396606	
-0.396667	
-0.396057	
-0.394775	
-0.395325	
-0.396301	
-0.395264	
-0.394897	
-0.393982	
-0.394714	
-0.394409	
-0.394287	
-0.395203	
-0.394104	
-0.394104	
-0.39502	
-0.39447	
-0.394226	
-0.393555	
-0.394043	
-0.394653	
-0.394043	
-0.395386	
-0.394226	
-0.394348	
-0.393921	
-0.395203	
-0.394897	
-0.393677	
-0.392944	
-0.393005	
-0.394958	
-0.394836	
-0.394165	
-0.393311	
-0.395264	
-0.396423	
-0.395935	
-0.395691	
-0.394958	
-0.39563	
-0.396667	
-0.39624	
-0.395691	
-0.395142	
-0.39563	
-0.396362	
-0.39563	
-0.395203	
-0.394592	
-0.394714	
-0.395081	
-0.39502	
-0.395508	
-0.39447	
-0.394592	
-0.393677	
-0.394958	
-0.395081	
-0.393799	
-0.39325	
-0.392761	
-0.394958	
-0.394287	
-0.393555	
-0.392395	
-0.393372	
-0.393921	
-0.393982	
-0.393066	
-0.392517	
-0.392334	
-0.393799	
-0.393311	
-0.393066	
-0.3927	
-0.392761	
-0.393982	
-0.39325	
-0.393188	
-0.39209	
-0.393616	
-0.394226	
-0.394653	
-0.394897	
-0.394653	
-0.394104	
-0.394043	
-0.395203	
-0.395325	
-0.395142	
-0.394714	
-0.394836	
-0.395691	
-0.395203	
-0.395447	
-0.39447	
-0.394897	
-0.395325	
-0.394775	
-0.393921	
-0.39325	
-0.393311	
-0.393921	
-0.394592	
-0.394226	
-0.393555	
-0.393494	
-0.393921	
-0.393799	
-0.392883	
-0.392334	
-0.392212	
-0.392761	
-0.393311	
-0.393066	
-0.392212	
-0.390991	
-0.391663	
-0.391724	
-0.391663	
-0.390686	
-0.391296	
-0.391357	
-0.391968	
-0.391357	
-0.390381	
-0.390137	
-0.390808	
-0.391602	
-0.390625	
-0.389893	
-0.388794	
-0.389832	
-0.390442	
-0.390015	
-0.389526	
-0.389404	
-0.389771	
-0.390015	
-0.390564	
-0.389221	
-0.389526	
-0.388672	
-0.389709	
-0.39032	
-0.390564	
-0.389771	
-0.389343	
-0.389099	
-0.390503	
-0.389954	
-0.389893	
-0.389587	
-0.390015	
-0.390503	
-0.39032	
-0.389771	
-0.388916	
-0.39032	
-0.390991	
-0.389465	
-0.388428	
-0.388184	
-0.389771	
-0.389832	
-0.389709	
-0.389526	
-0.38916	
-0.389587	
-0.390015	
-0.389648	
-0.38916	
-0.388794	
-0.389648	
-0.389343	
-0.389038	
-0.389893	
-0.388794	
-0.38916	
-0.388306	
-0.390076	
-0.389099	
-0.389465	
-0.388733	
-0.389771	
-0.391174	
-0.391785	
-0.391479	
-0.390991	
-0.392883	
-0.393677	
-0.3927	
-0.392395	
-0.392639	
-0.393738	
-0.394104	
-0.394348	
-0.394226	
-0.39386	
-0.39502	
-0.394226	
-0.394958	
-0.393616	
-0.394165	
-0.393677	
-0.394592	
-0.394348	
-0.39502	
-0.394043	
-0.394104	
-0.392761	
-0.395203	
-0.393188	
-0.393433	
-0.391846	
-0.393372	
-0.393921	
-0.393311	
-0.392517	
-0.390991	
-0.392029	
-0.392395	
-0.391235	
-0.391113	
-0.390869	
-0.391418	
-0.391907	
-0.391602	
-0.390869	
-0.39093	
-0.391968	
-0.391541	
-0.391907	
-0.391296	
-0.391113	
-0.391602	
-0.392151	
-0.392029	
-0.391174	
-0.391113	
-0.391968	
-0.391357	
-0.392883	
-0.390442	
-0.391357	
-0.389709	
-0.391846	
-0.392639	
-0.393127	
-0.39209	
-0.391418	
-0.39093	
-0.393127	
-0.392639	
-0.392273	
-0.392395	
-0.393127	
-0.394104	
-0.393799	
-0.392944	
-0.392822	
-0.393066	
-0.393677	
-0.394226	
-0.393616	
-0.393433	
-0.393127	
-0.394287	
-0.394287	
-0.394043	
-0.393982	
-0.395142	
-0.394714	
-0.395752	
-0.393066	
-0.394287	
-0.393433	
-0.395081	
-0.395203	
-0.39502	
-0.394592	
-0.394836	
-0.394043	
-0.395325	
-0.394287	
-0.394653	
-0.393494	
-0.394165	
-0.394592	
-0.394653	
-0.393494	
-0.393311	
-0.392822	
-0.394104	
-0.394226	
-0.39386	
-0.393738	
-0.393005	
-0.394409	
-0.394104	
-0.394287	
-0.394165	
-0.394165	
-0.394287	
-0.394714	
-0.393982	
-0.393799	
-0.393921	
-0.394226	
-0.395142	
-0.394226	
-0.393616	
-0.394287	
-0.394226	
-0.394592	
-0.393372	
-0.393738	
-0.392883	
-0.393372	
-0.394409	
-0.394226	
-0.393372	
-0.393738	
-0.393494	
-0.394592	
-0.394226	
-0.393982	
-0.393066	
-0.393738	
-0.393921	
-0.394714	
-0.393921	
-0.394043	
-0.393188	
-0.394348	
-0.394531	
-0.394287	
-0.39447	
-0.394775	
-0.395264	
-0.396057	
-0.395935	
-0.395691	
-0.394348	
-0.396057	
-0.39624	
-0.396667	
-0.395935	
-0.39502	
-0.394653	
-0.396545	
-0.396362	
-0.395935	
-0.39563	
-0.395386	
-0.396301	
-0.394897	
-0.395508	
-0.394714	
-0.395447	
-0.396301	
-0.39679	
-0.395935	
-0.395813	
-0.394775	
-0.395386	
-0.395081	
-0.394958	
-0.394653	
-0.394104	
-0.394348	
-0.394531	
-0.393738	
-0.393433	
-0.393188	
-0.393921	
-0.394104	
-0.395142	
-0.394043	
-0.394714	
-0.39325	
-0.395264	
-0.394775	
-0.394897	
-0.394287	
-0.395081	
-0.395996	
-0.394409	
-0.395508	
-0.39447	
-0.395386	
-0.396484	
-0.395874	
-0.395813	
-0.395935	
-0.396362	
-0.39679	
-0.396118	
-0.396423	
-0.396118	
-0.396606	
-0.396423	
-0.397644	
-0.396362	
-0.396301	
-0.396057	
-0.396851	
-0.397034	
-0.396484	
-0.39624	
-0.396057	
-0.396484	
-0.396912	
-0.395996	
-0.395752	
-0.396301	
-0.395508	
-0.396179	
-0.394958	
-0.395325	
-0.394287	
-0.395142	
-0.396484	
-0.395691	
-0.395325	
-0.394348	
-0.395142	
-0.395569	
-0.394897	
-0.396423	
-0.395447	
-0.395752	
-0.395203	
-0.395752	
-0.395752	
-0.395142	
-0.39563	
-0.395874	
-0.396484	
-0.39502	
-0.395691	
-0.395691	
-0.396545	
-0.397217	
-0.39679	
-0.396851	
-0.397095	
-0.397156	
-0.397827	
-0.396912	
-0.397461	
-0.397217	
-0.397644	
-0.398315	
-0.397888	
-0.397827	
-0.397156	
-0.398743	
-0.398438	
-0.398804	
-0.398254	
-0.398499	
-0.398499	
-0.399353	
-0.399353	
-0.398926	
-0.398438	
-0.399902	
-0.39978	
-0.400696	
-0.399719	
-0.40033	
-0.398987	
-0.400696	
-0.401184	
-0.399658	
-0.399414	
-0.398987	
-0.399841	
	
