E:\DOCUMENTS AND SETTINGS\JPOTAS\MEUS DOCUMENTOS\UFRJ\RSCI-BM 12 WK SERIES\070718-RSCI-BM-03\RSCI-BM-03-LEMG\070718-RSCI-BM-03-LEMG-0000.ACQ
0.025000 msec/sample
1 channel
Analog input
Volts
CH1	
2000	
-0.406291	
-0.405782	
-0.40507	
-0.405477	
-0.406698	
-0.405172	
-0.40507	
-0.404867	
-0.403442	
-0.40507	
-0.404765	
-0.404968	
-0.405273	
-0.403849	
-0.404154	
-0.403748	
-0.403849	
-0.405172	
-0.403951	
-0.404256	
-0.403748	
-0.403137	
-0.404663	
-0.404968	
-0.404867	
-0.40507	
-0.405172	
-0.405172	
-0.404968	
-0.404358	
-0.406596	
-0.404867	
-0.404867	
-0.40507	
-0.403951	
-0.404256	
-0.404561	
-0.405172	
-0.404256	
-0.404561	
-0.405273	
-0.404765	
-0.404358	
-0.406799	
-0.405172	
-0.405273	
-0.404867	
-0.405273	
-0.40507	
-0.405375	
-0.40507	
-0.404154	
-0.404663	
-0.404053	
-0.40507	
-0.404256	
-0.404867	
-0.404053	
-0.403951	
-0.403137	
-0.404867	
-0.403544	
-0.403035	
-0.402425	
-0.402629	
-0.401408	
-0.401917	
-0.402425	
-0.402934	
-0.403849	
-0.404154	
-0.403748	
-0.403544	
-0.405477	
-0.404663	
-0.40568	
-0.405273	
-0.405579	
-0.405273	
-0.405375	
-0.404968	
-0.406698	
-0.404968	
-0.404358	
-0.404867	
-0.404765	
-0.406799	
-0.405172	
-0.405477	
-0.405172	
-0.404867	
-0.403849	
-0.403646	
-0.403748	
-0.40568	
-0.403341	
-0.403137	
-0.40273	
-0.401815	
-0.403544	
-0.401408	
-0.40151	
-0.401611	
-0.40151	
-0.400391	
-0.400085	
-0.399373	
-0.401204	
-0.398865	
-0.39856	
-0.398153	
-0.397644	
-0.398356	
-0.397847	
-0.397135	
-0.397135	
-0.397339	
-0.39683	
-0.396729	
-0.396118	
-0.396729	
-0.396322	
-0.39561	
-0.395203	
-0.395711	
-0.396016	
-0.395304	
-0.396016	
-0.395915	
-0.396322	
-0.396016	
-0.39622	
-0.396118	
-0.396016	
-0.396322	
-0.39683	
-0.394796	
-0.395915	
-0.396627	
-0.396729	
-0.397237	
-0.397746	
-0.396322	
-0.396118	
-0.39561	
-0.394491	
-0.394999	
-0.394999	
-0.394796	
-0.39327	
-0.395203	
-0.394389	
-0.394389	
-0.394084	
-0.394694	
-0.394185	
-0.394389	
-0.394287	
-0.394592	
-0.393778	
-0.393575	
-0.392863	
-0.392863	
-0.394084	
-0.393168	
-0.39266	
-0.39327	
-0.39266	
-0.392354	
-0.391541	
-0.392354	
-0.39327	
-0.391947	
-0.392151	
-0.391235	
-0.391744	
-0.393372	
-0.392151	
-0.392049	
-0.392965	
-0.391744	
-0.39266	
-0.39327	
-0.393677	
-0.393473	
-0.392761	
-0.393066	
-0.391947	
-0.39266	
-0.39388	
-0.393066	
-0.393168	
-0.394185	
-0.393677	
-0.392965	
-0.393066	
-0.393677	
-0.245565	
0.574341	
0.644023	
0.619812	
0.595296	
0.573018	
0.291239	
-0.462443	
-0.553182	
-0.54891	
-0.534261	
-0.521037	
-0.510559	
-0.502116	
-0.495707	
-0.491638	
-0.484823	
-0.479736	
-0.474955	
-0.471395	
-0.468648	
-0.465597	
-0.462748	
-0.460409	
-0.458171	
-0.456746	
-0.455933	
-0.451965	
-0.449727	
-0.447388	
-0.443726	
-0.443624	
-0.441996	
-0.440165	
-0.438334	
-0.437215	
-0.435588	
-0.433553	
-0.433044	
-0.431925	
-0.429891	
-0.428263	
-0.42511	
-0.425517	
-0.424906	
-0.424805	
-0.423584	
-0.421549	
-0.421041	
-0.420431	
-0.420939	
-0.419515	
-0.418396	
-0.416565	
-0.414327	
-0.415344	
-0.414836	
-0.414632	
-0.413818	
-0.413411	
-0.412598	
-0.413208	
-0.41331	
-0.414225	
-0.413717	
-0.41097	
-0.410665	
-0.410563	
-0.410156	
-0.410868	
-0.41097	
-0.41097	
-0.409749	
-0.409648	
-0.410868	
-0.412292	
-0.410055	
-0.408529	
-0.408223	
-0.405986	
-0.405579	
-0.406698	
-0.406698	
-0.407104	
-0.407104	
-0.406698	
-0.406291	
-0.40802	
-0.406494	
-0.404663	
-0.404968	
-0.40273	
-0.401713	
-0.403544	
-0.403442	
-0.403035	
-0.40273	
-0.402323	
-0.402425	
-0.403035	
-0.402527	
-0.401306	
-0.400696	
-0.399068	
-0.399272	
-0.401103	
-0.400187	
-0.400289	
-0.401001	
-0.400696	
-0.400899	
-0.402018	
-0.403341	
-0.400391	
-0.400492	
-0.399068	
-0.399882	
-0.400798	
-0.400798	
-0.401001	
-0.400289	
-0.400798	
-0.401204	
-0.401408	
-0.401815	
-0.401001	
-0.400391	
-0.399068	
-0.400696	
-0.401611	
-0.40212	
-0.403137	
-0.40273	
-0.40273	
-0.403341	
-0.403951	
-0.404867	
-0.403849	
-0.403137	
-0.402222	
-0.401408	
-0.403341	
-0.402934	
-0.403137	
-0.403544	
-0.403442	
-0.403849	
-0.403442	
-0.40507	
-0.404968	
-0.403544	
-0.403035	
-0.401815	
-0.403137	
-0.403748	
-0.403239	
-0.403341	
-0.403646	
-0.402934	
-0.40212	
-0.403748	
-0.403646	
-0.40212	
-0.401713	
-0.399272	
-0.401103	
-0.401204	
-0.401408	
-0.401713	
-0.401001	
-0.401611	
-0.401815	
-0.402018	
-0.403341	
-0.402323	
-0.401713	
-0.401204	
-0.399068	
-0.400187	
-0.401001	
-0.400594	
-0.400899	
-0.400594	
-0.400391	
-0.400391	
-0.401103	
-0.402222	
-0.401917	
-0.401917	
-0.401713	
-0.400085	
-0.400187	
-0.401611	
-0.401001	
-0.401611	
-0.401611	
-0.401306	
-0.401611	
-0.403341	
-0.404358	
-0.404154	
-0.402832	
-0.402425	
-0.401306	
-0.401103	
-0.402323	
-0.401815	
-0.400696	
-0.40212	
-0.401103	
-0.400289	
-0.401408	
-0.401611	
-0.400492	
-0.398865	
-0.397135	
-0.398865	
-0.397034	
-0.398966	
-0.400085	
-0.399577	
-0.39917	
-0.399272	
-0.399373	
-0.400798	
-0.399679	
-0.400492	
-0.399577	
-0.398254	
-0.400187	
-0.399882	
-0.400594	
-0.401408	
-0.400798	
-0.400899	
-0.401001	
-0.402018	
-0.403849	
-0.403646	
-0.402527	
-0.40273	
-0.401713	
-0.403239	
-0.404663	
-0.404765	
-0.404663	
-0.404867	
-0.405375	
-0.405375	
-0.406392	
-0.406698	
-0.40802	
-0.405884	
-0.405273	
-0.406291	
-0.405782	
-0.407104	
-0.407308	
-0.40741	
-0.407511	
-0.408529	
-0.408122	
-0.409139	
-0.407715	
-0.409139	
-0.408223	
-0.405986	
-0.407918	
-0.407715	
-0.407308	
-0.407613	
-0.407613	
-0.40741	
-0.40741	
-0.408122	
-0.409749	
-0.407104	
-0.406392	
-0.406392	
-0.404561	
-0.407308	
-0.407206	
-0.407817	
-0.408427	
-0.408427	
-0.408529	
-0.408223	
-0.409037	
-0.410665	
-0.409444	
-0.409139	
-0.408122	
-0.407817	
-0.407104	
-0.408936	
-0.408936	
-0.409648	
-0.409241	
-0.409139	
-0.409444	
-0.410156	
-0.41036	
-0.411174	
-0.408936	
-0.409851	
-0.410665	
-0.408325	
-0.410055	
-0.410563	
-0.410868	
-0.410868	
-0.41097	
-0.41097	
-0.412089	
-0.410461	
-0.411275	
-0.408936	
-0.40568	
-0.409851	
-0.409444	
-0.409241	
-0.409342	
-0.409139	
-0.409546	
-0.410055	
-0.41036	
-0.41158	
-0.409648	
-0.409444	
-0.408427	
-0.408732	
-0.409241	
-0.409444	
-0.408936	
-0.408529	
-0.408325	
-0.407206	
-0.408122	
-0.408325	
-0.406494	
-0.407613	
-0.406291	
-0.404867	
-0.406494	
-0.404561	
-0.407003	
-0.406189	
-0.405986	
-0.405579	
-0.40507	
-0.405477	
-0.407003	
-0.405579	
-0.406799	
-0.40446	
-0.401815	
-0.404256	
-0.404358	
-0.404561	
-0.404154	
-0.404968	
-0.404765	
-0.405172	
-0.405273	
-0.407308	
-0.405477	
-0.40568	
-0.406087	
-0.404256	
-0.405782	
-0.406392	
-0.407206	
-0.407003	
-0.407206	
-0.407308	
-0.407918	
-0.408834	
-0.409648	
-0.409444	
-0.408325	
-0.408122	
-0.409444	
-0.408427	
-0.409546	
-0.409444	
-0.410258	
-0.411072	
-0.411479	
-0.411174	
-0.412496	
-0.41158	
-0.413106	
-0.411784	
-0.409851	
-0.411072	
-0.41097	
-0.411479	
-0.41097	
-0.411072	
-0.411072	
-0.411275	
-0.411275	
-0.412496	
-0.410258	
-0.409851	
-0.409139	
-0.406901	
-0.408732	
-0.409546	
-0.409139	
-0.408936	
-0.409444	
-0.409953	
-0.410055	
-0.410563	
-0.413513	
-0.410258	
-0.409444	
-0.408834	
-0.407817	
-0.409037	
-0.409749	
-0.410868	
-0.41036	
-0.41036	
-0.411275	
-0.410868	
-0.411174	
-0.412699	
-0.412191	
-0.411275	
-0.411275	
-0.411886	
-0.411275	
-0.412496	
-0.412699	
-0.412801	
-0.412801	
-0.412496	
-0.413106	
-0.41331	
-0.412801	
-0.413411	
-0.41158	
-0.410868	
-0.411072	
-0.409648	
-0.411784	
-0.411174	
-0.41158	
-0.411377	
-0.411072	
-0.411174	
-0.412801	
-0.410461	
-0.411682	
-0.410461	
-0.408223	
-0.410055	
-0.41036	
-0.411072	
-0.410563	
-0.410258	
-0.409648	
-0.409241	
-0.409546	
-0.411275	
-0.408325	
-0.408223	
-0.407104	
-0.403951	
-0.406901	
-0.407308	
-0.407206	
-0.406799	
-0.406494	
-0.407104	
-0.406494	
-0.406596	
-0.408122	
-0.406494	
-0.405986	
-0.404663	
-0.403951	
-0.405172	
-0.405477	
-0.404968	
-0.404867	
-0.405884	
-0.405986	
-0.405375	
-0.406087	
-0.406901	
-0.406799	
-0.405884	
-0.405375	
-0.406291	
-0.406087	
-0.407003	
-0.406392	
-0.406189	
-0.406596	
-0.406392	
-0.406799	
-0.407715	
-0.405884	
-0.406698	
-0.405782	
-0.403544	
-0.405579	
-0.404663	
-0.406189	
-0.405884	
-0.406189	
-0.406698	
-0.406494	
-0.406799	
-0.409241	
-0.406596	
-0.407511	
-0.405782	
-0.402934	
-0.405477	
-0.404053	
-0.406494	
-0.405375	
-0.405375	
-0.405579	
-0.404867	
-0.40568	
-0.40802	
-0.404663	
-0.40507	
-0.403239	
-0.401001	
-0.402527	
-0.401713	
-0.403951	
-0.404968	
-0.40507	
-0.405273	
-0.405375	
-0.406087	
-0.408223	
-0.406087	
-0.406799	
-0.40568	
-0.405986	
-0.406799	
-0.406189	
-0.406698	
-0.406494	
-0.405579	
-0.406698	
-0.405986	
-0.406901	
-0.408122	
-0.407003	
-0.407104	
-0.405273	
-0.406087	
-0.404968	
-0.405172	
-0.40507	
-0.404968	
-0.404561	
-0.404358	
-0.404867	
-0.405273	
-0.404154	
-0.402934	
-0.403137	
-0.401917	
-0.401408	
-0.401815	
-0.401408	
-0.39978	
-0.399984	
-0.399882	
-0.399882	
-0.399882	
-0.399882	
-0.399068	
-0.39917	
-0.398356	
-0.396118	
-0.398051	
-0.397847	
-0.397644	
-0.397339	
-0.397034	
-0.397441	
-0.397237	
-0.397237	
-0.398763	
-0.396322	
-0.397644	
-0.397746	
-0.395101	
-0.397135	
-0.39622	
-0.397441	
-0.397949	
-0.396932	
-0.397339	
-0.397542	
-0.397746	
-0.398458	
-0.397339	
-0.398356	
-0.397542	
-0.395915	
-0.397237	
-0.395406	
-0.396525	
-0.39622	
-0.395915	
-0.395406	
-0.39622	
-0.396423	
-0.396322	
-0.395406	
-0.396322	
-0.393575	
-0.39327	
-0.394999	
-0.393982	
-0.395304	
-0.394694	
-0.394999	
-0.395101	
-0.394287	
-0.39561	
-0.395508	
-0.393982	
-0.394694	
-0.391947	
-0.392558	
-0.392965	
-0.393473	
-0.392761	
-0.393575	
-0.392456	
-0.392761	
-0.393066	
-0.394084	
-0.394389	
-0.393575	
-0.392761	
-0.39266	
-0.394185	
-0.393168	
-0.393473	
-0.393473	
-0.39388	
-0.393677	
-0.393778	
-0.394389	
-0.39388	
-0.393982	
-0.395711	
-0.39388	
-0.393778	
-0.394287	
-0.392354	
-0.394389	
-0.394694	
-0.395203	
-0.39561	
-0.39622	
-0.397441	
-0.397949	
-0.396729	
-0.398661	
-0.396118	
-0.394694	
-0.396118	
-0.395915	
-0.396627	
-0.396932	
-0.397135	
-0.397847	
-0.397949	
-0.39856	
-0.398865	
-0.397949	
-0.397441	
-0.39622	
-0.397034	
-0.398254	
-0.39856	
-0.398763	
-0.398458	
-0.398153	
-0.398763	
-0.398661	
-0.400085	
-0.398763	
-0.398153	
-0.396932	
-0.394796	
-0.396932	
-0.39622	
-0.396932	
-0.396525	
-0.39561	
-0.395304	
-0.395406	
-0.395508	
-0.396423	
-0.394287	
-0.395101	
-0.394084	
-0.391032	
-0.393168	
-0.392354	
-0.39327	
-0.392761	
-0.392354	
-0.392151	
-0.391846	
-0.391642	
-0.394185	
-0.392049	
-0.392049	
-0.39093	
-0.388387	
-0.391947	
-0.39093	
-0.391947	
-0.392558	
-0.392558	
-0.39266	
-0.391846	
-0.392354	
-0.394796	
-0.393473	
-0.394592	
-0.392761	
-0.392761	
-0.393168	
-0.391744	
-0.393372	
-0.39327	
-0.393677	
-0.394084	
-0.392965	
-0.393168	
-0.392253	
-0.392456	
-0.39388	
-0.392253	
-0.393473	
-0.392965	
-0.391134	
-0.39266	
-0.392151	
-0.392049	
-0.391337	
-0.391642	
-0.39266	
-0.391947	
-0.391032	
-0.392253	
-0.388896	
-0.389913	
-0.389709	
-0.390218	
-0.391032	
-0.390015	
-0.390015	
-0.390116	
-0.390116	
-0.392049	
-0.389811	
-0.390828	
-0.390727	
-0.387573	
-0.390625	
-0.390218	
-0.390828	
-0.391337	
-0.391032	
-0.391235	
-0.391541	
-0.391541	
-0.393677	
-0.391541	
-0.391947	
-0.390625	
-0.389709	
-0.391642	
-0.391337	
-0.391642	
-0.392151	
-0.392049	
-0.392965	
-0.394185	
-0.394897	
-0.395711	
-0.394796	
-0.395813	
-0.394084	
-0.394084	
-0.395101	
-0.394694	
-0.394999	
-0.395304	
-0.396118	
-0.395203	
-0.396016	
-0.39683	
-0.39683	
-0.395915	
-0.396423	
-0.395203	
-0.396525	
-0.396932	
-0.394796	
-0.396423	
-0.397034	
-0.396525	
-0.396423	
-0.396423	
-0.397237	
-0.396322	
-0.395915	
-0.396627	
-0.393982	
-0.395508	
-0.395406	
-0.393168	
-0.395508	
-0.395101	
-0.395508	
-0.395304	
-0.395813	
-0.397441	
-0.39561	
-0.39622	
-0.396322	
-0.392558	
-0.395711	
-0.39561	
-0.395203	
-0.39561	
-0.39561	
-0.395101	
-0.395203	
-0.395711	
-0.397339	
-0.394694	
-0.39561	
-0.395711	
-0.394694	
-0.396322	
-0.396525	
-0.396525	
-0.397135	
-0.397034	
-0.396729	
-0.397237	
-0.398458	
-0.398458	
-0.396932	
-0.398356	
-0.397949	
-0.39683	
-0.398966	
-0.398356	
-0.398356	
-0.398051	
-0.398051	
-0.397034	
-0.397441	
-0.397135	
-0.397949	
-0.395101	
-0.397441	
-0.395406	
-0.393473	
-0.394491	
-0.393066	
-0.395101	
-0.396118	
-0.395101	
-0.395304	
-0.394999	
-0.395711	
-0.396729	
-0.395304	
-0.395915	
-0.39327	
-0.393575	
-0.396016	
-0.395101	
-0.396118	
-0.396423	
-0.397339	
-0.396627	
-0.396729	
-0.398153	
-0.398966	
-0.39856	
-0.399272	
-0.396729	
-0.397542	
-0.399679	
-0.400085	
-0.400696	
-0.400899	
-0.401408	
-0.401815	
-0.401713	
-0.403442	
-0.403442	
-0.402934	
-0.402934	
-0.401408	
-0.401103	
-0.402629	
-0.403341	
-0.403646	
-0.403646	
-0.404256	
-0.403646	
-0.403646	
-0.404968	
-0.406189	
-0.405172	
-0.40446	
-0.404154	
-0.403646	
-0.404765	
-0.404968	
-0.404663	
-0.404358	
-0.404053	
-0.404561	
-0.405579	
-0.40446	
-0.40568	
-0.404256	
-0.403544	
-0.403035	
-0.403137	
-0.404053	
-0.405172	
-0.405273	
-0.404968	
-0.405375	
-0.406087	
-0.406799	
-0.405884	
-0.406596	
-0.406799	
-0.40446	
-0.405579	
-0.405884	
-0.404765	
-0.406291	
-0.406698	
-0.406189	
-0.406087	
-0.407206	
-0.40863	
-0.407206	
-0.407104	
-0.407918	
-0.407511	
-0.407104	
-0.407206	
-0.405986	
-0.408122	
-0.407817	
-0.40802	
-0.407817	
-0.409037	
-0.409444	
-0.409037	
-0.408427	
-0.408732	
-0.407308	
-0.407104	
-0.406596	
-0.406087	
-0.407511	
-0.407308	
-0.40741	
-0.407308	
-0.407613	
-0.408529	
-0.408325	
-0.406799	
-0.408427	
-0.407104	
-0.405884	
-0.406901	
-0.407003	
-0.407104	
-0.406799	
-0.406799	
-0.406189	
-0.404968	
-0.405782	
-0.405782	
-0.404968	
-0.404765	
-0.404053	
-0.403544	
-0.40507	
-0.404053	
-0.404256	
-0.404256	
-0.403646	
-0.403646	
-0.403951	
-0.403748	
-0.404663	
-0.403341	
-0.403341	
-0.403137	
-0.40151	
-0.40273	
-0.402425	
-0.402934	
-0.402934	
-0.403341	
-0.403239	
-0.403951	
-0.403646	
-0.404358	
-0.404256	
-0.402425	
-0.403849	
-0.402527	
-0.404358	
-0.404765	
-0.405477	
-0.405782	
-0.405884	
-0.406189	
-0.408122	
-0.407003	
-0.407104	
-0.406596	
-0.405579	
-0.407308	
-0.407308	
-0.407308	
-0.408325	
-0.408732	
-0.408427	
-0.409241	
-0.410156	
-0.411987	
-0.410055	
-0.410258	
-0.410767	
-0.410258	
-0.410461	
-0.409851	
-0.409139	
-0.409546	
-0.409241	
-0.409139	
-0.409749	
-0.410665	
-0.410055	
-0.408529	
-0.408325	
-0.409139	
-0.40802	
-0.407104	
-0.408427	
-0.406087	
-0.408427	
-0.408732	
-0.407817	
-0.408325	
-0.409648	
-0.409037	
-0.410156	
-0.40863	
-0.409342	
-0.40802	
-0.406189	
-0.408223	
-0.406392	
-0.409241	
-0.409546	
-0.409546	
-0.409851	
-0.410258	
-0.409749	
-0.41158	
-0.410461	
-0.409851	
-0.409749	
-0.409953	
-0.41036	
-0.409342	
-0.410868	
-0.411479	
-0.411174	
-0.411377	
-0.413106	
-0.411479	
-0.412191	
-0.410767	
-0.409139	
-0.410055	
-0.41036	
-0.410461	
-0.408427	
-0.409953	
-0.409953	
-0.409648	
-0.410055	
-0.41158	
-0.409648	
-0.410156	
-0.409749	
-0.409546	
-0.408834	
-0.409342	
-0.408834	
-0.408834	
-0.409444	
-0.408529	
-0.408325	
-0.407817	
-0.409546	
-0.40802	
-0.406189	
-0.406189	
-0.407308	
-0.405477	
-0.405986	
-0.406189	
-0.404968	
-0.405884	
-0.405579	
-0.405782	
-0.40507	
-0.405172	
-0.405986	
-0.40446	
-0.40446	
-0.405375	
-0.402425	
-0.403748	
-0.403748	
-0.403341	
-0.404358	
-0.403544	
-0.403951	
-0.40507	
-0.404256	
-0.406189	
-0.404561	
-0.403239	
-0.406799	
-0.404053	
-0.405273	
-0.404765	
-0.404663	
-0.405477	
-0.404968	
-0.405273	
-0.406494	
-0.404867	
-0.405579	
-0.404358	
-0.404867	
-0.405375	
-0.40446	
-0.404968	
-0.404765	
-0.404358	
-0.40507	
-0.405782	
-0.404867	
-0.406087	
-0.406291	
-0.406189	
-0.40446	
-0.405375	
-0.405579	
-0.404867	
-0.405172	
-0.404765	
-0.404053	
-0.404154	
-0.404561	
-0.404256	
-0.404358	
-0.40446	
-0.403646	
-0.402425	
-0.402832	
-0.402018	
-0.40212	
-0.40273	
-0.402629	
-0.402832	
-0.403951	
-0.404561	
-0.405172	
-0.404561	
-0.406087	
-0.405172	
-0.404358	
-0.405477	
-0.404561	
-0.40568	
-0.405986	
-0.404867	
-0.405579	
-0.404663	
-0.405477	
-0.406799	
-0.405782	
-0.406494	
-0.405172	
-0.404154	
-0.405477	
-0.402323	
-0.404256	
-0.404256	
-0.403544	
-0.403137	
-0.403035	
-0.403646	
-0.405172	
-0.403544	
-0.403137	
-0.400798	
-0.39917	
-0.401815	
-0.400594	
-0.400085	
-0.39917	
-0.398966	
-0.399272	
-0.39856	
-0.398458	
-0.400085	
-0.399577	
-0.397746	
-0.396932	
-0.396525	
-0.397034	
-0.397542	
-0.396932	
-0.396016	
-0.395101	
-0.396118	
-0.395711	
-0.395813	
-0.396525	
-0.397339	
-0.394999	
-0.395203	
-0.395711	
-0.395508	
-0.396016	
-0.395711	
-0.396016	
-0.394592	
-0.396525	
-0.395508	
-0.39622	
-0.396932	
-0.396729	
-0.396322	
-0.396322	
-0.39622	
-0.39683	
-0.395711	
-0.396016	
-0.394796	
-0.39388	
-0.394694	
-0.394491	
-0.394796	
-0.394999	
-0.394796	
-0.393778	
-0.392965	
-0.393473	
-0.39388	
-0.393677	
-0.393473	
-0.393778	
-0.393982	
-0.393677	
-0.393677	
-0.39327	
-0.392965	
-0.393168	
-0.39266	
-0.391541	
-0.391846	
-0.392151	
-0.391846	
-0.391846	
-0.391642	
-0.391642	
-0.391439	
-0.391846	
-0.39266	
-0.391642	
-0.391337	
-0.391744	
-0.39032	
-0.392253	
-0.391947	
-0.392761	
-0.392558	
-0.391642	
-0.39266	
-0.392354	
-0.39266	
-0.39388	
-0.394084	
-0.392354	
-0.392965	
-0.39266	
-0.392354	
-0.392863	
-0.393168	
-0.392761	
-0.391744	
-0.394287	
-0.393982	
-0.395406	
-0.395508	
-0.397034	
-0.395711	
-0.394796	
-0.395711	
-0.395101	
-0.395203	
-0.394999	
-0.395508	
-0.395508	
-0.396423	
-0.395813	
-0.397441	
-0.396423	
-0.397542	
-0.396016	
-0.394694	
-0.396322	
-0.397339	
-0.397339	
-0.396729	
-0.396932	
-0.397237	
-0.397542	
-0.397237	
-0.398458	
-0.397644	
-0.398051	
-0.396016	
-0.394897	
-0.39561	
-0.395508	
-0.395711	
-0.395813	
-0.394796	
-0.394084	
-0.394287	
-0.393982	
-0.394287	
-0.393778	
-0.394694	
-0.392558	
-0.392558	
-0.392456	
-0.391846	
-0.392253	
-0.392049	
-0.391337	
-0.391439	
-0.391032	
-0.391439	
-0.390523	
-0.390422	
-0.391032	
-0.39032	
-0.39093	
-0.390422	
-0.390422	
-0.391134	
-0.391744	
-0.390523	
-0.391134	
-0.391439	
-0.392049	
-0.391235	
-0.391947	
-0.392456	
-0.391134	
-0.39266	
-0.392354	
-0.392151	
-0.392049	
-0.392354	
-0.390727	
-0.39266	
-0.392965	
-0.393473	
-0.391235	
-0.392151	
-0.391744	
-0.39093	
-0.391947	
-0.392761	
-0.391846	
-0.392049	
-0.392151	
-0.389404	
-0.391337	
-0.390727	
-0.391439	
-0.391134	
-0.390828	
-0.389608	
-0.390116	
-0.389913	
-0.39032	
-0.389506	
-0.389608	
-0.389709	
-0.388997	
-0.389404	
-0.389099	
-0.389201	
-0.389404	
-0.391541	
-0.388997	
-0.390218	
-0.390015	
-0.388489	
-0.390015	
-0.389913	
-0.389913	
-0.39032	
-0.390828	
-0.390727	
-0.390218	
-0.391134	
-0.39266	
-0.389913	
-0.390116	
-0.391337	
-0.389913	
-0.391032	
-0.391032	
-0.390727	
-0.391947	
-0.393168	
-0.394084	
-0.393168	
-0.393575	
-0.395203	
-0.393778	
-0.394287	
-0.394694	
-0.394287	
-0.394694	
-0.394897	
-0.39388	
-0.394491	
-0.395101	
-0.396118	
-0.395813	
-0.396016	
-0.395406	
-0.39388	
-0.39622	
-0.397237	
-0.395508	
-0.396016	
-0.395711	
-0.394999	
-0.395915	
-0.39622	
-0.397847	
-0.396729	
-0.396016	
-0.39561	
-0.394389	
-0.396016	
-0.39622	
-0.395101	
-0.395406	
-0.395101	
-0.393778	
-0.395203	
-0.395508	
-0.397339	
-0.395508	
-0.396118	
-0.395508	
-0.393677	
-0.395915	
-0.395813	
-0.395813	
-0.395813	
-0.395406	
-0.39561	
-0.395203	
-0.395915	
-0.397237	
-0.394999	
-0.396118	
-0.395711	
-0.394084	
-0.396627	
-0.395304	
-0.396525	
-0.396118	
-0.397034	
-0.397542	
-0.397441	
-0.397135	
-0.398763	
-0.397034	
-0.397847	
-0.397847	
-0.397746	
-0.399577	
-0.397441	
-0.398254	
-0.398661	
-0.397135	
-0.398661	
-0.398153	
-0.397441	
-0.397949	
-0.396729	
-0.398051	
-0.396016	
-0.395508	
-0.397034	
-0.394084	
-0.39561	
-0.395101	
-0.392761	
-0.395406	
-0.395406	
-0.395508	
-0.395508	
-0.395508	
-0.396627	
-0.394491	
-0.395101	
-0.396627	
-0.39561	
-0.396932	
-0.396016	
-0.39561	
-0.397542	
-0.397237	
-0.397542	
-0.397034	
-0.39856	
-0.39978	
-0.398865	
-0.399068	
-0.401204	
-0.400187	
-0.400696	
-0.400492	
-0.399882	
-0.402222	
-0.402323	
-0.402934	
-0.402018	
-0.402222	
-0.402323	
-0.40273	
-0.403442	
-0.403951	
-0.403137	
-0.404053	
-0.404154	
-0.40273	
-0.404154	
-0.404561	
-0.405884	
-0.405477	
-0.40568	
-0.404867	
-0.404053	
-0.405375	
-0.40568	
-0.405477	
-0.405782	
-0.405986	
-0.403748	
-0.404663	
-0.405172	
-0.407003	
-0.404968	
-0.406189	
-0.404561	
-0.40273	
-0.404663	
-0.403849	
-0.404867	
-0.405579	
-0.405986	
-0.404968	
-0.406087	
-0.406698	
-0.407918	
-0.406087	
-0.408325	
-0.407206	
-0.404358	
-0.406901	
-0.406494	
-0.407206	
-0.406596	
-0.406494	
-0.406596	
-0.407003	
-0.407817	
-0.409139	
-0.408529	
-0.409241	
-0.40741	
-0.407817	
-0.408427	
-0.40802	
-0.408529	
-0.409139	
-0.408834	
-0.409037	
-0.409037	
-0.409342	
-0.409953	
-0.409953	
-0.411072	
-0.407613	
-0.408122	
-0.408427	
-0.407613	
-0.408325	
-0.40802	
-0.407613	
-0.408223	
-0.409241	
-0.408529	
-0.408834	
-0.408529	
-0.409037	
-0.407511	
-0.407817	
-0.407817	
-0.407918	
-0.408936	
-0.408427	
-0.406901	
-0.407104	
-0.407206	
-0.406596	
-0.406494	
-0.405884	
-0.405782	
-0.404867	
-0.405782	
-0.405884	
-0.405172	
-0.405273	
-0.40507	
-0.404663	
-0.404358	
-0.40446	
-0.404561	
-0.404867	
-0.40446	
-0.404765	
-0.403951	
-0.40446	
-0.403646	
-0.40273	
-0.404358	
-0.403646	
-0.402323	
-0.403442	
-0.403849	
-0.405172	
-0.404154	
-0.40446	
-0.404358	
-0.404358	
-0.405782	
-0.406596	
-0.405477	
-0.405273	
-0.405782	
-0.404765	
-0.406799	
-0.406799	
-0.407918	
-0.407308	
-0.408223	
-0.407206	
-0.407003	
-0.407817	
-0.409037	
-0.409037	
-0.408936	
-0.409037	
-0.407817	
-0.410055	
-0.410461	
-0.411886	
-0.41097	
-0.412598	
-0.410767	
-0.410156	
-0.411377	
-0.411377	
-0.410563	
-0.409546	
-0.409749	
-0.409444	
-0.410461	
-0.409749	
-0.411377	
-0.410055	
-0.410156	
-0.408223	
-0.406392	
-0.408325	
-0.409648	
-0.40863	
-0.407817	
-0.408122	
-0.408529	
-0.409342	
-0.409139	
-0.410665	
-0.409037	
-0.409851	
-0.40863	
-0.407308	
-0.409037	
-0.409546	
-0.409037	
-0.409037	
-0.409648	
-0.409546	
-0.410055	
-0.41036	
-0.41097	
-0.411275	
-0.412292	
-0.410461	
-0.41097	
-0.411479	
-0.41158	
-0.411479	
-0.411987	
-0.411987	
-0.412394	
-0.412496	
-0.41331	
-0.411987	
-0.412089	
-0.411682	
-0.41097	
-0.410665	
-0.411377	
-0.41158	
-0.411072	
-0.410767	
-0.409953	
-0.410767	
-0.411275	
-0.411682	
-0.410767	
-0.41097	
-0.410563	
-0.409444	
-0.410156	
-0.410055	
-0.410563	
-0.410258	
-0.410767	
-0.409342	
-0.408834	
-0.409139	
-0.410156	
-0.407715	
-0.408223	
-0.406901	
	
