E:\DOCUMENTS AND SETTINGS\JPOTAS\MEUS DOCUMENTOS\UFRJ\RSCI-BM 12 WK SERIES\070718-RSCI-BM-03\RSCI-BM-03-LEMG\070718-RSCI-BM-03-LEMG-0013.ACQ
0.025000 msec/sample
1 channel
Analog input
Volts
CH1	
2000	
-0.394714	
-0.394226	
-0.394165	
-0.39447	
-0.394043	
-0.395386	
-0.394958	
-0.394226	
-0.394104	
-0.393188	
-0.393555	
-0.393372	
-0.393799	
-0.392517	
-0.393127	
-0.392334	
-0.392395	
-0.392029	
-0.392578	
-0.392578	
-0.3927	
-0.392456	
-0.393372	
-0.393738	
-0.393616	
-0.393433	
-0.394165	
-0.393982	
-0.393494	
-0.393555	
-0.394836	
-0.393921	
-0.394531	
-0.393738	
-0.395325	
-0.394592	
-0.395081	
-0.394958	
-0.395569	
-0.396179	
-0.395264	
-0.39447	
-0.395569	
-0.395691	
-0.395569	
-0.395325	
-0.396301	
-0.396118	
-0.396484	
-0.395874	
-0.396912	
-0.396179	
-0.396729	
-0.396423	
-0.397156	
-0.396118	
-0.396301	
-0.396423	
-0.397766	
-0.397583	
-0.397461	
-0.397217	
-0.397949	
-0.398071	
-0.397156	
-0.3974	
-0.397644	
-0.39801	
-0.397278	
-0.397949	
-0.398743	
-0.398438	
-0.398315	
-0.398132	
-0.398315	
-0.396912	
-0.396667	
-0.396484	
-0.397095	
-0.396301	
-0.395691	
-0.395508	
-0.395813	
-0.395996	
-0.395935	
-0.396606	
-0.396729	
-0.395874	
-0.396118	
-0.395752	
-0.396667	
-0.396118	
-0.39563	
-0.395752	
-0.397217	
-0.396545	
-0.396057	
-0.396179	
-0.396545	
-0.395813	
-0.396118	
-0.397156	
-0.396973	
-0.396301	
-0.396118	
-0.396484	
-0.396912	
-0.396973	
-0.396362	
-0.397278	
-0.397278	
-0.39679	
-0.396912	
-0.396545	
-0.396729	
-0.39624	
-0.39624	
-0.395752	
-0.396301	
-0.395386	
-0.395386	
-0.395508	
-0.395142	
-0.395325	
-0.395447	
-0.395569	
-0.396057	
-0.395691	
-0.395386	
-0.395142	
-0.395752	
-0.395874	
-0.395569	
-0.395874	
-0.395691	
-0.395508	
-0.39563	
-0.394836	
-0.396057	
-0.395325	
-0.395386	
-0.394836	
-0.395874	
-0.395447	
-0.395264	
-0.395569	
-0.39502	
-0.395203	
-0.395081	
-0.395142	
-0.395203	
-0.394287	
-0.394714	
-0.393799	
-0.394409	
-0.394348	
-0.394714	
-0.394531	
-0.393982	
-0.39386	
-0.393982	
-0.393311	
-0.394409	
-0.394043	
-0.393372	
-0.39325	
-0.394409	
-0.394592	
-0.39447	
-0.395325	
-0.395264	
-0.394531	
-0.395142	
-0.394775	
-0.395874	
-0.396057	
-0.395752	
-0.395081	
-0.396484	
-0.397522	
-0.396423	
-0.396912	
-0.397827	
-0.396484	
-0.396362	
-0.39563	
-0.3974	
-0.395813	
-0.39563	
-0.395447	
-0.395264	
-0.396301	
-0.395264	
-0.396057	
-0.396057	
-0.395325	
-0.395264	
-0.198608	
0.0582886	
-0.0386963	
-0.0639038	
-0.0678101	
-0.0629272	
-0.414246	
-0.489929	
-0.388	
-0.355042	
-0.341248	
-0.334229	
-0.331482	
-0.328857	
-0.328918	
-0.327271	
-0.327515	
-0.327209	
-0.327148	
-0.328491	
-0.326538	
-0.327332	
-0.325562	
-0.326538	
-0.325806	
-0.327087	
-0.32666	
-0.326782	
-0.327271	
-0.328186	
-0.328613	
-0.328308	
-0.329468	
-0.328857	
-0.327515	
-0.329529	
-0.329468	
-0.330933	
-0.331604	
-0.331726	
-0.331787	
-0.332153	
-0.333984	
-0.332825	
-0.332886	
-0.330933	
-0.332581	
-0.332092	
-0.333191	
-0.333252	
-0.333008	
-0.333923	
-0.335449	
-0.338074	
-0.338745	
-0.341125	
-0.342529	
-0.344788	
-0.349182	
-0.352356	
-0.357239	
-0.36084	
-0.363831	
-0.367432	
-0.371094	
-0.37616	
-0.380737	
-0.386658	
-0.389893	
-0.398621	
-0.406067	
-0.415527	
-0.424011	
-0.431824	
-0.438232	
-0.444824	
-0.452454	
-0.454468	
-0.458557	
-0.460876	
-0.464844	
-0.467041	
-0.470215	
-0.472961	
-0.474854	
-0.47644	
-0.478455	
-0.481934	
-0.480103	
-0.481445	
-0.481262	
-0.481018	
-0.47998	
-0.478943	
-0.479492	
-0.479614	
-0.47937	
-0.479736	
-0.480164	
-0.481445	
-0.308594	
-0.0252075	
-0.12616	
-0.154053	
-0.157898	
-0.155579	
-0.486023	
-0.585938	
-0.482239	
-0.448486	
-0.435547	
-0.42688	
-0.42334	
-0.418152	
-0.41626	
-0.413513	
-0.409668	
-0.40625	
-0.403137	
-0.401672	
-0.396301	
-0.3927	
-0.387451	
-0.384338	
-0.379639	
-0.376343	
-0.372009	
-0.368286	
-0.36438	
-0.360352	
-0.356995	
-0.351196	
-0.346252	
-0.340271	
-0.333191	
-0.330078	
-0.322937	
-0.319153	
-0.314087	
-0.308472	
-0.303589	
-0.297729	
-0.294312	
-0.286865	
-0.281921	
-0.275024	
-0.268982	
-0.265747	
-0.259155	
-0.254822	
-0.249146	
-0.24353	
-0.237183	
-0.232483	
-0.227844	
-0.220337	
-0.21582	
-0.209656	
-0.205566	
-0.201172	
-0.196838	
-0.195374	
-0.192688	
-0.189575	
-0.187256	
-0.18512	
-0.18219	
-0.180176	
-0.178955	
-0.174377	
-0.175842	
-0.174377	
-0.174744	
-0.174927	
-0.174988	
-0.177246	
-0.180847	
-0.184265	
-0.188049	
-0.193115	
-0.195251	
-0.202454	
-0.208252	
-0.214111	
-0.21991	
-0.22583	
-0.231934	
-0.237793	
-0.243591	
-0.248352	
-0.254761	
-0.255859	
-0.263794	
-0.267822	
-0.271851	
-0.276062	
-0.280457	
-0.28363	
-0.28717	
-0.289795	
-0.292969	
-0.296936	
-0.296509	
-0.301575	
-0.302734	
-0.305176	
-0.308472	
-0.309998	
-0.311951	
-0.313965	
-0.316406	
-0.316772	
-0.318848	
-0.317505	
-0.31958	
-0.321228	
-0.322876	
-0.324585	
-0.325378	
-0.325256	
-0.325745	
-0.326782	
-0.324707	
-0.324646	
-0.321533	
-0.320251	
-0.319153	
-0.316345	
-0.313354	
-0.309937	
-0.306641	
-0.303406	
-0.300537	
-0.297363	
-0.294983	
-0.289063	
-0.282715	
-0.281006	
-0.276672	
-0.272766	
-0.268616	
-0.263672	
-0.259338	
-0.255493	
-0.253906	
-0.248047	
-0.242615	
-0.237732	
-0.234436	
-0.230957	
-0.227661	
-0.22406	
-0.220032	
-0.216858	
-0.213684	
-0.211792	
-0.206726	
-0.203003	
-0.198792	
-0.192383	
-0.192505	
-0.189575	
-0.187439	
-0.185547	
-0.18457	
-0.184021	
-0.18512	
-0.186462	
-0.185669	
-0.185608	
-0.18811	
-0.191467	
-0.194946	
-0.197632	
-0.200806	
-0.204895	
-0.209167	
-0.21283	
-0.219177	
-0.220764	
-0.225647	
-0.229309	
-0.234436	
-0.239258	
-0.243042	
-0.246765	
-0.251404	
-0.254822	
-0.258545	
-0.262207	
-0.265503	
-0.268494	
-0.271362	
-0.274048	
-0.277161	
-0.280029	
-0.283264	
-0.285706	
-0.287292	
-0.289368	
-0.290527	
-0.293762	
-0.293762	
-0.295349	
-0.294739	
-0.296692	
-0.297974	
-0.298706	
-0.299683	
-0.299011	
-0.299316	
-0.298523	
-0.301147	
-0.299194	
-0.29895	
-0.298462	
-0.29834	
-0.299438	
-0.298767	
-0.300476	
-0.301697	
-0.301331	
-0.301147	
-0.301514	
-0.304321	
-0.30249	
-0.302734	
-0.301697	
-0.302979	
-0.303284	
-0.303162	
-0.303894	
-0.303345	
-0.302612	
-0.302246	
-0.302246	
-0.302429	
-0.301636	
-0.300476	
-0.300049	
-0.30072	
-0.300598	
-0.300049	
-0.301086	
-0.300598	
-0.299561	
-0.299927	
-0.299316	
-0.300293	
-0.299622	
-0.299011	
-0.298035	
-0.300049	
-0.299988	
-0.300171	
-0.300537	
-0.301025	
-0.30072	
-0.301147	
-0.302551	
-0.301636	
-0.302124	
-0.300781	
-0.301636	
-0.302429	
-0.302979	
-0.302612	
-0.302429	
-0.303528	
-0.303467	
-0.303345	
-0.302673	
-0.30365	
-0.302734	
-0.302734	
-0.303589	
-0.304199	
-0.304871	
-0.305908	
-0.305847	
-0.304626	
-0.305176	
-0.305176	
-0.304871	
-0.30481	
-0.305481	
-0.305847	
-0.306274	
-0.306763	
-0.308167	
-0.309021	
-0.309021	
-0.309692	
-0.31012	
-0.308777	
-0.30957	
-0.309875	
-0.311279	
-0.311829	
-0.31134	
-0.312073	
-0.311951	
-0.313171	
-0.31311	
-0.311523	
-0.312012	
-0.312866	
-0.31311	
-0.313599	
-0.313538	
-0.313599	
-0.314026	
-0.314453	
-0.315186	
-0.315002	
-0.314087	
-0.31427	
-0.315002	
-0.314026	
-0.314575	
-0.314819	
-0.314758	
-0.315308	
-0.316284	
-0.31665	
-0.317017	
-0.316711	
-0.316345	
-0.316345	
-0.316589	
-0.317871	
-0.318237	
-0.318481	
-0.318604	
-0.320313	
-0.320862	
-0.320374	
-0.319641	
-0.320313	
-0.320007	
-0.319885	
-0.321838	
-0.322205	
-0.322021	
-0.322449	
-0.323242	
-0.323853	
-0.324707	
-0.323975	
-0.322632	
-0.323303	
-0.323669	
-0.324646	
-0.32489	
-0.325928	
-0.325684	
-0.325989	
-0.327087	
-0.327332	
-0.326538	
-0.32605	
-0.325745	
-0.325256	
-0.326782	
-0.326904	
-0.327087	
-0.327209	
-0.327087	
-0.328369	
-0.328735	
-0.329041	
-0.328247	
-0.326721	
-0.327332	
-0.329651	
-0.329712	
-0.330017	
-0.329529	
-0.329468	
-0.329834	
-0.330383	
-0.330139	
-0.328674	
-0.327209	
-0.327698	
-0.329041	
-0.328979	
-0.329041	
-0.329407	
-0.329956	
-0.330139	
-0.331482	
-0.33313	
-0.331238	
-0.329895	
-0.329529	
-0.33197	
-0.332214	
-0.332214	
-0.332825	
-0.332825	
-0.332642	
-0.333923	
-0.335693	
-0.334229	
-0.33374	
-0.333191	
-0.333923	
-0.335144	
-0.335449	
-0.335205	
-0.335754	
-0.336426	
-0.336975	
-0.337524	
-0.336182	
-0.335754	
-0.336426	
-0.334961	
-0.336914	
-0.33728	
-0.337585	
-0.338013	
-0.337952	
-0.338989	
-0.339294	
-0.338745	
-0.338867	
-0.338501	
-0.33783	
-0.3396	
-0.339539	
-0.340332	
-0.340759	
-0.340698	
-0.341614	
-0.341492	
-0.342224	
-0.341309	
-0.34082	
-0.339844	
-0.341797	
-0.341797	
-0.341248	
-0.341492	
-0.341492	
-0.341614	
-0.341797	
-0.342224	
-0.340637	
-0.340698	
-0.338501	
-0.340942	
-0.34021	
-0.34082	
-0.340881	
-0.341492	
-0.342651	
-0.341858	
-0.343506	
-0.341614	
-0.341614	
-0.340759	
-0.341675	
-0.342224	
-0.34259	
-0.342773	
-0.343323	
-0.343628	
-0.343201	
-0.344788	
-0.343628	
-0.343384	
-0.342407	
-0.342834	
-0.344299	
-0.344788	
-0.344727	
-0.344727	
-0.345276	
-0.345276	
-0.346436	
-0.346069	
-0.344727	
-0.344238	
-0.343262	
-0.345215	
-0.344971	
-0.344788	
-0.345032	
-0.344788	
-0.345093	
-0.346191	
-0.34613	
-0.343811	
-0.345276	
-0.34436	
-0.345398	
-0.345642	
-0.345459	
-0.346069	
-0.346191	
-0.346619	
-0.34668	
-0.348755	
-0.346558	
-0.34613	
-0.345398	
-0.346375	
-0.346375	
-0.346375	
-0.346619	
-0.34668	
-0.346985	
-0.346741	
-0.348145	
-0.347351	
-0.346497	
-0.34552	
-0.346069	
-0.346497	
-0.346619	
-0.346863	
-0.346863	
-0.347229	
-0.346924	
-0.347839	
-0.347473	
-0.345886	
-0.345764	
-0.344299	
-0.345764	
-0.346558	
-0.346497	
-0.346436	
-0.347839	
-0.347656	
-0.348206	
-0.349365	
-0.346924	
-0.347534	
-0.347473	
-0.347778	
-0.348755	
-0.348877	
-0.349609	
-0.349854	
-0.350952	
-0.351563	
-0.352722	
-0.35144	
-0.351013	
-0.350769	
-0.35083	
-0.350586	
-0.350586	
-0.35083	
-0.350647	
-0.350952	
-0.351624	
-0.352234	
-0.350891	
-0.350586	
-0.350037	
-0.350159	
-0.350952	
-0.351318	
-0.35083	
-0.350342	
-0.350647	
-0.351196	
-0.35199	
-0.351074	
-0.350037	
-0.350464	
-0.35022	
-0.350342	
-0.351746	
-0.352234	
-0.352112	
-0.352478	
-0.352661	
-0.352844	
-0.353271	
-0.352539	
-0.351379	
-0.3526	
-0.352173	
-0.352722	
-0.352722	
-0.352417	
-0.352722	
-0.353943	
-0.353821	
-0.353088	
-0.353088	
-0.352783	
-0.352051	
-0.352722	
-0.353699	
-0.353882	
-0.354858	
-0.354797	
-0.355286	
-0.355408	
-0.355896	
-0.355835	
-0.355591	
-0.355103	
-0.355164	
-0.355469	
-0.356018	
-0.356445	
-0.356995	
-0.357361	
-0.357422	
-0.357544	
-0.357666	
-0.35553	
-0.355957	
-0.356262	
-0.356201	
-0.355835	
-0.355957	
-0.355103	
-0.355286	
-0.356079	
-0.356201	
-0.355713	
-0.355713	
-0.354309	
-0.355835	
-0.354492	
-0.355896	
-0.355713	
-0.355103	
-0.355896	
-0.357239	
-0.357056	
-0.356262	
-0.356384	
-0.355469	
-0.355347	
-0.356567	
-0.355286	
-0.356628	
-0.356812	
-0.356995	
-0.357788	
-0.357727	
-0.357483	
-0.357605	
-0.358337	
-0.357483	
-0.357483	
-0.357361	
-0.358398	
-0.358887	
-0.358154	
-0.358459	
-0.358704	
-0.359131	
-0.358276	
-0.357849	
-0.357117	
-0.357849	
-0.356445	
-0.357605	
-0.357666	
-0.357727	
-0.358032	
-0.358093	
-0.357971	
-0.357666	
-0.357117	
-0.355957	
-0.356873	
-0.356628	
-0.356689	
-0.357056	
-0.356934	
-0.357239	
-0.358093	
-0.357788	
-0.357239	
-0.357544	
-0.3573	
-0.356079	
-0.356873	
-0.357056	
-0.357422	
-0.3573	
-0.357056	
-0.358032	
-0.358337	
-0.358154	
-0.35791	
-0.358032	
-0.356873	
-0.35791	
-0.357239	
-0.358093	
-0.357483	
-0.356934	
-0.357422	
-0.357849	
-0.357666	
-0.357971	
-0.35614	
-0.35675	
-0.357544	
-0.356873	
-0.356995	
-0.358704	
-0.359375	
-0.359314	
-0.360657	
-0.360657	
-0.359741	
-0.36084	
-0.360291	
-0.359436	
-0.359131	
-0.359802	
-0.359436	
-0.359619	
-0.359253	
-0.360046	
-0.359863	
-0.35907	
-0.35907	
-0.357971	
-0.358948	
-0.358521	
-0.358765	
-0.358704	
-0.359131	
-0.358948	
-0.359131	
-0.360046	
-0.358887	
-0.358643	
-0.357056	
-0.359192	
-0.358521	
-0.357605	
-0.357361	
-0.35907	
-0.359314	
-0.359192	
-0.360413	
-0.358337	
-0.358582	
-0.358398	
-0.35791	
-0.358093	
-0.357483	
-0.357788	
-0.358093	
-0.358215	
-0.357666	
-0.358948	
-0.358704	
-0.358337	
-0.359009	
-0.357483	
-0.357727	
-0.357788	
-0.358093	
-0.357605	
-0.358582	
-0.358459	
-0.359009	
-0.360413	
-0.358826	
-0.35968	
-0.358276	
-0.360046	
-0.360168	
-0.360352	
-0.360046	
-0.360229	
-0.361023	
-0.361328	
-0.362976	
-0.361267	
-0.361145	
-0.359802	
-0.36145	
-0.360535	
-0.360229	
-0.360718	
-0.360718	
-0.361023	
-0.361511	
-0.361938	
-0.361084	
-0.360962	
-0.361267	
-0.359558	
-0.360901	
-0.361084	
-0.361572	
-0.360535	
-0.36145	
-0.361816	
-0.362488	
-0.362	
-0.361267	
-0.361816	
-0.360779	
-0.361816	
-0.361633	
-0.361206	
-0.36145	
-0.362061	
-0.361816	
-0.362549	
-0.364075	
-0.361694	
-0.362671	
-0.362549	
-0.363342	
-0.362854	
-0.362305	
-0.362976	
-0.362976	
-0.363098	
-0.363708	
-0.364258	
-0.363281	
-0.363586	
-0.362976	
-0.362915	
-0.363342	
-0.363403	
-0.363098	
-0.362488	
-0.363892	
-0.364136	
-0.364807	
-0.364075	
-0.364258	
-0.364136	
-0.362671	
-0.364929	
-0.364502	
-0.364746	
-0.364197	
-0.365173	
-0.36554	
-0.366272	
-0.365479	
-0.365784	
-0.365967	
-0.363464	
-0.366211	
-0.365417	
-0.366272	
-0.366333	
-0.366333	
-0.367249	
-0.367981	
-0.368896	
-0.367371	
-0.367493	
-0.366882	
-0.367371	
-0.367493	
-0.366211	
-0.367493	
-0.366577	
-0.36676	
-0.367126	
-0.368042	
-0.36676	
-0.366821	
-0.366211	
-0.365967	
-0.367004	
-0.365906	
-0.36554	
-0.365356	
-0.365662	
-0.36554	
-0.366394	
-0.36615	
-0.365967	
-0.366028	
-0.365356	
-0.367065	
-0.366638	
-0.366394	
-0.366211	
-0.366455	
-0.36731	
-0.368347	
-0.368591	
-0.367493	
-0.367432	
-0.366821	
-0.368164	
-0.368469	
-0.367554	
-0.367981	
-0.368408	
-0.368713	
-0.36908	
-0.368958	
-0.368469	
-0.368408	
-0.366028	
-0.368042	
-0.36792	
-0.36676	
-0.368042	
-0.368286	
-0.367065	
-0.368591	
-0.370117	
-0.368408	
-0.368469	
-0.368408	
-0.367493	
-0.368713	
-0.369263	
-0.369141	
-0.369202	
-0.36908	
-0.369568	
-0.370972	
-0.369873	
-0.369019	
-0.369202	
-0.368713	
-0.369446	
-0.368774	
-0.369324	
-0.368774	
-0.369019	
-0.368713	
-0.36908	
-0.369568	
-0.369141	
-0.369019	
-0.369568	
-0.368958	
-0.368469	
-0.368103	
-0.368469	
-0.368591	
-0.368408	
-0.369507	
-0.369629	
-0.369202	
-0.369812	
-0.368958	
-0.369812	
-0.371033	
-0.371033	
-0.37085	
-0.370789	
-0.370972	
-0.371094	
-0.372559	
-0.371643	
-0.37146	
-0.371765	
-0.370667	
-0.371765	
-0.37146	
-0.371643	
-0.371765	
-0.37207	
-0.371582	
-0.372925	
-0.372498	
-0.371582	
-0.371643	
-0.37146	
-0.371521	
-0.371521	
-0.37146	
-0.372253	
-0.372253	
-0.371216	
-0.372253	
-0.371948	
-0.371643	
-0.371277	
-0.369629	
-0.370422	
-0.372131	
-0.371826	
-0.371948	
-0.372314	
-0.372803	
-0.372009	
-0.374695	
-0.373352	
-0.373413	
-0.373962	
-0.37323	
-0.373779	
-0.373962	
-0.375427	
-0.374573	
-0.374878	
-0.374817	
-0.376343	
-0.37616	
-0.375488	
-0.37561	
-0.375427	
-0.375916	
-0.376099	
-0.376099	
-0.376099	
-0.376282	
-0.376526	
-0.376831	
-0.377258	
-0.377319	
-0.376648	
-0.374634	
-0.376587	
-0.377075	
-0.376343	
-0.377258	
-0.376953	
-0.376953	
-0.376709	
-0.378845	
-0.377563	
-0.377258	
-0.377136	
-0.377014	
-0.378113	
-0.377991	
-0.379272	
-0.378967	
-0.378601	
-0.379517	
-0.380371	
-0.378601	
-0.37854	
-0.37793	
-0.377075	
-0.377502	
-0.37738	
-0.376465	
-0.377502	
-0.377441	
-0.376953	
-0.377319	
-0.378662	
-0.377502	
-0.377747	
-0.378296	
-0.377258	
-0.378662	
-0.378723	
-0.379456	
-0.37915	
-0.379028	
-0.378784	
-0.380432	
-0.381104	
-0.379639	
-0.378906	
-0.380615	
-0.380859	
-0.380615	
-0.380859	
-0.381409	
-0.38147	
-0.381287	
-0.381775	
-0.382141	
-0.382324	
-0.381226	
-0.381104	
-0.381653	
-0.382385	
-0.382141	
-0.382202	
-0.382385	
-0.382629	
-0.382874	
-0.384155	
-0.383789	
-0.382813	
-0.383667	
-0.383484	
-0.38385	
-0.383606	
-0.384644	
-0.383728	
-0.384827	
-0.384705	
-0.384827	
-0.385315	
-0.384583	
-0.384521	
-0.383911	
-0.384705	
-0.38501	
-0.384033	
-0.385681	
-0.385254	
-0.385071	
-0.385437	
-0.385437	
-0.384399	
-0.38324	
-0.383972	
-0.382751	
-0.384033	
-0.383972	
-0.383972	
-0.383606	
-0.38324	
-0.383484	
-0.384216	
-0.385254	
-0.383606	
-0.383911	
-0.38324	
-0.384033	
-0.38385	
-0.384521	
-0.384949	
-0.384705	
-0.384766	
-0.38446	
-0.385559	
-0.384216	
-0.383606	
-0.384583	
-0.383728	
-0.384705	
-0.384521	
-0.385376	
-0.385681	
-0.385681	
-0.384949	
-0.386169	
-0.385925	
-0.384949	
-0.38562	
-0.384399	
-0.38501	
-0.384705	
-0.385925	
-0.384766	
-0.384705	
-0.385315	
-0.384705	
-0.385742	
-0.384827	
-0.384766	
-0.383911	
-0.384521	
-0.384644	
-0.383972	
-0.385071	
-0.384705	
-0.38501	
-0.38446	
-0.385681	
-0.385437	
-0.384766	
-0.38562	
-0.384216	
-0.385315	
-0.384888	
-0.385315	
-0.384583	
-0.385071	
-0.385803	
-0.38501	
-0.385864	
-0.385315	
-0.385071	
-0.384277	
-0.385132	
-0.384827	
-0.384277	
-0.38501	
-0.384705	
-0.384583	
-0.384521	
-0.385803	
-0.384644	
-0.383301	
-0.384644	
-0.384033	
-0.384033	
-0.384277	
-0.384827	
-0.384338	
-0.384277	
-0.385437	
-0.385559	
-0.385254	
-0.384583	
-0.385315	
-0.384399	
-0.385254	
-0.385864	
-0.385559	
-0.386108	
-0.386536	
-0.387024	
-0.387268	
-0.388184	
-0.387329	
-0.386353	
-0.388367	
-0.387817	
-0.387207	
-0.387268	
-0.387146	
-0.386963	
-0.386597	
-0.386475	
-0.387207	
-0.386719	
-0.386108	
-0.385925	
-0.38623	
-0.386292	
-0.386841	
-0.385986	
-0.386414	
-0.38623	
-0.386719	
-0.387878	
-0.386353	
-0.385986	
-0.385681	
-0.387451	
-0.386658	
-0.386719	
-0.386902	
-0.387085	
-0.38739	
-0.387512	
-0.388672	
-0.387756	
-0.387268	
-0.386963	
-0.386658	
-0.387634	
-0.387573	
-0.387146	
-0.386719	
-0.387207	
-0.38739	
-0.388123	
-0.388672	
-0.386902	
-0.387024	
-0.385986	
-0.387878	
-0.387573	
-0.387451	
-0.387878	
-0.388977	
-0.388855	
-0.388733	
-0.389465	
-0.388123	
-0.388916	
-0.388733	
-0.388672	
-0.389465	
-0.389282	
-0.389832	
-0.389709	
-0.390137	
-0.390259	
-0.390564	
-0.390747	
-0.389465	
-0.389587	
-0.387817	
-0.389893	
-0.389099	
-0.389038	
-0.38855	
-0.387634	
-0.387878	
-0.388123	
-0.389587	
-0.387878	
-0.387451	
-0.386414	
-0.388	
-0.388367	
-0.38739	
-0.387695	
-0.387024	
-0.388	
-0.388611	
-0.388367	
-0.387573	
-0.387939	
-0.38739	
-0.386963	
-0.389038	
-0.388	
-0.387939	
-0.388977	
-0.38855	
-0.388672	
-0.38855	
-0.389832	
-0.388977	
-0.389038	
-0.38739	
-0.388977	
-0.389465	
-0.390015	
-0.390137	
-0.388245	
-0.389343	
-0.389648	
-0.389648	
-0.388916	
-0.38855	
-0.388245	
-0.386597	
-0.389465	
-0.387878	
-0.388733	
-0.388733	
-0.388	
-0.387939	
-0.388	
-0.389099	
-0.38739	
-0.387207	
-0.386169	
-0.387512	
-0.387085	
-0.386963	
-0.387146	
-0.385864	
-0.386902	
-0.386658	
-0.387634	
-0.38678	
-0.386414	
-0.38623	
-0.385315	
-0.387817	
-0.387085	
-0.386658	
-0.387329	
-0.386841	
-0.387024	
-0.387085	
-0.388367	
-0.38678	
-0.386963	
-0.386169	
-0.387268	
-0.386841	
-0.386719	
-0.386658	
-0.386475	
-0.386108	
-0.386414	
-0.387024	
-0.38623	
-0.38623	
-0.385925	
-0.386719	
-0.387085	
-0.387207	
-0.38739	
-0.387207	
-0.388245	
-0.388367	
-0.388428	
-0.388733	
-0.388306	
-0.387207	
-0.38562	
-0.388916	
-0.38739	
-0.387085	
-0.38739	
-0.386963	
-0.386658	
-0.386902	
-0.387451	
-0.386414	
-0.386536	
-0.38562	
-0.38678	
-0.386902	
-0.386353	
-0.38623	
-0.385864	
-0.386047	
-0.385864	
-0.385925	
-0.385986	
-0.386475	
-0.385437	
-0.382629	
-0.386169	
-0.385193	
-0.385742	
-0.385498	
-0.38501	
-0.384949	
-0.385559	
-0.386597	
-0.385193	
-0.384399	
-0.38385	
-0.385315	
-0.384644	
-0.384155	
-0.384338	
-0.384094	
-0.384766	
-0.38446	
-0.38501	
-0.384094	
-0.383972	
-0.383484	
-0.382507	
-0.384949	
-0.384766	
-0.385071	
-0.38501	
-0.385498	
-0.385559	
-0.386169	
-0.38623	
-0.385803	
-0.385559	
-0.38446	
-0.386719	
-0.386169	
-0.386292	
-0.386353	
-0.387207	
-0.386475	
-0.387085	
-0.388245	
-0.386475	
-0.386536	
-0.385864	
-0.384644	
-0.385986	
-0.386292	
-0.386597	
-0.38562	
-0.386597	
-0.386047	
-0.386169	
-0.386475	
-0.385742	
-0.386047	
-0.384094	
-0.386597	
-0.386475	
-0.386047	
-0.386169	
-0.38562	
-0.385681	
-0.385986	
-0.387085	
-0.385437	
-0.385864	
-0.385071	
-0.385254	
-0.386902	
-0.385803	
-0.386353	
-0.386169	
-0.386475	
-0.386597	
-0.387329	
-0.386658	
-0.387024	
-0.387024	
-0.38623	
-0.387207	
-0.387207	
-0.38739	
-0.387329	
-0.386841	
-0.386963	
-0.387329	
-0.387939	
-0.38739	
-0.387146	
-0.38562	
-0.38623	
-0.387939	
-0.387451	
-0.386963	
-0.386902	
-0.387878	
-0.387939	
-0.388672	
-0.387878	
-0.387756	
-0.38739	
-0.387634	
-0.388428	
-0.388123	
-0.388123	
-0.387817	
-0.388245	
-0.388611	
-0.389099	
-0.389771	
-0.388123	
-0.388977	
-0.387756	
-0.388428	
-0.390076	
-0.389404	
-0.389404	
-0.38916	
-0.390259	
-0.389587	
-0.390076	
-0.390137	
-0.389038	
-0.388367	
-0.388672	
-0.389221	
-0.38855	
-0.388367	
-0.388306	
-0.388428	
-0.388611	
-0.387695	
-0.388977	
-0.38739	
-0.386658	
-0.385864	
-0.386719	
-0.387146	
-0.386658	
-0.387024	
-0.386902	
-0.387451	
-0.388062	
-0.389099	
-0.388306	
-0.386353	
-0.387756	
-0.386353	
-0.388733	
-0.388184	
-0.388489	
-0.388306	
-0.387878	
-0.388855	
-0.388306	
-0.390625	
-0.388123	
-0.388672	
-0.388489	
-0.388855	
-0.389404	
-0.388794	
-0.388855	
-0.389221	
-0.388611	
-0.388855	
-0.388611	
-0.38916	
-0.388611	
-0.388306	
-0.387085	
-0.389099	
-0.388977	
-0.388733	
-0.388733	
-0.388123	
-0.388977	
-0.389587	
-0.39032	
-0.388977	
-0.388245	
-0.388733	
-0.389282	
-0.389893	
-0.389038	
-0.389404	
-0.388489	
-0.388611	
-0.389404	
-0.38916	
-0.388916	
-0.388916	
-0.387634	
-0.385986	
-0.388	
-0.38855	
-0.388672	
-0.388489	
-0.387573	
-0.388245	
-0.389282	
-0.390503	
-0.387695	
-0.387268	
-0.386902	
-0.388184	
-0.388794	
-0.388672	
-0.388855	
-0.388916	
-0.389587	
-0.389709	
-0.391052	
-0.390015	
-0.389587	
-0.389221	
-0.387085	
-0.389771	
-0.389954	
-0.390137	
-0.390137	
-0.388855	
-0.389404	
-0.390198	
-0.392395	
-0.390198	
-0.389832	
-0.38855	
-0.389648	
-0.390259	
-0.389832	
-0.390015	
-0.389343	
-0.389832	
-0.389648	
-0.390747	
-0.389954	
-0.389893	
-0.388916	
-0.385437	
-0.389832	
-0.38916	
-0.388672	
-0.388733	
-0.388123	
-0.389038	
-0.389526	
-0.392456	
-0.389893	
-0.390198	
-0.389038	
-0.389954	
-0.390869	
-0.390747	
-0.390686	
-0.390442	
-0.39032	
-0.39093	
-0.391907	
-0.392578	
-0.391602	
-0.391418	
-0.38916	
-0.392456	
-0.392639	
-0.392578	
-0.392273	
-0.391968	
-0.392761	
-0.392761	
-0.394043	
-0.392151	
-0.392578	
-0.392334	
-0.391541	
-0.393311	
-0.392822	
-0.392517	
-0.393005	
-0.39209	
-0.392761	
-0.393127	
-0.39563	
-0.392822	
-0.392395	
-0.39093	
-0.392822	
-0.393921	
-0.393188	
	
