E:\DOCUMENTS AND SETTINGS\JPOTAS\MEUS DOCUMENTOS\UFRJ\RSCI-BM 12 WK SERIES\070718-RSCI-BM-03\RSCI-BM-03-LEMG\070718-RSCI-BM-03-LEMG-0002.ACQ
0.025000 msec/sample
1 channel
Analog input
Volts
CH1	
2000	
-0.392395	
-0.392578	
-0.3927	
-0.393066	
-0.392578	
-0.392944	
-0.393799	
-0.39447	
-0.394409	
-0.393005	
-0.39386	
-0.391418	
-0.392761	
-0.394287	
-0.394653	
-0.394531	
-0.395691	
-0.394226	
-0.394531	
-0.394653	
-0.395203	
-0.395386	
-0.394165	
-0.394165	
-0.394592	
-0.394592	
-0.394653	
-0.39502	
-0.394409	
-0.395813	
-0.395081	
-0.395081	
-0.395996	
-0.396057	
-0.395203	
-0.394653	
-0.393311	
-0.393311	
-0.395386	
-0.394836	
-0.395752	
-0.396179	
-0.396362	
-0.396667	
-0.396729	
-0.39801	
-0.399048	
-0.397827	
-0.396729	
-0.39624	
-0.396362	
-0.3974	
-0.397156	
-0.397339	
-0.398499	
-0.39801	
-0.39801	
-0.39856	
-0.398254	
-0.398743	
-0.398438	
-0.397278	
-0.397949	
-0.398438	
-0.398926	
-0.398315	
-0.398682	
-0.398804	
-0.398315	
-0.398254	
-0.399048	
-0.399963	
-0.398315	
-0.398499	
-0.396118	
-0.396545	
-0.39856	
-0.398315	
-0.398071	
-0.399231	
-0.398376	
-0.397888	
-0.398132	
-0.398254	
-0.399231	
-0.397339	
-0.396973	
-0.397217	
-0.395874	
-0.395752	
-0.39563	
-0.395447	
-0.395935	
-0.395325	
-0.394531	
-0.394714	
-0.394653	
-0.393433	
-0.392578	
-0.391846	
-0.391968	
-0.393005	
-0.391968	
-0.392029	
-0.392822	
-0.39209	
-0.392395	
-0.392273	
-0.392456	
-0.39325	
-0.392212	
-0.392578	
-0.391541	
-0.392456	
-0.393616	
-0.394043	
-0.394104	
-0.394897	
-0.394104	
-0.394165	
-0.395142	
-0.395325	
-0.394897	
-0.39447	
-0.393799	
-0.392822	
-0.393555	
-0.393555	
-0.394104	
-0.393799	
-0.393188	
-0.393372	
-0.393677	
-0.393738	
-0.393433	
-0.391846	
-0.392395	
-0.391663	
-0.390869	
-0.393005	
-0.393005	
-0.393127	
-0.393738	
-0.393433	
-0.393311	
-0.393372	
-0.393066	
-0.394043	
-0.39386	
-0.392944	
-0.392456	
-0.393799	
-0.394226	
-0.394775	
-0.395081	
-0.39447	
-0.394592	
-0.394592	
-0.395386	
-0.395874	
-0.393921	
-0.393982	
-0.392456	
-0.391602	
-0.393311	
-0.392822	
-0.392883	
-0.393494	
-0.392944	
-0.392517	
-0.392212	
-0.392334	
-0.393311	
-0.392517	
-0.392456	
-0.390808	
-0.392639	
-0.392944	
-0.393127	
-0.393005	
-0.394287	
-0.393738	
-0.39447	
-0.395508	
-0.395935	
-0.394653	
-0.394958	
-0.393799	
-0.393799	
-0.395325	
-0.395508	
-0.395508	
-0.396301	
-0.396118	
-0.396484	
-0.396545	
-0.396973	
-0.164307	
0.287292	
0.107239	
0.0568237	
0.0461426	
0.0466309	
-0.418274	
-0.599976	
-0.421631	
-0.36499	
-0.342285	
-0.332214	
-0.327026	
-0.32373	
-0.321899	
-0.320435	
-0.319458	
-0.319031	
-0.318298	
-0.319763	
-0.319336	
-0.318848	
-0.317688	
-0.317932	
-0.317139	
-0.318909	
-0.318909	
-0.318848	
-0.319275	
-0.318726	
-0.319519	
-0.320862	
-0.320618	
-0.320862	
-0.32019	
-0.319275	
-0.320007	
-0.32135	
-0.321472	
-0.32135	
-0.32135	
-0.320923	
-0.32074	
-0.322327	
-0.32135	
-0.320496	
-0.319092	
-0.317627	
-0.319885	
-0.319641	
-0.319397	
-0.320313	
-0.320862	
-0.32135	
-0.322876	
-0.326355	
-0.327576	
-0.328857	
-0.331299	
-0.333801	
-0.337708	
-0.34021	
-0.343323	
-0.346069	
-0.347473	
-0.349121	
-0.351868	
-0.356812	
-0.358215	
-0.361694	
-0.366028	
-0.370728	
-0.377991	
-0.38446	
-0.389343	
-0.393616	
-0.395935	
-0.398804	
-0.399902	
-0.403076	
-0.402161	
-0.403687	
-0.403809	
-0.403625	
-0.406616	
-0.407227	
-0.407471	
-0.40741	
-0.407166	
-0.406555	
-0.406006	
-0.406677	
-0.403198	
-0.401123	
-0.39856	
-0.399536	
-0.399475	
-0.401428	
-0.401733	
-0.403198	
-0.40387	
-0.404968	
-0.40741	
-0.406799	
-0.40918	
-0.409668	
-0.409241	
-0.413025	
-0.414856	
-0.415649	
-0.416931	
-0.417297	
-0.41748	
-0.418152	
-0.419067	
-0.416748	
-0.417236	
-0.415466	
-0.414734	
-0.414429	
-0.413757	
-0.41272	
-0.411377	
-0.409302	
-0.407043	
-0.406006	
-0.403259	
-0.399475	
-0.396484	
-0.391968	
-0.390442	
-0.386414	
-0.383911	
-0.380493	
-0.375977	
-0.372375	
-0.36792	
-0.364319	
-0.357788	
-0.351318	
-0.345093	
-0.338745	
-0.332581	
-0.327759	
-0.322876	
-0.317688	
-0.312195	
-0.307251	
-0.30249	
-0.299133	
-0.295593	
-0.28949	
-0.285156	
-0.278687	
-0.274719	
-0.271606	
-0.267151	
-0.262939	
-0.259338	
-0.254395	
-0.249451	
-0.245544	
-0.24176	
-0.237366	
-0.2323	
-0.225708	
-0.219727	
-0.216187	
-0.211609	
-0.207031	
-0.202454	
-0.198303	
-0.193604	
-0.191162	
-0.189575	
-0.187439	
-0.185791	
-0.184937	
-0.185486	
-0.188721	
-0.19104	
-0.194702	
-0.199524	
-0.204163	
-0.208801	
-0.214783	
-0.221558	
-0.22699	
-0.230835	
-0.236023	
-0.241211	
-0.248291	
-0.253174	
-0.258728	
-0.264343	
-0.270386	
-0.276184	
-0.281189	
-0.287048	
-0.2901	
-0.292969	
-0.296143	
-0.302673	
-0.30603	
-0.309998	
-0.313049	
-0.315491	
-0.31897	
-0.322327	
-0.324768	
-0.324219	
-0.326416	
-0.328735	
-0.328674	
-0.331726	
-0.332764	
-0.33429	
-0.335327	
-0.336304	
-0.337463	
-0.339478	
-0.340393	
-0.339905	
-0.340515	
-0.340149	
-0.341431	
-0.343933	
-0.344604	
-0.345886	
-0.345947	
-0.346375	
-0.347412	
-0.348816	
-0.348877	
-0.347412	
-0.346619	
-0.345215	
-0.345032	
-0.345215	
-0.344482	
-0.343994	
-0.342346	
-0.340881	
-0.338989	
-0.339233	
-0.336243	
-0.33313	
-0.330261	
-0.326599	
-0.325623	
-0.32428	
-0.321899	
-0.319885	
-0.318115	
-0.315552	
-0.313782	
-0.312561	
-0.309509	
-0.306458	
-0.303589	
-0.301636	
-0.299683	
-0.298157	
-0.295776	
-0.293945	
-0.292358	
-0.290955	
-0.290649	
-0.28949	
-0.288513	
-0.287354	
-0.286377	
-0.286011	
-0.286438	
-0.286926	
-0.287842	
-0.289612	
-0.290344	
-0.291809	
-0.294067	
-0.296875	
-0.299622	
-0.299316	
-0.302063	
-0.303833	
-0.305603	
-0.308105	
-0.309387	
-0.31134	
-0.313721	
-0.314758	
-0.315918	
-0.317993	
-0.319458	
-0.31897	
-0.319336	
-0.32019	
-0.322937	
-0.323792	
-0.323914	
-0.325195	
-0.32666	
-0.327332	
-0.328796	
-0.328308	
-0.329712	
-0.330872	
-0.328796	
-0.330078	
-0.33197	
-0.332336	
-0.332825	
-0.333679	
-0.333618	
-0.334473	
-0.335876	
-0.334839	
-0.334412	
-0.333496	
-0.33429	
-0.333435	
-0.334656	
-0.335266	
-0.335449	
-0.335571	
-0.335693	
-0.336121	
-0.335815	
-0.3349	
-0.334839	
-0.33374	
-0.335022	
-0.334167	
-0.335327	
-0.335876	
-0.335876	
-0.33606	
-0.336243	
-0.337463	
-0.338135	
-0.336792	
-0.337585	
-0.338501	
-0.338562	
-0.337036	
-0.339233	
-0.340271	
-0.339966	
-0.340942	
-0.340881	
-0.341553	
-0.342163	
-0.34198	
-0.341492	
-0.341675	
-0.342346	
-0.34198	
-0.342712	
-0.343262	
-0.343994	
-0.344788	
-0.345703	
-0.346069	
-0.347229	
-0.346863	
-0.347473	
-0.347168	
-0.347717	
-0.347839	
-0.348267	
-0.348816	
-0.349915	
-0.350769	
-0.351379	
-0.351746	
-0.353271	
-0.352844	
-0.352478	
-0.353638	
-0.353699	
-0.352661	
-0.354065	
-0.353943	
-0.354431	
-0.354736	
-0.35498	
-0.354797	
-0.35437	
-0.353699	
-0.353638	
-0.352905	
-0.353699	
-0.352539	
-0.35321	
-0.353455	
-0.353516	
-0.354492	
-0.353394	
-0.354614	
-0.353333	
-0.353638	
-0.353271	
-0.353821	
-0.352661	
-0.353394	
-0.353699	
-0.353394	
-0.353882	
-0.354797	
-0.354309	
-0.353577	
-0.355164	
-0.355225	
-0.353821	
-0.354675	
-0.354309	
-0.355896	
-0.35553	
-0.355713	
-0.357239	
-0.356445	
-0.357056	
-0.355774	
-0.356079	
-0.356506	
-0.356934	
-0.356384	
-0.35614	
-0.357239	
-0.356689	
-0.357239	
-0.358459	
-0.358032	
-0.357483	
-0.357605	
-0.358643	
-0.357788	
-0.358093	
-0.357971	
-0.358276	
-0.358704	
-0.359436	
-0.360046	
-0.359741	
-0.360413	
-0.359497	
-0.359497	
-0.359741	
-0.360474	
-0.360107	
-0.359436	
-0.360046	
-0.359314	
-0.360168	
-0.359924	
-0.359314	
-0.358582	
-0.357666	
-0.358582	
-0.356995	
-0.358154	
-0.356873	
-0.356934	
-0.358154	
-0.358582	
-0.359131	
-0.358704	
-0.358398	
-0.3573	
-0.358154	
-0.35791	
-0.357239	
-0.358032	
-0.357239	
-0.358154	
-0.358154	
-0.358521	
-0.35968	
-0.359009	
-0.359558	
-0.35968	
-0.360413	
-0.360229	
-0.360779	
-0.360352	
-0.360046	
-0.361328	
-0.361023	
-0.361328	
-0.361938	
-0.362488	
-0.362	
-0.361572	
-0.362244	
-0.360779	
-0.362305	
-0.362427	
-0.361938	
-0.362549	
-0.36322	
-0.363403	
-0.363708	
-0.364319	
-0.362976	
-0.362366	
-0.364075	
-0.364014	
-0.364136	
-0.36377	
-0.363342	
-0.364624	
-0.364502	
-0.366333	
-0.366516	
-0.366943	
-0.366028	
-0.366516	
-0.367737	
-0.366394	
-0.36676	
-0.367004	
-0.367249	
-0.367188	
-0.367798	
-0.368591	
-0.369812	
-0.368591	
-0.369324	
-0.369507	
-0.369141	
-0.369385	
-0.369507	
-0.369263	
-0.369751	
-0.370056	
-0.370361	
-0.370605	
-0.371338	
-0.369995	
-0.369629	
-0.370544	
-0.370117	
-0.370422	
-0.370911	
-0.369446	
-0.370667	
-0.370728	
-0.371155	
-0.371033	
-0.371216	
-0.370422	
-0.369568	
-0.370422	
-0.370667	
-0.370483	
-0.370239	
-0.369202	
-0.370178	
-0.369812	
-0.370056	
-0.3703	
-0.368408	
-0.368469	
-0.368042	
-0.368103	
-0.368042	
-0.36731	
-0.366211	
-0.366943	
-0.367432	
-0.367126	
-0.367493	
-0.367859	
-0.366028	
-0.365967	
-0.366516	
-0.368164	
-0.366516	
-0.366089	
-0.365723	
-0.367004	
-0.367371	
-0.368164	
-0.36853	
-0.368652	
-0.368469	
-0.36731	
-0.367981	
-0.369934	
-0.369385	
-0.369385	
-0.368774	
-0.369324	
-0.369202	
-0.370117	
-0.370728	
-0.36969	
-0.368958	
-0.368591	
-0.369873	
-0.36969	
-0.369141	
-0.368713	
-0.368896	
-0.369019	
-0.369141	
-0.370483	
-0.36969	
-0.369385	
-0.369202	
-0.368774	
-0.370728	
-0.370361	
-0.370483	
-0.370117	
-0.369751	
-0.370483	
-0.370911	
-0.372131	
-0.371216	
-0.371765	
-0.37146	
-0.370972	
-0.37262	
-0.372375	
-0.372009	
-0.372192	
-0.37207	
-0.37262	
-0.371826	
-0.373169	
-0.37262	
-0.372437	
-0.371277	
-0.371704	
-0.371643	
-0.371338	
-0.371582	
-0.370483	
-0.370972	
-0.37085	
-0.371521	
-0.372864	
-0.372253	
-0.371216	
-0.3703	
-0.371643	
-0.370544	
-0.372437	
-0.372314	
-0.372009	
-0.373108	
-0.373596	
-0.374207	
-0.375244	
-0.375122	
-0.374451	
-0.373169	
-0.375122	
-0.375122	
-0.375671	
-0.375793	
-0.375122	
-0.374939	
-0.375977	
-0.377075	
-0.377258	
-0.377686	
-0.37616	
-0.376343	
-0.377563	
-0.377014	
-0.37677	
-0.376404	
-0.376343	
-0.374756	
-0.376404	
-0.376831	
-0.376526	
-0.377197	
-0.375793	
-0.375732	
-0.376587	
-0.377075	
-0.376099	
-0.375671	
-0.376099	
-0.376099	
-0.376892	
-0.377563	
-0.377197	
-0.377075	
-0.376282	
-0.375366	
-0.376038	
-0.376526	
-0.375732	
-0.375488	
-0.375549	
-0.375549	
-0.376282	
-0.376221	
-0.375549	
-0.375671	
-0.375	
-0.374512	
-0.374451	
-0.375488	
-0.37439	
-0.373352	
-0.373474	
-0.373535	
-0.37384	
-0.37384	
-0.373169	
-0.372681	
-0.372314	
-0.372131	
-0.372009	
-0.37323	
-0.373291	
-0.372192	
-0.373291	
-0.373596	
-0.374023	
-0.37439	
-0.374084	
-0.373962	
-0.372925	
-0.374695	
-0.373596	
-0.375305	
-0.375244	
-0.374573	
-0.374878	
-0.375244	
-0.375793	
-0.376465	
-0.37616	
-0.375671	
-0.374512	
-0.37677	
-0.375305	
-0.375916	
-0.375793	
-0.37561	
-0.375549	
-0.37616	
-0.377014	
-0.37738	
-0.377197	
-0.376404	
-0.376282	
-0.378357	
-0.377502	
-0.37738	
-0.377686	
-0.377808	
-0.377197	
-0.378296	
-0.37915	
-0.379395	
-0.38031	
-0.379089	
-0.37793	
-0.379944	
-0.38031	
-0.379883	
-0.379883	
-0.3797	
-0.378601	
-0.379517	
-0.380249	
-0.379272	
-0.379944	
-0.379578	
-0.377136	
-0.378967	
-0.379028	
-0.378418	
-0.377991	
-0.378296	
-0.379333	
-0.379272	
-0.380249	
-0.380188	
-0.380798	
-0.379944	
-0.378967	
-0.38092	
-0.381958	
-0.381226	
-0.380554	
-0.381775	
-0.381897	
-0.38208	
-0.383362	
-0.382263	
-0.38324	
-0.382874	
-0.382813	
-0.383179	
-0.383667	
-0.382996	
-0.382935	
-0.382813	
-0.382813	
-0.383362	
-0.384277	
-0.382629	
-0.383545	
-0.383423	
-0.384277	
-0.382324	
-0.383179	
-0.382202	
-0.382141	
-0.382141	
-0.382385	
-0.38208	
-0.383484	
-0.38208	
-0.382507	
-0.381531	
-0.382629	
-0.382324	
-0.38208	
-0.381958	
-0.381836	
-0.381592	
-0.382202	
-0.382324	
-0.382996	
-0.382263	
-0.382568	
-0.381287	
-0.382507	
-0.381836	
-0.381653	
-0.381836	
-0.38208	
-0.381836	
-0.38208	
-0.383057	
-0.383789	
-0.382629	
-0.382568	
-0.380615	
-0.38147	
-0.381165	
-0.380859	
-0.380249	
-0.381287	
-0.379761	
-0.381042	
-0.381592	
-0.381348	
-0.380981	
-0.381348	
-0.379333	
-0.38031	
-0.379944	
-0.379333	
-0.378845	
-0.3797	
-0.378845	
-0.379944	
-0.380981	
-0.380615	
-0.38031	
-0.380798	
-0.379639	
-0.380066	
-0.38092	
-0.380249	
-0.379395	
-0.380554	
-0.380371	
-0.380432	
-0.381165	
-0.381348	
-0.380615	
-0.381287	
-0.380554	
-0.381348	
-0.381653	
-0.380798	
-0.380188	
-0.381042	
-0.38208	
-0.382324	
-0.382996	
-0.383545	
-0.383301	
-0.38446	
-0.383911	
-0.384094	
-0.385376	
-0.385376	
-0.384521	
-0.386047	
-0.386719	
-0.387512	
-0.387085	
-0.388428	
-0.388062	
-0.38855	
-0.388367	
-0.387756	
-0.388062	
-0.387634	
-0.387634	
-0.387268	
-0.387756	
-0.388123	
-0.387268	
-0.387024	
-0.386169	
-0.386536	
-0.386536	
-0.385742	
-0.385925	
-0.385437	
-0.384888	
-0.385681	
-0.38623	
-0.386841	
-0.386353	
-0.387146	
-0.386353	
-0.386597	
-0.386902	
-0.387451	
-0.387512	
-0.387329	
-0.387024	
-0.387024	
-0.387939	
-0.388672	
-0.388123	
-0.38855	
-0.388	
-0.388672	
-0.387573	
-0.387695	
-0.387268	
-0.387817	
-0.38678	
-0.386841	
-0.387146	
-0.387878	
-0.387207	
-0.387817	
-0.386353	
-0.387329	
-0.386963	
-0.387634	
-0.38678	
-0.386597	
-0.386841	
-0.385742	
-0.386841	
-0.388	
-0.387634	
-0.387634	
-0.387207	
-0.388306	
-0.388062	
-0.389221	
-0.388245	
-0.388428	
-0.387817	
-0.388062	
-0.38916	
-0.388733	
-0.388794	
-0.389465	
-0.388489	
-0.390198	
-0.389221	
-0.390198	
-0.38916	
-0.388794	
-0.387634	
-0.38739	
-0.387939	
-0.388123	
-0.386963	
-0.387939	
-0.386841	
-0.387695	
-0.386536	
-0.388245	
-0.38623	
-0.384766	
-0.385071	
-0.386047	
-0.385681	
-0.385437	
-0.384888	
-0.385742	
-0.385132	
-0.385376	
-0.385071	
-0.38678	
-0.385559	
-0.384277	
-0.385742	
-0.385681	
-0.387085	
-0.386597	
-0.386719	
-0.386963	
-0.385498	
-0.387024	
-0.386536	
-0.388794	
-0.387207	
-0.386658	
-0.386169	
-0.386597	
-0.387207	
-0.386963	
-0.387207	
-0.386719	
-0.386597	
-0.387878	
-0.387146	
-0.389526	
-0.387634	
-0.387756	
-0.388	
-0.388794	
-0.388855	
-0.388916	
-0.388977	
-0.388733	
-0.388489	
-0.390198	
-0.390503	
-0.392822	
-0.391052	
-0.391602	
-0.391724	
-0.392517	
-0.393066	
-0.392456	
-0.392761	
-0.392944	
-0.392761	
-0.39325	
-0.394165	
-0.394409	
-0.3927	
-0.392212	
-0.391663	
-0.39209	
-0.3927	
-0.392334	
-0.392334	
-0.391602	
-0.391541	
-0.391846	
-0.392151	
-0.392883	
-0.391174	
-0.391235	
-0.391052	
-0.39093	
-0.391907	
-0.391174	
-0.391907	
-0.390869	
-0.39093	
-0.390808	
-0.391785	
-0.392395	
-0.391418	
-0.391357	
-0.390442	
-0.391113	
-0.392029	
-0.391174	
-0.391663	
-0.390381	
-0.390381	
-0.390808	
-0.391235	
-0.391785	
-0.390259	
-0.390076	
-0.389526	
-0.389954	
-0.390625	
-0.390015	
-0.39032	
-0.38855	
-0.389648	
-0.390076	
-0.390564	
-0.390686	
-0.389587	
-0.389587	
-0.388977	
-0.389954	
-0.390381	
-0.389893	
-0.391174	
-0.390076	
-0.391052	
-0.390991	
-0.39209	
-0.392456	
-0.391541	
-0.392212	
-0.390137	
-0.391541	
-0.391846	
-0.39093	
-0.391724	
-0.39032	
-0.390625	
-0.389465	
-0.390015	
-0.390259	
-0.390259	
-0.388855	
-0.387878	
-0.389038	
-0.389038	
-0.389221	
-0.389893	
-0.388062	
-0.387512	
-0.388062	
-0.38855	
-0.388428	
-0.388794	
-0.38855	
-0.387512	
-0.388245	
-0.388855	
-0.388672	
-0.389526	
-0.388489	
-0.388855	
-0.388611	
-0.389771	
-0.389771	
-0.390869	
-0.390198	
-0.388733	
-0.390564	
-0.390869	
-0.390564	
-0.391357	
-0.390503	
-0.390991	
-0.39093	
-0.391357	
-0.391418	
-0.391541	
-0.390869	
-0.389771	
-0.390869	
-0.390869	
-0.391357	
-0.391968	
-0.391357	
-0.392517	
-0.391907	
-0.39209	
-0.392334	
-0.391785	
-0.392029	
-0.390869	
-0.392395	
-0.391968	
-0.392517	
-0.393005	
-0.3927	
-0.393738	
-0.393677	
-0.394531	
-0.394897	
-0.394409	
-0.39447	
-0.393372	
-0.393982	
-0.394043	
-0.39447	
-0.394897	
-0.393616	
-0.395203	
-0.395325	
-0.395935	
-0.396179	
-0.395996	
-0.396545	
-0.39447	
-0.395386	
-0.395569	
-0.395813	
-0.39563	
-0.394897	
-0.395874	
-0.394958	
-0.395813	
-0.396301	
-0.395508	
-0.39624	
-0.395264	
-0.395508	
-0.396057	
-0.396179	
-0.396118	
-0.395264	
-0.395447	
-0.395569	
-0.396057	
-0.396912	
-0.395203	
-0.395752	
-0.394287	
-0.393799	
-0.394958	
-0.393372	
-0.393066	
-0.392883	
-0.392883	
-0.392334	
-0.392883	
-0.393616	
-0.391418	
-0.391846	
-0.390808	
-0.390442	
-0.391174	
-0.390015	
-0.390442	
-0.389709	
-0.390442	
-0.39032	
-0.390747	
-0.390808	
-0.390076	
-0.391296	
-0.389954	
-0.389893	
-0.391724	
-0.391296	
-0.391724	
-0.391357	
-0.391602	
-0.392334	
-0.393127	
-0.393555	
-0.391968	
-0.392273	
-0.391907	
-0.390869	
-0.392517	
-0.391296	
-0.392761	
-0.391479	
-0.391541	
-0.391296	
-0.391235	
-0.391968	
-0.391174	
-0.391663	
-0.391113	
-0.390564	
-0.391602	
-0.390198	
-0.391296	
-0.391296	
-0.391479	
-0.391052	
-0.391357	
-0.39209	
-0.392456	
-0.391724	
-0.391418	
-0.391296	
-0.392456	
-0.391296	
-0.393677	
-0.392395	
-0.392273	
-0.392883	
-0.393433	
-0.394287	
-0.394104	
-0.393433	
-0.393005	
-0.391724	
-0.393311	
-0.392029	
-0.393494	
-0.392456	
-0.392212	
-0.39209	
-0.391968	
-0.392151	
-0.392334	
-0.392029	
-0.39209	
-0.390869	
-0.391602	
-0.390747	
-0.392151	
-0.391479	
-0.390869	
-0.391113	
-0.39209	
-0.392822	
-0.393311	
-0.393738	
-0.393127	
-0.39325	
-0.393677	
-0.392883	
-0.394592	
-0.394714	
-0.394714	
-0.394043	
-0.394836	
-0.39563	
-0.395752	
-0.395813	
-0.395508	
-0.395813	
-0.39624	
-0.394409	
-0.396179	
-0.395752	
-0.395508	
-0.395325	
-0.395752	
-0.395813	
-0.395508	
-0.39624	
-0.394897	
-0.394165	
-0.39502	
-0.39447	
-0.395813	
-0.395203	
-0.394104	
-0.394653	
-0.394897	
-0.395081	
-0.395935	
-0.39624	
-0.39502	
-0.394836	
-0.394775	
-0.394226	
-0.395142	
-0.393677	
-0.393311	
-0.394348	
-0.394043	
-0.394226	
-0.394165	
-0.39447	
-0.39386	
-0.393188	
-0.393616	
-0.392212	
-0.393738	
-0.392883	
-0.391968	
-0.392334	
-0.391174	
-0.391602	
-0.392029	
-0.391663	
-0.392029	
-0.390625	
-0.390686	
-0.388916	
-0.39032	
-0.389954	
-0.389526	
-0.390442	
-0.389709	
-0.390808	
-0.391418	
-0.391602	
-0.391907	
-0.390442	
-0.391113	
-0.391174	
-0.391968	
-0.391663	
-0.391663	
-0.39209	
-0.391052	
-0.392151	
-0.392761	
-0.392517	
-0.393494	
-0.392212	
-0.391418	
-0.393372	
-0.392456	
-0.3927	
-0.392334	
-0.392334	
-0.391968	
-0.392883	
-0.393433	
-0.392639	
-0.393616	
-0.392822	
-0.392212	
-0.393372	
-0.392273	
-0.394043	
-0.393982	
-0.39325	
-0.394165	
-0.393982	
-0.394836	
-0.394409	
-0.396423	
-0.395447	
-0.394897	
-0.395996	
-0.393921	
-0.396484	
-0.395874	
-0.395325	
-0.395935	
-0.39624	
-0.395142	
-0.395386	
-0.397278	
-0.396057	
-0.395203	
-0.394714	
-0.393555	
-0.395386	
-0.393799	
-0.393127	
-0.394104	
-0.394836	
-0.395081	
-0.395508	
-0.395325	
-0.39563	
-0.39563	
-0.396118	
-0.395813	
-0.397522	
-0.396667	
-0.396851	
-0.396667	
-0.396912	
-0.3974	
-0.397827	
-0.397827	
-0.398682	
-0.397705	
-0.397095	
-0.398743	
-0.398438	
-0.398254	
-0.398315	
-0.397949	
-0.397278	
-0.398132	
-0.398376	
-0.398071	
-0.399719	
-0.397766	
-0.396912	
-0.397766	
-0.397766	
-0.397705	
-0.396851	
-0.39563	
-0.396484	
-0.397278	
-0.396606	
-0.397156	
-0.397888	
-0.396912	
-0.39624	
-0.396973	
-0.39502	
-0.397278	
-0.396179	
-0.395447	
-0.39624	
-0.396484	
-0.396484	
-0.397095	
-0.397156	
-0.396301	
-0.395996	
-0.394531	
-0.393982	
-0.396729	
-0.396118	
-0.395874	
-0.396057	
-0.395203	
-0.396545	
-0.397278	
-0.39624	
-0.396667	
-0.395569	
-0.394104	
-0.394226	
-0.394531	
-0.394714	
-0.394714	
-0.394409	
-0.393921	
-0.394226	
-0.394165	
-0.394592	
-0.394775	
-0.393188	
-0.392761	
-0.392456	
-0.3927	
-0.393494	
-0.392273	
-0.392822	
-0.393188	
-0.393005	
-0.392822	
-0.394348	
-0.394104	
-0.3927	
-0.392944	
-0.393127	
-0.393188	
-0.393372	
-0.393311	
-0.392456	
-0.392944	
-0.392212	
-0.3927	
-0.39325	
-0.393677	
-0.3927	
-0.392639	
-0.391541	
-0.391846	
-0.393616	
-0.394287	
-0.393188	
-0.39386	
-0.394104	
-0.395203	
-0.395691	
-0.396667	
-0.395996	
-0.396484	
-0.395691	
-0.396301	
-0.397461	
-0.398193	
-0.398071	
-0.398926	
-0.398743	
-0.399292	
-0.399231	
-0.400574	
-0.400024	
-0.398743	
-0.398621	
-0.398193	
-0.398438	
-0.399475	
-0.398682	
-0.398315	
-0.397827	
-0.396545	
-0.397644	
-0.398682	
-0.398254	
-0.396851	
-0.396484	
-0.396423	
-0.396729	
-0.397583	
-0.397156	
-0.396973	
-0.396667	
-0.396484	
-0.397095	
-0.3974	
-0.39917	
-0.397217	
-0.398132	
-0.397217	
-0.397522	
-0.397949	
-0.398865	
-0.396729	
-0.398193	
-0.398193	
-0.397095	
-0.397888	
-0.398987	
-0.397461	
-0.397766	
-0.397339	
-0.395813	
-0.397217	
-0.397034	
-0.396912	
-0.397644	
-0.396423	
-0.39563	
-0.396851	
-0.398071	
-0.396729	
-0.396606	
-0.39624	
-0.396057	
-0.396606	
-0.396179	
-0.396057	
-0.396301	
-0.396301	
-0.395996	
-0.396179	
-0.39801	
-0.397827	
-0.397156	
-0.397278	
-0.395996	
-0.397583	
-0.3974	
-0.397339	
-0.396606	
-0.396912	
-0.397217	
-0.3974	
-0.398193	
-0.398682	
-0.397766	
-0.396912	
-0.396118	
-0.395813	
-0.396118	
-0.39624	
-0.394897	
-0.395081	
-0.394592	
-0.393799	
-0.394592	
-0.39624	
-0.393616	
-0.393555	
-0.393677	
-0.393555	
-0.393066	
-0.393127	
-0.392639	
-0.392883	
-0.392578	
-0.391602	
-0.392944	
-0.394104	
-0.393616	
-0.392822	
-0.392822	
-0.391785	
-0.393799	
-0.39447	
-0.394043	
-0.392639	
-0.393982	
-0.393433	
-0.393555	
-0.394165	
-0.394958	
-0.393005	
-0.393799	
-0.393311	
-0.392334	
-0.393799	
-0.394409	
-0.3927	
-0.393616	
-0.39386	
-0.394287	
-0.394531	
-0.396057	
-0.394531	
-0.394287	
-0.394592	
-0.394348	
-0.394592	
-0.395386	
-0.39502	
-0.395691	
-0.395691	
-0.395752	
-0.397217	
-0.398071	
-0.39801	
-0.397827	
-0.398254	
-0.397461	
-0.398132	
-0.398621	
-0.398376	
-0.398682	
-0.398438	
-0.397583	
-0.397827	
-0.398438	
-0.399536	
-0.397339	
-0.397095	
-0.396667	
-0.397156	
-0.396973	
-0.397705	
-0.395813	
-0.396179	
-0.395569	
-0.395508	
-0.396118	
-0.397217	
-0.396301	
-0.395447	
-0.395691	
-0.394531	
-0.395752	
-0.395996	
-0.395142	
-0.395264	
-0.395081	
-0.395569	
-0.395874	
-0.396423	
-0.396545	
-0.395508	
-0.395081	
-0.394592	
-0.394653	
-0.395325	
-0.394592	
-0.394592	
-0.39386	
-0.393555	
-0.39447	
-0.394165	
-0.396118	
-0.393677	
-0.393066	
-0.393127	
-0.391479	
-0.393188	
-0.393372	
-0.392151	
-0.392883	
-0.392395	
-0.393311	
-0.393494	
-0.39447	
-0.393311	
-0.393005	
-0.392822	
-0.391846	
-0.394287	
-0.39502	
-0.393799	
-0.394531	
-0.393982	
-0.394287	
-0.394653	
-0.394897	
-0.395508	
-0.394287	
-0.394348	
-0.392761	
-0.392822	
-0.393433	
-0.392639	
-0.392029	
-0.391785	
-0.390808	
-0.392029	
-0.391846	
-0.392822	
-0.391052	
-0.391052	
-0.390564	
-0.388245	
-0.39093	
-0.39032	
-0.389893	
	
