E:\DOCUMENTS AND SETTINGS\JPOTAS\MEUS DOCUMENTOS\UFRJ\RSCI-BM 12 WK SERIES\070718-RSCI-BM-03\RSCI-BM-03-LEMG\070718-RSCI-BM-03-LEMG-0022.ACQ
0.025000 msec/sample
1 channel
Analog input
Volts
CH1	
2000	
-0.392456	
-0.390869	
-0.391541	
-0.392334	
-0.39209	
-0.39209	
-0.391724	
-0.392761	
-0.392761	
-0.39325	
-0.393311	
-0.393005	
-0.393738	
-0.393005	
-0.39447	
-0.394043	
-0.393616	
-0.394287	
-0.393738	
-0.394958	
-0.395081	
-0.395325	
-0.394714	
-0.39679	
-0.396729	
-0.39502	
-0.39624	
-0.395813	
-0.395874	
-0.395813	
-0.394897	
-0.395569	
-0.395325	
-0.395264	
-0.394104	
-0.395325	
-0.395813	
-0.392578	
-0.394836	
-0.394104	
-0.393921	
-0.393616	
-0.392944	
-0.393311	
-0.392761	
-0.393066	
-0.392029	
-0.392273	
-0.39209	
-0.390503	
-0.39209	
-0.390259	
-0.391235	
-0.391113	
-0.391235	
-0.390808	
-0.391235	
-0.391174	
-0.390625	
-0.391785	
-0.390503	
-0.389771	
-0.391357	
-0.390808	
-0.391418	
-0.391296	
-0.390869	
-0.391235	
-0.39209	
-0.393127	
-0.392212	
-0.392822	
-0.392273	
-0.391846	
-0.393555	
-0.393921	
-0.394226	
-0.39447	
-0.394836	
-0.395264	
-0.396057	
-0.396179	
-0.396301	
-0.397217	
-0.396423	
-0.395996	
-0.397461	
-0.397095	
-0.397156	
-0.396912	
-0.397156	
-0.397644	
-0.397583	
-0.396973	
-0.396912	
-0.397034	
-0.395691	
-0.396484	
-0.396301	
-0.396362	
-0.397217	
-0.396423	
-0.395325	
-0.396057	
-0.39679	
-0.395142	
-0.395142	
-0.394897	
-0.394043	
-0.395386	
-0.393372	
-0.394531	
-0.394592	
-0.394409	
-0.393921	
-0.393188	
-0.394348	
-0.3927	
-0.39386	
-0.393127	
-0.393372	
-0.39325	
-0.392517	
-0.392761	
-0.392578	
-0.392273	
-0.392883	
-0.392761	
-0.393616	
-0.392395	
-0.392944	
-0.391663	
-0.390808	
-0.392273	
-0.392212	
-0.392151	
-0.392334	
-0.391724	
-0.391724	
-0.391968	
-0.392883	
-0.392029	
-0.392883	
-0.391418	
-0.391846	
-0.392517	
-0.392029	
-0.392273	
-0.392395	
-0.391907	
-0.392151	
-0.391724	
-0.39209	
-0.391235	
-0.391479	
-0.390564	
-0.390991	
-0.391174	
-0.390991	
-0.390808	
-0.390808	
-0.391052	
-0.391235	
-0.391479	
-0.392761	
-0.391907	
-0.391846	
-0.390991	
-0.39209	
-0.391541	
-0.392212	
-0.392822	
-0.392822	
-0.392639	
-0.39325	
-0.393799	
-0.39386	
-0.393677	
-0.393555	
-0.392273	
-0.393738	
-0.394531	
-0.394043	
-0.394348	
-0.394104	
-0.393616	
-0.394287	
-0.394775	
-0.393799	
-0.394775	
-0.393921	
-0.393677	
-0.393066	
-0.393555	
-0.392578	
-0.39325	
-0.392639	
-0.223633	
-0.00585938	
-0.0784912	
-0.0960083	
-0.0953369	
-0.0895386	
-0.38739	
-0.445374	
-0.369568	
-0.344177	
-0.332642	
-0.329346	
-0.325684	
-0.324402	
-0.324463	
-0.323853	
-0.323425	
-0.323792	
-0.325134	
-0.323486	
-0.324158	
-0.32373	
-0.324585	
-0.324707	
-0.325684	
-0.326782	
-0.327515	
-0.328064	
-0.328857	
-0.330322	
-0.329834	
-0.330811	
-0.330627	
-0.330505	
-0.332275	
-0.331238	
-0.333008	
-0.333374	
-0.333862	
-0.334656	
-0.335754	
-0.335083	
-0.334351	
-0.335266	
-0.333252	
-0.334473	
-0.334106	
-0.333618	
-0.334351	
-0.3349	
-0.335876	
-0.337952	
-0.33905	
-0.3396	
-0.341919	
-0.344604	
-0.347412	
-0.350891	
-0.354858	
-0.359985	
-0.363953	
-0.368774	
-0.372742	
-0.377502	
-0.381226	
-0.386292	
-0.391174	
-0.396545	
-0.40448	
-0.412231	
-0.421021	
-0.430725	
-0.440613	
-0.448425	
-0.456299	
-0.463318	
-0.469666	
-0.473145	
-0.47821	
-0.483765	
-0.488708	
-0.492798	
-0.495605	
-0.499268	
-0.502319	
-0.505371	
-0.505798	
-0.506592	
-0.507568	
-0.508606	
-0.508423	
-0.507935	
-0.508423	
-0.508057	
-0.508362	
-0.508362	
-0.508789	
-0.509094	
-0.50769	
-0.508789	
-0.507446	
-0.508789	
-0.509583	
-0.510986	
-0.511475	
-0.513489	
-0.514832	
-0.515015	
-0.516663	
-0.516724	
-0.516479	
-0.51532	
-0.513306	
-0.512573	
-0.510376	
-0.508545	
-0.506165	
-0.501892	
-0.49884	
-0.49469	
-0.493225	
-0.487183	
-0.483459	
-0.478882	
-0.475525	
-0.471741	
-0.466736	
-0.462891	
-0.458618	
-0.453918	
-0.449768	
-0.445557	
-0.440857	
-0.434265	
-0.42926	
-0.420593	
-0.416565	
-0.409668	
-0.40332	
-0.396545	
-0.390747	
-0.384644	
-0.377808	
-0.372253	
-0.364136	
-0.357727	
-0.349548	
-0.342285	
-0.335571	
-0.327942	
-0.320557	
-0.312988	
-0.305969	
-0.29834	
-0.29126	
-0.286011	
-0.276001	
-0.268494	
-0.26123	
-0.254028	
-0.247314	
-0.240295	
-0.235779	
-0.229309	
-0.224365	
-0.219238	
-0.215393	
-0.210449	
-0.206604	
-0.204041	
-0.200012	
-0.200195	
-0.199341	
-0.199768	
-0.200439	
-0.202332	
-0.204407	
-0.207581	
-0.211304	
-0.213684	
-0.21875	
-0.22229	
-0.230225	
-0.235046	
-0.24115	
-0.24823	
-0.255188	
-0.261353	
-0.26825	
-0.275757	
-0.281433	
-0.28894	
-0.29126	
-0.300781	
-0.305542	
-0.310608	
-0.314758	
-0.319702	
-0.323181	
-0.328186	
-0.33136	
-0.334229	
-0.337891	
-0.338196	
-0.342896	
-0.344177	
-0.346497	
-0.346863	
-0.348999	
-0.350586	
-0.35144	
-0.352295	
-0.3526	
-0.353577	
-0.351624	
-0.355469	
-0.355225	
-0.355652	
-0.356323	
-0.357117	
-0.357239	
-0.357788	
-0.358948	
-0.358643	
-0.359375	
-0.357422	
-0.359985	
-0.359192	
-0.359436	
-0.358765	
-0.358887	
-0.358826	
-0.357483	
-0.35968	
-0.35675	
-0.355774	
-0.354065	
-0.353149	
-0.351501	
-0.348816	
-0.348022	
-0.345703	
-0.34436	
-0.342468	
-0.341614	
-0.33844	
-0.336182	
-0.335876	
-0.331421	
-0.331482	
-0.32843	
-0.326782	
-0.32489	
-0.322937	
-0.320923	
-0.319153	
-0.31842	
-0.315186	
-0.313232	
-0.309448	
-0.310608	
-0.309204	
-0.307007	
-0.307373	
-0.306274	
-0.306091	
-0.30658	
-0.308594	
-0.306763	
-0.308105	
-0.307434	
-0.310669	
-0.311462	
-0.311646	
-0.313782	
-0.315857	
-0.317383	
-0.318848	
-0.319763	
-0.319885	
-0.321899	
-0.322388	
-0.321411	
-0.324951	
-0.326416	
-0.327393	
-0.327942	
-0.329529	
-0.330444	
-0.331543	
-0.333374	
-0.332886	
-0.333801	
-0.334167	
-0.335022	
-0.335632	
-0.336548	
-0.337708	
-0.337769	
-0.338684	
-0.339417	
-0.341003	
-0.339539	
-0.340698	
-0.340637	
-0.340393	
-0.34082	
-0.34082	
-0.34137	
-0.341675	
-0.34259	
-0.342712	
-0.343567	
-0.343201	
-0.343628	
-0.344299	
-0.342896	
-0.343994	
-0.343445	
-0.344666	
-0.344971	
-0.345337	
-0.345337	
-0.345642	
-0.346008	
-0.346313	
-0.346252	
-0.345947	
-0.346497	
-0.345703	
-0.347778	
-0.347412	
-0.348572	
-0.348999	
-0.348633	
-0.348999	
-0.349548	
-0.35083	
-0.349182	
-0.349487	
-0.350037	
-0.350342	
-0.351746	
-0.351746	
-0.351624	
-0.351746	
-0.352112	
-0.351807	
-0.352295	
-0.352173	
-0.350098	
-0.351196	
-0.350403	
-0.352051	
-0.351257	
-0.351746	
-0.35022	
-0.349854	
-0.349915	
-0.348572	
-0.348206	
-0.347351	
-0.346375	
-0.345703	
-0.345764	
-0.345581	
-0.345947	
-0.346313	
-0.345886	
-0.345642	
-0.346741	
-0.346069	
-0.346008	
-0.345337	
-0.344849	
-0.345398	
-0.345703	
-0.346191	
-0.346375	
-0.346497	
-0.346558	
-0.346497	
-0.347229	
-0.346741	
-0.346924	
-0.344971	
-0.346375	
-0.34668	
-0.347168	
-0.347412	
-0.348145	
-0.347473	
-0.348206	
-0.349121	
-0.348389	
-0.349182	
-0.348877	
-0.348694	
-0.349304	
-0.350586	
-0.350891	
-0.35144	
-0.351501	
-0.353088	
-0.353638	
-0.352905	
-0.354248	
-0.353882	
-0.353516	
-0.355103	
-0.354736	
-0.355103	
-0.355835	
-0.356201	
-0.356812	
-0.357605	
-0.356384	
-0.356445	
-0.356995	
-0.355774	
-0.356873	
-0.355774	
-0.35675	
-0.356628	
-0.356567	
-0.356079	
-0.356445	
-0.356506	
-0.356506	
-0.356384	
-0.353516	
-0.355164	
-0.355286	
-0.355957	
-0.356506	
-0.357971	
-0.35614	
-0.356445	
-0.357117	
-0.356873	
-0.35675	
-0.354187	
-0.356262	
-0.35675	
-0.356995	
-0.35675	
-0.357056	
-0.357117	
-0.357666	
-0.358337	
-0.356934	
-0.357178	
-0.355347	
-0.357056	
-0.356628	
-0.355957	
-0.357361	
-0.357971	
-0.357544	
-0.357544	
-0.359802	
-0.356323	
-0.357361	
-0.3573	
-0.357605	
-0.357117	
-0.356567	
-0.357544	
-0.358276	
-0.359314	
-0.358459	
-0.359192	
-0.358276	
-0.358459	
-0.358704	
-0.358154	
-0.358826	
-0.359131	
-0.358521	
-0.359802	
-0.360168	
-0.360107	
-0.360901	
-0.361816	
-0.360596	
-0.361328	
-0.360229	
-0.361755	
-0.362061	
-0.362488	
-0.362	
-0.363342	
-0.364136	
-0.363342	
-0.365479	
-0.36377	
-0.364136	
-0.363525	
-0.362915	
-0.364075	
-0.363281	
-0.362549	
-0.363831	
-0.362671	
-0.363098	
-0.363831	
-0.363647	
-0.361938	
-0.362671	
-0.362122	
-0.362915	
-0.362488	
-0.361755	
-0.361694	
-0.361877	
-0.361816	
-0.361328	
-0.362427	
-0.360168	
-0.360596	
-0.359436	
-0.360352	
-0.359985	
-0.359924	
-0.358765	
-0.360229	
-0.360535	
-0.360718	
-0.361328	
-0.360596	
-0.359619	
-0.359558	
-0.359924	
-0.360962	
-0.360718	
-0.360901	
-0.361572	
-0.361572	
-0.362183	
-0.363159	
-0.362366	
-0.361694	
-0.362	
-0.361755	
-0.363525	
-0.363831	
-0.364746	
-0.364929	
-0.365295	
-0.366577	
-0.366943	
-0.367798	
-0.366028	
-0.365967	
-0.366821	
-0.368042	
-0.367676	
-0.367554	
-0.36676	
-0.368286	
-0.36853	
-0.368103	
-0.368469	
-0.367432	
-0.366638	
-0.36615	
-0.368103	
-0.367554	
-0.367188	
-0.367554	
-0.36731	
-0.367371	
-0.367615	
-0.367981	
-0.366699	
-0.366333	
-0.365845	
-0.365601	
-0.365845	
-0.365601	
-0.365601	
-0.365784	
-0.365479	
-0.366211	
-0.366272	
-0.366272	
-0.365112	
-0.365479	
-0.364563	
-0.365601	
-0.364685	
-0.365601	
-0.364624	
-0.364502	
-0.36499	
-0.365112	
-0.367004	
-0.364868	
-0.363525	
-0.363403	
-0.365601	
-0.364807	
-0.364563	
-0.364075	
-0.364258	
-0.364868	
-0.365906	
-0.365662	
-0.364868	
-0.364685	
-0.364441	
-0.363708	
-0.365601	
-0.365234	
-0.364441	
-0.364563	
-0.365112	
-0.365784	
-0.365784	
-0.365784	
-0.364197	
-0.363586	
-0.363281	
-0.364563	
-0.364136	
-0.364075	
-0.364197	
-0.364258	
-0.36438	
-0.365601	
-0.36615	
-0.364624	
-0.364624	
-0.364746	
-0.363647	
-0.365967	
-0.366211	
-0.365723	
-0.364868	
-0.365906	
-0.366516	
-0.367126	
-0.367126	
-0.366638	
-0.365417	
-0.366821	
-0.36792	
-0.367615	
-0.36731	
-0.367371	
-0.367676	
-0.367798	
-0.369446	
-0.36908	
-0.368164	
-0.368286	
-0.366577	
-0.36853	
-0.368347	
-0.368347	
-0.368164	
-0.367249	
-0.367981	
-0.36792	
-0.369568	
-0.367371	
-0.366821	
-0.364746	
-0.365662	
-0.367554	
-0.36615	
-0.366272	
-0.366028	
-0.365479	
-0.365906	
-0.366333	
-0.36499	
-0.365173	
-0.364136	
-0.363098	
-0.364746	
-0.364746	
-0.364685	
-0.364807	
-0.364136	
-0.364624	
-0.365967	
-0.367432	
-0.365845	
-0.365906	
-0.365112	
-0.367798	
-0.36853	
-0.368652	
-0.368713	
-0.368896	
-0.369751	
-0.371094	
-0.373169	
-0.371704	
-0.371155	
-0.371155	
-0.370667	
-0.372131	
-0.372253	
-0.372131	
-0.371948	
-0.371826	
-0.372803	
-0.37323	
-0.374878	
-0.373108	
-0.37323	
-0.370972	
-0.373108	
-0.373718	
-0.373291	
-0.373535	
-0.373657	
-0.372864	
-0.373413	
-0.375549	
-0.373718	
-0.373901	
-0.373047	
-0.371582	
-0.374207	
-0.374695	
-0.373596	
-0.373291	
-0.373474	
-0.373962	
-0.373901	
-0.375061	
-0.372864	
-0.372131	
-0.369446	
-0.371704	
-0.372375	
-0.370972	
-0.370483	
-0.369873	
-0.369568	
-0.368774	
-0.370605	
-0.368713	
-0.369324	
-0.369507	
-0.367859	
-0.370117	
-0.36908	
-0.369446	
-0.369934	
-0.36969	
-0.36969	
-0.371094	
-0.371948	
-0.370361	
-0.370667	
-0.369934	
-0.372314	
-0.371094	
-0.37146	
-0.371521	
-0.370789	
-0.371643	
-0.372314	
-0.373535	
-0.372192	
-0.371948	
-0.371094	
-0.369873	
-0.372742	
-0.371948	
-0.371765	
-0.371948	
-0.372559	
-0.372742	
-0.374207	
-0.374512	
-0.372437	
-0.371521	
-0.372253	
-0.373291	
-0.373169	
-0.372681	
-0.372681	
-0.373047	
-0.373352	
-0.373901	
-0.374329	
-0.374023	
-0.373535	
-0.371826	
-0.372559	
-0.374756	
-0.374329	
-0.374512	
-0.374207	
-0.374817	
-0.374878	
-0.375977	
-0.376038	
-0.374268	
-0.373718	
-0.373596	
-0.374084	
-0.373352	
-0.373901	
-0.372681	
-0.372986	
-0.373352	
-0.374512	
-0.373413	
-0.373352	
-0.371948	
-0.371277	
-0.370605	
-0.372253	
-0.372192	
-0.371338	
-0.370972	
-0.37085	
-0.371277	
-0.37146	
-0.371765	
-0.369873	
-0.369934	
-0.370117	
-0.371033	
-0.370178	
-0.370117	
-0.370422	
-0.370972	
-0.370667	
-0.37207	
-0.371765	
-0.371155	
-0.370239	
-0.37146	
-0.371094	
-0.372375	
-0.372253	
-0.373047	
-0.372681	
-0.37384	
-0.375183	
-0.374329	
-0.375244	
-0.374329	
-0.373779	
-0.37384	
-0.375305	
-0.374756	
-0.374939	
-0.375244	
-0.375671	
-0.375977	
-0.376892	
-0.377075	
-0.376221	
-0.374573	
-0.375793	
-0.375732	
-0.376343	
-0.375793	
-0.37561	
-0.374939	
-0.375732	
-0.37677	
-0.376282	
-0.376343	
-0.374817	
-0.373962	
-0.373901	
-0.375427	
-0.374512	
-0.373779	
-0.373474	
-0.373962	
-0.373535	
-0.373779	
-0.37323	
-0.371887	
-0.3703	
-0.37085	
-0.369629	
-0.371033	
-0.3703	
-0.371033	
-0.370789	
-0.371094	
-0.37146	
-0.3703	
-0.371826	
-0.370178	
-0.370605	
-0.369934	
-0.371338	
-0.371582	
-0.371887	
-0.371582	
-0.371948	
-0.372864	
-0.372375	
-0.373413	
-0.372681	
-0.370972	
-0.372986	
-0.372375	
-0.373108	
-0.37323	
-0.373413	
-0.37323	
-0.374573	
-0.375732	
-0.374023	
-0.375183	
-0.37384	
-0.375122	
-0.373779	
-0.37616	
-0.375183	
-0.375	
-0.375	
-0.375366	
-0.376099	
-0.375549	
-0.376343	
-0.375671	
-0.375	
-0.375854	
-0.376709	
-0.376526	
-0.37616	
-0.376526	
-0.37616	
-0.37677	
-0.377991	
-0.377136	
-0.377258	
-0.375488	
-0.376709	
-0.375854	
-0.378296	
-0.376831	
-0.376343	
-0.376099	
-0.375854	
-0.377258	
-0.377258	
-0.378479	
-0.376709	
-0.376343	
-0.37616	
-0.378296	
-0.377319	
-0.377869	
-0.377014	
-0.37677	
-0.37793	
-0.378113	
-0.377808	
-0.377258	
-0.376038	
-0.376343	
-0.375854	
-0.377625	
-0.377136	
-0.377197	
-0.376465	
-0.376709	
-0.377441	
-0.377441	
-0.377319	
-0.375854	
-0.376038	
-0.375488	
-0.375183	
-0.37561	
-0.375793	
-0.375305	
-0.375183	
-0.375244	
-0.375244	
-0.37561	
-0.375366	
-0.373779	
-0.373596	
-0.373779	
-0.37561	
-0.374817	
-0.375305	
-0.375061	
-0.375549	
-0.377075	
-0.377502	
-0.377625	
-0.376587	
-0.377014	
-0.376648	
-0.377502	
-0.377319	
-0.377563	
-0.377747	
-0.37854	
-0.379089	
-0.379089	
-0.380249	
-0.380127	
-0.379028	
-0.378906	
-0.379028	
-0.380676	
-0.380005	
-0.380249	
-0.379395	
-0.380127	
-0.38092	
-0.380066	
-0.380432	
-0.379395	
-0.378479	
-0.378296	
-0.377991	
-0.377075	
-0.376282	
-0.376343	
-0.374634	
-0.374878	
-0.375427	
-0.375122	
-0.37439	
-0.372925	
-0.37323	
-0.371887	
-0.374023	
-0.373169	
-0.372559	
-0.372253	
-0.37262	
-0.373718	
-0.373535	
-0.374146	
-0.372253	
-0.372437	
-0.372131	
-0.372559	
-0.372131	
-0.371826	
-0.372131	
-0.371338	
-0.372314	
-0.372864	
-0.372742	
-0.372437	
-0.371887	
-0.372131	
-0.371094	
-0.372925	
-0.372559	
-0.372375	
-0.373291	
-0.372864	
-0.373718	
-0.373535	
-0.375061	
-0.373962	
-0.373596	
-0.374146	
-0.375427	
-0.377319	
-0.376282	
-0.376465	
-0.377441	
-0.378662	
-0.378052	
-0.377747	
-0.377258	
-0.37793	
-0.377686	
-0.377808	
-0.379089	
-0.378418	
-0.377869	
-0.377808	
-0.377075	
-0.378296	
-0.377441	
-0.378235	
-0.375671	
-0.377441	
-0.375854	
-0.376892	
-0.37677	
-0.375916	
-0.375732	
-0.375427	
-0.376831	
-0.376709	
-0.376892	
-0.376343	
-0.375427	
-0.375916	
-0.376343	
-0.375793	
-0.376038	
-0.375916	
-0.376404	
-0.375	
-0.376465	
-0.376038	
-0.376221	
-0.374573	
-0.375671	
-0.374146	
-0.37561	
-0.376282	
-0.375671	
-0.375427	
-0.375244	
-0.376099	
-0.37561	
-0.377014	
-0.375366	
-0.374329	
-0.375244	
-0.37561	
-0.375916	
-0.375977	
-0.375427	
-0.37561	
-0.374878	
-0.375488	
-0.375122	
-0.37561	
-0.373779	
-0.375549	
-0.374573	
-0.375549	
-0.375977	
-0.375916	
-0.376038	
-0.375916	
-0.377075	
-0.377197	
-0.377686	
-0.376526	
-0.376587	
-0.377014	
-0.377319	
-0.377747	
-0.37915	
-0.378113	
-0.378601	
-0.379211	
-0.380005	
-0.380432	
-0.380676	
-0.378845	
-0.379517	
-0.38031	
-0.38031	
-0.380554	
-0.379822	
-0.38031	
-0.3797	
-0.379944	
-0.380432	
-0.380066	
-0.379578	
-0.378418	
-0.378235	
-0.37793	
-0.378967	
-0.379761	
-0.378601	
-0.378967	
-0.377747	
-0.378845	
-0.378357	
-0.377869	
-0.375977	
-0.376526	
-0.376099	
-0.376404	
-0.376526	
-0.376526	
-0.37616	
-0.375793	
-0.376709	
-0.375916	
-0.375854	
-0.375366	
-0.374573	
-0.374512	
-0.375366	
-0.376038	
-0.376099	
-0.376221	
-0.376343	
-0.375916	
-0.377747	
-0.377747	
-0.376831	
-0.375732	
-0.376648	
-0.376953	
-0.377258	
-0.378967	
-0.378418	
-0.378662	
-0.3797	
-0.381042	
-0.380554	
-0.381042	
-0.38092	
-0.380493	
-0.380737	
-0.381226	
-0.38208	
-0.38269	
-0.382629	
-0.382996	
-0.382996	
-0.38324	
-0.382935	
-0.383057	
-0.380859	
-0.382141	
-0.381897	
-0.38208	
-0.382874	
-0.383118	
-0.382813	
-0.382507	
-0.383057	
-0.381897	
-0.382935	
-0.382385	
-0.381653	
-0.380981	
-0.381042	
-0.382141	
-0.382629	
-0.381042	
-0.380493	
-0.380737	
-0.380798	
-0.380432	
-0.380066	
-0.377747	
-0.379639	
-0.378723	
-0.379822	
-0.380249	
-0.3797	
-0.380066	
-0.379883	
-0.380066	
-0.379761	
-0.38031	
-0.37915	
-0.37915	
-0.378845	
-0.378845	
-0.379089	
-0.3797	
-0.378723	
-0.379028	
-0.379456	
-0.379944	
-0.379639	
-0.379578	
-0.378601	
-0.378357	
-0.377808	
-0.378845	
-0.379089	
-0.380066	
-0.379456	
-0.37915	
-0.37854	
-0.379272	
-0.380005	
-0.378479	
-0.378418	
-0.378296	
-0.378296	
-0.378723	
-0.379089	
-0.378479	
-0.378357	
-0.3797	
-0.378906	
-0.379211	
-0.378906	
-0.378235	
-0.378723	
-0.378723	
-0.378906	
-0.379395	
-0.380127	
-0.380188	
-0.380005	
-0.379639	
-0.380249	
-0.380493	
-0.379822	
-0.380859	
-0.380859	
-0.380371	
-0.381226	
-0.381653	
-0.381409	
-0.381836	
-0.382141	
-0.382324	
-0.382568	
-0.38208	
-0.381653	
-0.38208	
-0.381287	
-0.382141	
-0.38269	
-0.382507	
-0.382019	
-0.382568	
-0.381775	
-0.382019	
-0.38208	
-0.380798	
-0.380432	
-0.379883	
-0.379822	
-0.380249	
-0.380371	
-0.380127	
-0.380249	
-0.379944	
-0.379517	
-0.37915	
-0.377991	
-0.377808	
-0.378174	
-0.378357	
-0.378174	
-0.378479	
-0.378906	
-0.378784	
-0.379639	
-0.378662	
-0.378601	
-0.378784	
-0.379639	
-0.378967	
-0.379089	
-0.380188	
-0.38092	
-0.382385	
-0.382263	
-0.382813	
-0.383545	
-0.383057	
-0.384705	
-0.383911	
-0.384583	
-0.384583	
-0.385193	
-0.384033	
-0.38562	
-0.385986	
-0.385803	
-0.386658	
-0.385986	
-0.38623	
-0.386353	
-0.385803	
-0.38678	
-0.386108	
-0.38623	
-0.386414	
-0.387207	
-0.386108	
-0.386841	
-0.387451	
-0.387146	
-0.38739	
-0.386108	
-0.387329	
-0.386719	
-0.386047	
-0.386719	
-0.387268	
-0.386536	
-0.387268	
-0.388306	
-0.387146	
-0.387207	
-0.387024	
-0.385559	
-0.385498	
-0.384705	
-0.384583	
-0.384521	
-0.384888	
-0.384399	
-0.383728	
-0.382874	
-0.382202	
-0.382202	
-0.381348	
-0.382874	
-0.382385	
-0.381104	
-0.382507	
-0.383423	
-0.382324	
-0.382629	
-0.383911	
-0.383545	
-0.383301	
-0.383545	
-0.382629	
-0.38324	
-0.383606	
-0.384644	
-0.384521	
-0.384338	
-0.384583	
-0.385254	
-0.384399	
-0.384827	
-0.384888	
-0.384033	
-0.38562	
-0.384216	
-0.384521	
-0.384338	
-0.385315	
-0.384949	
-0.385254	
-0.385864	
-0.385742	
-0.385315	
-0.38562	
-0.384583	
-0.385559	
-0.385376	
-0.384033	
-0.384949	
-0.385315	
-0.386108	
-0.385864	
-0.385193	
-0.386047	
-0.386108	
-0.385681	
-0.38678	
-0.386658	
-0.386719	
-0.386475	
-0.387146	
-0.386719	
-0.387268	
-0.388245	
-0.387207	
-0.387451	
-0.386658	
-0.386658	
-0.386841	
-0.386169	
-0.38623	
-0.386353	
-0.386414	
-0.38623	
-0.38562	
-0.385071	
-0.38562	
-0.385742	
-0.384583	
-0.385986	
-0.385376	
-0.384399	
-0.384033	
-0.384399	
-0.383728	
-0.384033	
-0.38501	
-0.383911	
-0.382935	
-0.382874	
-0.383606	
-0.382813	
-0.382324	
-0.381592	
-0.382751	
-0.382324	
-0.382751	
-0.383362	
-0.382629	
-0.383728	
-0.383667	
-0.383179	
-0.384033	
-0.383911	
-0.383789	
-0.383667	
-0.383911	
-0.384399	
-0.38501	
-0.386108	
-0.386169	
-0.386047	
-0.386414	
-0.386353	
-0.387634	
-0.386902	
-0.386902	
-0.386841	
-0.387634	
-0.387817	
-0.387939	
-0.388123	
-0.387634	
-0.387695	
-0.387024	
-0.388245	
-0.387817	
-0.387451	
-0.38739	
-0.387146	
-0.387939	
-0.388306	
-0.388733	
-0.386536	
-0.387634	
-0.387146	
-0.386902	
-0.387634	
-0.386658	
-0.386414	
-0.386536	
-0.38739	
-0.386047	
-0.385803	
-0.386658	
-0.384583	
-0.383728	
-0.383606	
-0.383728	
-0.383179	
-0.382568	
-0.382019	
-0.38147	
-0.38208	
-0.382874	
-0.382935	
-0.381653	
-0.381592	
-0.381714	
-0.380371	
-0.382874	
-0.382507	
-0.382202	
-0.382141	
-0.382813	
-0.383545	
-0.383667	
-0.384644	
-0.382935	
-0.383606	
-0.383911	
-0.384094	
-0.38446	
-0.384094	
-0.384155	
-0.383911	
-0.385803	
-0.38562	
-0.385986	
-0.385742	
-0.385376	
-0.385376	
-0.384949	
-0.385864	
-0.385315	
-0.385742	
-0.386292	
-0.385864	
-0.385498	
-0.386414	
-0.387573	
-0.385742	
-0.386536	
-0.386902	
-0.386108	
-0.387695	
-0.386719	
-0.386841	
-0.386902	
-0.388123	
-0.387695	
-0.388489	
-0.388428	
-0.387878	
-0.387695	
-0.387024	
-0.387939	
-0.387939	
-0.38678	
-0.387634	
-0.386536	
-0.387512	
-0.387146	
-0.388062	
-0.38623	
-0.387878	
-0.387512	
-0.38739	
-0.388855	
-0.387207	
-0.387817	
-0.387878	
-0.389282	
-0.388306	
-0.388672	
-0.389038	
-0.388367	
-0.388306	
-0.387268	
-0.388123	
-0.388489	
-0.387573	
-0.387817	
-0.387146	
-0.387451	
-0.38739	
-0.388611	
-0.387268	
-0.386841	
-0.386719	
-0.385986	
-0.38739	
-0.386047	
-0.386475	
-0.386353	
-0.386841	
-0.385986	
-0.386169	
-0.386047	
-0.385742	
-0.385742	
-0.384705	
-0.385437	
-0.385498	
-0.385132	
-0.385925	
-0.385254	
-0.385803	
-0.38623	
-0.387268	
-0.38623	
-0.386597	
-0.387817	
-0.387451	
-0.387695	
-0.387878	
-0.387268	
-0.387573	
-0.388733	
-0.388672	
-0.389038	
-0.389954	
-0.389893	
-0.389709	
-0.39032	
-0.389832	
-0.390991	
-0.390259	
-0.390442	
-0.390259	
-0.391296	
-0.39032	
-0.391174	
-0.39093	
-0.390259	
-0.389832	
-0.389343	
-0.390137	
-0.388916	
-0.386902	
-0.38739	
-0.387207	
-0.38678	
-0.38623	
-0.386719	
-0.383789	
-0.384827	
-0.385071	
-0.384155	
-0.384155	
-0.38385	
-0.383911	
-0.382751	
-0.384338	
-0.383728	
-0.383118	
-0.383667	
-0.383667	
-0.383301	
-0.381653	
-0.383606	
-0.382751	
-0.381714	
-0.382629	
-0.38269	
-0.382813	
-0.382813	
-0.384399	
-0.38208	
-0.382874	
-0.383423	
-0.383118	
-0.382751	
-0.382751	
-0.382629	
-0.382202	
-0.383362	
-0.383362	
-0.38385	
-0.384033	
-0.382751	
-0.38446	
-0.38269	
-0.385559	
-0.385559	
-0.384644	
-0.386353	
-0.387146	
-0.387817	
-0.387512	
-0.388855	
-0.387451	
-0.387329	
-0.38855	
-0.388184	
-0.388855	
-0.387634	
-0.387939	
-0.388489	
-0.388062	
-0.388672	
-0.387695	
-0.388794	
-0.387207	
-0.387024	
-0.386353	
-0.387085	
-0.38739	
-0.385681	
-0.385925	
-0.385742	
-0.386475	
-0.386108	
-0.386841	
-0.386047	
-0.385193	
-0.38623	
-0.385376	
-0.387146	
-0.386169	
-0.386475	
-0.38562	
-0.386414	
-0.386658	
-0.386536	
-0.387146	
-0.385681	
-0.385437	
-0.385193	
-0.386169	
-0.385559	
-0.384888	
-0.385864	
-0.385681	
-0.38562	
-0.386536	
-0.386169	
-0.386047	
-0.38562	
-0.386047	
-0.384094	
-0.385925	
-0.385193	
-0.385193	
-0.385315	
-0.384949	
-0.385254	
-0.385498	
-0.386169	
-0.385193	
-0.38446	
	
