E:\DOCUMENTS AND SETTINGS\JPOTAS\MEUS DOCUMENTOS\UFRJ\RSCI-BM 12 WK SERIES\070718-RSCI-BM-03\RSCI-BM-03-LEMG\070718-RSCI-BM-03-LEMG-0008.ACQ
0.025000 msec/sample
1 channel
Analog input
Volts
CH1	
2000	
-0.387939	
-0.388611	
-0.388672	
-0.389343	
-0.388	
-0.388977	
-0.388916	
-0.389709	
-0.390198	
-0.390442	
-0.389709	
-0.389282	
-0.387817	
-0.389282	
-0.390808	
-0.391296	
-0.39093	
-0.391418	
-0.391235	
-0.391418	
-0.392334	
-0.392273	
-0.392273	
-0.392578	
-0.391907	
-0.392822	
-0.393005	
-0.394104	
-0.393188	
-0.393433	
-0.39325	
-0.392761	
-0.393738	
-0.394714	
-0.394043	
-0.393799	
-0.393311	
-0.393921	
-0.393311	
-0.393616	
-0.392944	
-0.391968	
-0.3927	
-0.391541	
-0.392456	
-0.394531	
-0.393433	
-0.391907	
-0.391785	
-0.391296	
-0.390686	
-0.392151	
-0.392151	
-0.391785	
-0.392517	
-0.391785	
-0.3927	
-0.393372	
-0.393188	
-0.393311	
-0.393433	
-0.391724	
-0.393677	
-0.394287	
-0.393677	
-0.394043	
-0.393555	
-0.393311	
-0.393799	
-0.394714	
-0.394714	
-0.394897	
-0.394043	
-0.393372	
-0.394592	
-0.394226	
-0.394165	
-0.393555	
-0.392761	
-0.393311	
-0.393738	
-0.394348	
-0.39502	
-0.394714	
-0.393555	
-0.392517	
-0.393372	
-0.392517	
-0.392944	
-0.392822	
-0.393066	
-0.392578	
-0.393188	
-0.393921	
-0.394958	
-0.394104	
-0.393799	
-0.393921	
-0.393311	
-0.395081	
-0.395447	
-0.395203	
-0.395508	
-0.395508	
-0.395569	
-0.396545	
-0.397644	
-0.396362	
-0.397583	
-0.396179	
-0.395935	
-0.397461	
-0.397461	
-0.396301	
-0.395935	
-0.395996	
-0.395691	
-0.395752	
-0.396423	
-0.396301	
-0.396423	
-0.395203	
-0.393677	
-0.394836	
-0.394653	
-0.394653	
-0.393982	
-0.392639	
-0.393372	
-0.393799	
-0.393799	
-0.393982	
-0.393066	
-0.392212	
-0.391968	
-0.391663	
-0.391479	
-0.392517	
-0.392822	
-0.391785	
-0.391174	
-0.392639	
-0.3927	
-0.393311	
-0.393616	
-0.393005	
-0.391724	
-0.391418	
-0.392578	
-0.393188	
-0.392151	
-0.392395	
-0.392517	
-0.392395	
-0.392151	
-0.392822	
-0.393372	
-0.393066	
-0.392151	
-0.391174	
-0.393005	
-0.393982	
-0.392578	
-0.392761	
-0.392334	
-0.392883	
-0.392822	
-0.392883	
-0.393188	
-0.393188	
-0.392395	
-0.391846	
-0.393433	
-0.393372	
-0.3927	
-0.392151	
-0.392578	
-0.391968	
-0.3927	
-0.393066	
-0.393127	
-0.394043	
-0.392517	
-0.392944	
-0.393066	
-0.392822	
-0.392578	
-0.3927	
-0.391357	
-0.392151	
-0.392944	
-0.392761	
-0.394165	
-0.394531	
-0.393982	
-0.394226	
-0.393005	
-0.187195	
0.097229	
-0.0162964	
-0.0465698	
-0.0512695	
-0.0484009	
-0.422729	
-0.509155	
-0.394592	
-0.356995	
-0.341858	
-0.334778	
-0.330322	
-0.328674	
-0.328186	
-0.326721	
-0.325562	
-0.325439	
-0.325317	
-0.327271	
-0.325684	
-0.324951	
-0.323059	
-0.323853	
-0.32373	
-0.324646	
-0.324463	
-0.325073	
-0.325684	
-0.325439	
-0.325806	
-0.3255	
-0.326538	
-0.325745	
-0.324219	
-0.325806	
-0.325745	
-0.326843	
-0.328186	
-0.327698	
-0.0854492	
0.160339	
0.0478516	
0.0181885	
0.0118408	
0.0172729	
-0.379272	
-0.442383	
-0.327087	
-0.2901	
-0.277283	
-0.271606	
-0.269165	
-0.268738	
-0.26886	
-0.270569	
-0.273315	
-0.278076	
-0.280579	
-0.283264	
-0.286743	
-0.289917	
-0.294128	
-0.297546	
-0.300598	
-0.304749	
-0.309265	
-0.314758	
-0.321167	
-0.328125	
-0.33429	
-0.342041	
-0.350281	
-0.357605	
-0.364929	
-0.370117	
-0.375183	
-0.378967	
-0.38269	
-0.386108	
-0.39093	
-0.392151	
-0.393311	
-0.394836	
-0.395996	
-0.397827	
-0.399475	
-0.399536	
-0.399231	
-0.399719	
-0.400085	
-0.399719	
-0.399414	
-0.398132	
-0.397644	
-0.39502	
-0.398132	
-0.399597	
-0.399719	
-0.40094	
-0.401367	
-0.402588	
-0.40448	
-0.408325	
-0.408997	
-0.410522	
-0.411438	
-0.412903	
-0.415527	
-0.417175	
-0.41748	
-0.417358	
-0.417297	
-0.417175	
-0.418457	
-0.415833	
-0.412781	
-0.409729	
-0.406738	
-0.404663	
-0.40332	
-0.400024	
-0.397888	
-0.394653	
-0.391663	
-0.388672	
-0.385559	
-0.382263	
-0.378296	
-0.372681	
-0.370239	
-0.367676	
-0.362976	
-0.358826	
-0.35376	
-0.348633	
-0.344421	
-0.340576	
-0.335388	
-0.329407	
-0.32312	
-0.316467	
-0.314148	
-0.309814	
-0.304565	
-0.299927	
-0.29425	
-0.289185	
-0.284363	
-0.280762	
-0.275574	
-0.270386	
-0.263245	
-0.255554	
-0.25177	
-0.247375	
-0.241333	
-0.234558	
-0.229065	
-0.22168	
-0.21582	
-0.210815	
-0.204956	
-0.198486	
-0.191162	
-0.181763	
-0.178833	
-0.173767	
-0.168396	
-0.163879	
-0.159485	
-0.155151	
-0.151489	
-0.150208	
-0.146179	
-0.145142	
-0.144287	
-0.143982	
-0.144531	
-0.146973	
-0.149658	
-0.152283	
-0.155945	
-0.159729	
-0.164673	
-0.168396	
-0.171814	
-0.17572	
-0.179016	
-0.184692	
-0.189209	
-0.193359	
-0.196594	
-0.2005	
-0.205017	
-0.210022	
-0.213745	
-0.217773	
-0.21936	
-0.222656	
-0.22876	
-0.232971	
-0.237427	
-0.241028	
-0.245361	
-0.250305	
-0.253906	
-0.257629	
-0.260437	
-0.261292	
-0.264771	
-0.266663	
-0.268433	
-0.270996	
-0.2724	
-0.273987	
-0.275208	
-0.275696	
-0.277161	
-0.276367	
-0.277039	
-0.276245	
-0.276428	
-0.275635	
-0.275696	
-0.275635	
-0.274597	
-0.273438	
-0.271484	
-0.270386	
-0.269531	
-0.268921	
-0.266113	
-0.263489	
-0.263611	
-0.263062	
-0.26062	
-0.259583	
-0.258057	
-0.256287	
-0.256897	
-0.257385	
-0.255676	
-0.254395	
-0.254089	
-0.254272	
-0.2547	
-0.254517	
-0.255066	
-0.256226	
-0.25708	
-0.258667	
-0.260193	
-0.260925	
-0.262573	
-0.26416	
-0.263977	
-0.268127	
-0.271301	
-0.272034	
-0.275391	
-0.278442	
-0.280823	
-0.284119	
-0.287781	
-0.289673	
-0.292542	
-0.295166	
-0.298157	
-0.300293	
-0.30249	
-0.305847	
-0.307373	
-0.309875	
-0.312073	
-0.314697	
-0.315735	
-0.316833	
-0.319031	
-0.320496	
-0.322571	
-0.324707	
-0.325989	
-0.327332	
-0.329529	
-0.331421	
-0.333679	
-0.33429	
-0.335144	
-0.335999	
-0.336731	
-0.338989	
-0.338623	
-0.339539	
-0.34082	
-0.340942	
-0.341431	
-0.343384	
-0.342285	
-0.342224	
-0.34259	
-0.341858	
-0.342773	
-0.342712	
-0.341187	
-0.341736	
-0.340637	
-0.339905	
-0.340149	
-0.338501	
-0.337097	
-0.334961	
-0.331909	
-0.33197	
-0.330872	
-0.328857	
-0.326416	
-0.324402	
-0.322449	
-0.321106	
-0.319153	
-0.315857	
-0.312439	
-0.309204	
-0.307251	
-0.304199	
-0.300964	
-0.297852	
-0.295776	
-0.29303	
-0.292114	
-0.28949	
-0.286499	
-0.284119	
-0.280945	
-0.280823	
-0.279114	
-0.278198	
-0.276611	
-0.276245	
-0.275513	
-0.27594	
-0.276367	
-0.276855	
-0.276489	
-0.276428	
-0.27771	
-0.279663	
-0.280334	
-0.281616	
-0.28241	
-0.283936	
-0.285339	
-0.28772	
-0.288208	
-0.288757	
-0.289612	
-0.290466	
-0.292053	
-0.293518	
-0.29541	
-0.296265	
-0.296997	
-0.298523	
-0.299377	
-0.300903	
-0.302551	
-0.302429	
-0.303101	
-0.305176	
-0.306641	
-0.307312	
-0.309143	
-0.308899	
-0.310059	
-0.312134	
-0.3125	
-0.313232	
-0.31366	
-0.314453	
-0.315796	
-0.315186	
-0.316895	
-0.317505	
-0.318176	
-0.31842	
-0.318481	
-0.319458	
-0.319641	
-0.320313	
-0.319458	
-0.319519	
-0.319885	
-0.320679	
-0.321533	
-0.320801	
-0.320679	
-0.321106	
-0.321106	
-0.320862	
-0.321716	
-0.322083	
-0.321777	
-0.322388	
-0.322449	
-0.322815	
-0.322815	
-0.324097	
-0.322937	
-0.322449	
-0.323669	
-0.323303	
-0.323608	
-0.323364	
-0.322571	
-0.323547	
-0.324036	
-0.324341	
-0.324829	
-0.325134	
-0.324768	
-0.325623	
-0.324829	
-0.325867	
-0.327209	
-0.326721	
-0.326965	
-0.327454	
-0.328796	
-0.328186	
-0.330017	
-0.32782	
-0.328308	
-0.329651	
-0.328613	
-0.328918	
-0.328674	
-0.327881	
-0.328552	
-0.329102	
-0.329102	
-0.32959	
-0.328186	
-0.327637	
-0.328674	
-0.328186	
-0.327881	
-0.327332	
-0.325684	
-0.327698	
-0.327271	
-0.327576	
-0.327576	
-0.327515	
-0.326782	
-0.326843	
-0.326538	
-0.326721	
-0.326538	
-0.326233	
-0.327087	
-0.326965	
-0.327759	
-0.326843	
-0.327637	
-0.326965	
-0.327087	
-0.328613	
-0.326782	
-0.326538	
-0.326172	
-0.327087	
-0.327209	
-0.327576	
-0.327698	
-0.329224	
-0.32782	
-0.32782	
-0.328552	
-0.327637	
-0.32959	
-0.328613	
-0.32843	
-0.329651	
-0.330261	
-0.330566	
-0.331421	
-0.331909	
-0.330566	
-0.332825	
-0.331299	
-0.332397	
-0.333618	
-0.332336	
-0.333801	
-0.334778	
-0.335815	
-0.335388	
-0.335693	
-0.335144	
-0.335266	
-0.336792	
-0.336365	
-0.336121	
-0.336304	
-0.336792	
-0.337036	
-0.337524	
-0.336853	
-0.337463	
-0.336914	
-0.336426	
-0.33783	
-0.336121	
-0.33667	
-0.336975	
-0.335327	
-0.336731	
-0.336731	
-0.338074	
-0.33783	
-0.338257	
-0.337219	
-0.338318	
-0.339294	
-0.338562	
-0.338867	
-0.339294	
-0.339783	
-0.340454	
-0.340515	
-0.340576	
-0.341187	
-0.34082	
-0.340271	
-0.341736	
-0.34021	
-0.342163	
-0.341858	
-0.341675	
-0.342468	
-0.342407	
-0.342712	
-0.343323	
-0.343323	
-0.342468	
-0.34259	
-0.34259	
-0.342834	
-0.342224	
-0.340454	
-0.342346	
-0.342957	
-0.342834	
-0.342285	
-0.342468	
-0.342407	
-0.341797	
-0.342896	
-0.342041	
-0.342896	
-0.341919	
-0.342773	
-0.343018	
-0.343689	
-0.343872	
-0.344116	
-0.34436	
-0.344238	
-0.345215	
-0.344727	
-0.345886	
-0.345154	
-0.34613	
-0.346252	
-0.346741	
-0.347229	
-0.347534	
-0.348022	
-0.347168	
-0.347351	
-0.347046	
-0.347351	
-0.346863	
-0.345459	
-0.347229	
-0.346863	
-0.347778	
-0.347717	
-0.347107	
-0.347412	
-0.346191	
-0.347534	
-0.346924	
-0.346497	
-0.345581	
-0.346375	
-0.346008	
-0.345825	
-0.346069	
-0.346863	
-0.345947	
-0.345459	
-0.346191	
-0.345215	
-0.344849	
-0.345154	
-0.345276	
-0.345764	
-0.345947	
-0.346436	
-0.34613	
-0.346191	
-0.346497	
-0.346619	
-0.345703	
-0.345825	
-0.346497	
-0.344727	
-0.346558	
-0.346741	
-0.347046	
-0.346619	
-0.347412	
-0.347412	
-0.346069	
-0.348938	
-0.34729	
-0.347717	
-0.347778	
-0.348145	
-0.348206	
-0.348328	
-0.348511	
-0.348572	
-0.348511	
-0.349121	
-0.349548	
-0.348572	
-0.348389	
-0.348816	
-0.348145	
-0.34906	
-0.348877	
-0.349426	
-0.349121	
-0.349915	
-0.349243	
-0.349548	
-0.349243	
-0.348816	
-0.348694	
-0.348572	
-0.350342	
-0.350037	
-0.350037	
-0.350098	
-0.35083	
-0.350159	
-0.350525	
-0.351318	
-0.350525	
-0.350891	
-0.351135	
-0.351196	
-0.351807	
-0.351379	
-0.3526	
-0.352112	
-0.352844	
-0.353027	
-0.353516	
-0.352173	
-0.352356	
-0.351868	
-0.350952	
-0.353455	
-0.353638	
-0.354065	
-0.354004	
-0.354431	
-0.353455	
-0.354126	
-0.355347	
-0.353821	
-0.354126	
-0.353821	
-0.35376	
-0.353149	
-0.353333	
-0.353821	
-0.353699	
-0.354065	
-0.353943	
-0.354309	
-0.352966	
-0.353333	
-0.352234	
-0.351685	
-0.353577	
-0.353699	
-0.354126	
-0.353394	
-0.354858	
-0.354248	
-0.354431	
-0.354797	
-0.353699	
-0.354492	
-0.354004	
-0.354126	
-0.354492	
-0.355225	
-0.355469	
-0.355591	
-0.355591	
-0.355652	
-0.357788	
-0.355896	
-0.357117	
-0.356384	
-0.356628	
-0.35791	
-0.358459	
-0.358826	
-0.358215	
-0.359619	
-0.358948	
-0.360107	
-0.359436	
-0.360046	
-0.359863	
-0.358643	
-0.360474	
-0.360352	
-0.360779	
-0.361572	
-0.361267	
-0.361328	
-0.36145	
-0.36261	
-0.360657	
-0.361328	
-0.360107	
-0.360718	
-0.361511	
-0.361084	
-0.361877	
-0.361206	
-0.361633	
-0.361145	
-0.361938	
-0.36084	
-0.35968	
-0.359009	
-0.35907	
-0.359192	
-0.358215	
-0.358521	
-0.359009	
-0.357605	
-0.358215	
-0.358154	
-0.358215	
-0.3573	
-0.357361	
-0.355469	
-0.356995	
-0.357483	
-0.357971	
-0.358398	
-0.358215	
-0.359009	
-0.358582	
-0.360474	
-0.360168	
-0.358643	
-0.358948	
-0.360046	
-0.360962	
-0.361267	
-0.362549	
-0.363342	
-0.363159	
-0.364197	
-0.364075	
-0.36438	
-0.363464	
-0.364136	
-0.363403	
-0.363953	
-0.364929	
-0.36499	
-0.36554	
-0.365845	
-0.366882	
-0.366516	
-0.36676	
-0.367432	
-0.365479	
-0.366516	
-0.365845	
-0.366455	
-0.366821	
-0.367798	
-0.368347	
-0.367432	
-0.368347	
-0.368835	
-0.368774	
-0.368042	
-0.367676	
-0.36731	
-0.366943	
-0.367676	
-0.367615	
-0.368225	
-0.368286	
-0.368103	
-0.367615	
-0.366333	
-0.36676	
-0.365906	
-0.365173	
-0.36554	
-0.365295	
-0.365112	
-0.364807	
-0.365479	
-0.365295	
-0.365662	
-0.365662	
-0.364746	
-0.364563	
-0.364014	
-0.364197	
-0.364075	
-0.365662	
-0.365173	
-0.366028	
-0.365662	
-0.365723	
-0.366577	
-0.365051	
-0.366211	
-0.365784	
-0.365112	
-0.366089	
-0.366394	
-0.366882	
-0.367004	
-0.367859	
-0.367126	
-0.367065	
-0.367981	
-0.367554	
-0.366882	
-0.365479	
-0.366516	
-0.36554	
-0.366394	
-0.367188	
-0.366638	
-0.366089	
-0.36554	
-0.366943	
-0.365417	
-0.366882	
-0.365295	
-0.364502	
-0.365051	
-0.365784	
-0.366272	
-0.365601	
-0.366089	
-0.366455	
-0.366394	
-0.36676	
-0.366577	
-0.366211	
-0.365112	
-0.36676	
-0.365417	
-0.36676	
-0.367249	
-0.367432	
-0.367493	
-0.366943	
-0.368774	
-0.367493	
-0.369263	
-0.367432	
-0.367981	
-0.367004	
-0.368652	
-0.368103	
-0.368164	
-0.368835	
-0.367554	
-0.368347	
-0.367737	
-0.367981	
-0.366333	
-0.364624	
-0.365601	
-0.36499	
-0.36615	
-0.366089	
-0.366089	
-0.365234	
-0.365967	
-0.367432	
-0.364929	
-0.366394	
-0.365723	
-0.366211	
-0.365234	
-0.366638	
-0.366577	
-0.366638	
-0.367554	
-0.367126	
-0.367493	
-0.36792	
-0.368347	
-0.367615	
-0.365662	
-0.368591	
-0.368225	
-0.368958	
-0.369202	
-0.369934	
-0.369507	
-0.370117	
-0.372009	
-0.369385	
-0.371216	
-0.370117	
-0.371033	
-0.370117	
-0.371582	
-0.37146	
-0.371521	
-0.372681	
-0.371521	
-0.371399	
-0.371094	
-0.373047	
-0.371155	
-0.369934	
-0.371399	
-0.371826	
-0.371704	
-0.372375	
-0.372131	
-0.372009	
-0.372009	
-0.372864	
-0.37146	
-0.371643	
-0.371094	
-0.372498	
-0.370117	
-0.37262	
-0.372131	
-0.37207	
-0.372742	
-0.372864	
-0.372864	
-0.371643	
-0.374207	
-0.372681	
-0.371826	
-0.37207	
-0.372314	
-0.373291	
-0.373169	
-0.373047	
-0.372498	
-0.37323	
-0.374817	
-0.372986	
-0.373596	
-0.37207	
-0.372742	
-0.37146	
-0.373474	
-0.373474	
-0.37384	
-0.374634	
-0.373535	
-0.375061	
-0.373474	
-0.375183	
-0.373352	
-0.37323	
-0.373657	
-0.374146	
-0.373718	
-0.373413	
-0.373962	
-0.373779	
-0.37439	
-0.374329	
-0.372803	
-0.373962	
-0.371948	
-0.373352	
-0.371643	
-0.37384	
-0.373291	
-0.373352	
-0.373535	
-0.373108	
-0.373718	
-0.373108	
-0.374573	
-0.373169	
-0.373169	
-0.373596	
-0.373169	
-0.373413	
-0.374207	
-0.37384	
-0.375366	
-0.375427	
-0.375183	
-0.375122	
-0.375	
-0.373169	
-0.375	
-0.373108	
-0.375	
-0.375549	
-0.375305	
-0.375732	
-0.375977	
-0.377319	
-0.375793	
-0.376953	
-0.375244	
-0.375366	
-0.375305	
-0.375488	
-0.375305	
-0.375793	
-0.375854	
-0.37616	
-0.375427	
-0.376221	
-0.374817	
-0.374634	
-0.37323	
-0.374023	
-0.372192	
-0.374146	
-0.374084	
-0.373535	
-0.373962	
-0.373535	
-0.374695	
-0.37323	
-0.374451	
-0.372375	
-0.372559	
-0.371765	
-0.372681	
-0.372314	
-0.37262	
-0.372009	
-0.372803	
-0.372498	
-0.372253	
-0.372131	
-0.372253	
-0.370667	
-0.372375	
-0.370728	
-0.372925	
-0.373291	
-0.373047	
-0.373352	
-0.373779	
-0.375244	
-0.374023	
-0.376221	
-0.374695	
-0.375305	
-0.375549	
-0.37616	
-0.377136	
-0.377747	
-0.37793	
-0.378845	
-0.378723	
-0.379333	
-0.378906	
-0.378601	
-0.377197	
-0.37915	
-0.377258	
-0.379456	
-0.379211	
-0.379272	
-0.379517	
-0.378845	
-0.380005	
-0.378906	
-0.3797	
-0.37793	
-0.378601	
-0.377686	
-0.37738	
-0.377197	
-0.377197	
-0.377014	
-0.376831	
-0.375793	
-0.376099	
-0.375916	
-0.375366	
-0.373596	
-0.374573	
-0.373352	
-0.375	
-0.375061	
-0.374329	
-0.375	
-0.374817	
-0.375854	
-0.374756	
-0.375061	
-0.373718	
-0.37439	
-0.374023	
-0.373413	
-0.37384	
-0.373596	
-0.374451	
-0.37561	
-0.374756	
-0.374817	
-0.374878	
-0.375427	
-0.373047	
-0.374939	
-0.374695	
-0.375061	
-0.375427	
-0.376038	
-0.37677	
-0.376465	
-0.378113	
-0.376648	
-0.377441	
-0.376526	
-0.377502	
-0.377502	
-0.377686	
-0.37915	
-0.3797	
-0.378967	
-0.379578	
-0.380432	
-0.380066	
-0.380188	
-0.380432	
-0.379211	
-0.380005	
-0.380127	
-0.379639	
-0.380493	
-0.380249	
-0.38092	
-0.380188	
-0.380432	
-0.38031	
-0.380127	
-0.379944	
-0.378906	
-0.379089	
-0.37915	
-0.380127	
-0.379456	
-0.379333	
-0.38031	
-0.37915	
-0.380005	
-0.380005	
-0.379639	
-0.378113	
-0.379822	
-0.379883	
-0.380066	
-0.38031	
-0.380737	
-0.381531	
-0.381409	
-0.382629	
-0.381775	
-0.38147	
-0.382568	
-0.381653	
-0.380981	
-0.38269	
-0.382324	
-0.382324	
-0.382324	
-0.382996	
-0.382996	
-0.383606	
-0.38324	
-0.382629	
-0.381226	
-0.382507	
-0.382446	
-0.381287	
-0.38269	
-0.383057	
-0.382202	
-0.381958	
-0.38324	
-0.382629	
-0.381226	
-0.382263	
-0.381409	
-0.381104	
-0.381775	
-0.38147	
-0.382751	
-0.382751	
-0.383606	
-0.382935	
-0.38385	
-0.384094	
-0.383667	
-0.382935	
-0.384644	
-0.384644	
-0.38385	
-0.38623	
-0.385498	
-0.385803	
-0.386658	
-0.387329	
-0.38623	
-0.387024	
-0.38623	
-0.384888	
-0.385986	
-0.386047	
-0.385193	
-0.385498	
-0.38562	
-0.386353	
-0.385925	
-0.386353	
-0.385681	
-0.384888	
-0.38501	
-0.38446	
-0.383911	
-0.384155	
-0.38446	
-0.384155	
-0.383789	
-0.384766	
-0.384338	
-0.383423	
-0.383301	
-0.383423	
-0.382324	
-0.382507	
-0.383057	
-0.38269	
-0.382568	
-0.383057	
-0.383057	
-0.383179	
-0.384949	
-0.383606	
-0.382568	
-0.382996	
-0.383362	
-0.38269	
-0.382874	
-0.382141	
-0.383179	
-0.383789	
-0.383545	
-0.383606	
-0.384216	
-0.384521	
-0.383301	
-0.381897	
-0.383667	
-0.38385	
-0.383423	
-0.383728	
-0.383972	
-0.384033	
-0.384094	
-0.385742	
-0.384888	
-0.382935	
-0.383911	
-0.384705	
-0.383301	
-0.38446	
-0.384399	
-0.383789	
-0.383728	
-0.385376	
-0.384033	
-0.384766	
-0.385498	
-0.384277	
-0.382385	
-0.384827	
-0.384399	
-0.384583	
-0.384216	
-0.384338	
-0.384521	
-0.385681	
-0.386353	
-0.384949	
-0.38385	
-0.384949	
-0.385559	
-0.38501	
-0.385681	
-0.386353	
-0.384827	
-0.386414	
-0.387024	
-0.386963	
-0.386902	
-0.386292	
-0.386108	
-0.384644	
-0.387268	
-0.386963	
-0.387085	
-0.386719	
-0.386169	
-0.387329	
-0.387268	
-0.387939	
-0.386963	
-0.387024	
-0.386963	
-0.387329	
-0.387207	
-0.386536	
-0.385803	
-0.386719	
-0.386475	
-0.387573	
-0.387024	
-0.387268	
-0.386169	
-0.38623	
-0.385071	
-0.385986	
-0.385254	
-0.386047	
-0.386047	
-0.385742	
-0.386658	
-0.386963	
-0.386719	
-0.386169	
-0.386658	
-0.386536	
-0.385132	
-0.386353	
-0.386353	
-0.386902	
-0.386536	
-0.385925	
-0.387939	
-0.388	
-0.389099	
-0.388245	
-0.388123	
-0.387695	
-0.388489	
-0.389282	
-0.389343	
-0.389343	
-0.389099	
-0.390198	
-0.391174	
-0.390869	
-0.391296	
-0.391052	
-0.390808	
-0.391052	
-0.391113	
-0.390442	
-0.391846	
-0.391846	
-0.390808	
-0.39209	
-0.392212	
-0.392761	
-0.39209	
-0.391602	
-0.391785	
-0.391113	
-0.392517	
-0.391785	
-0.391174	
-0.391174	
-0.391296	
-0.391418	
-0.391113	
-0.391235	
-0.389893	
-0.390137	
-0.388123	
-0.38855	
-0.388123	
-0.388	
-0.387756	
-0.38623	
-0.387207	
-0.387756	
-0.387634	
-0.387146	
-0.386597	
-0.386169	
-0.386963	
-0.38678	
-0.386169	
-0.386902	
-0.386475	
-0.38678	
-0.387695	
-0.387573	
-0.387817	
-0.388977	
-0.387268	
-0.388184	
-0.388489	
-0.389771	
-0.38916	
-0.390503	
-0.390259	
-0.391174	
-0.391846	
-0.392456	
-0.392456	
-0.392273	
-0.392883	
-0.391968	
-0.392212	
-0.3927	
-0.392456	
-0.393005	
-0.393127	
-0.393677	
-0.394226	
-0.393738	
-0.39386	
-0.393494	
-0.393921	
-0.394043	
-0.39386	
-0.393982	
-0.39447	
-0.393921	
-0.395264	
-0.394958	
-0.395752	
-0.394592	
-0.395386	
-0.393738	
-0.395325	
-0.394531	
-0.394104	
-0.393799	
-0.394775	
-0.393982	
-0.393555	
-0.393738	
-0.392761	
-0.392883	
-0.392639	
-0.390503	
-0.391235	
-0.392273	
-0.391418	
-0.389648	
-0.390747	
-0.390503	
-0.390564	
-0.391846	
-0.390503	
-0.390869	
-0.390686	
-0.391724	
-0.391479	
-0.390686	
-0.390808	
-0.390747	
-0.389709	
-0.391663	
-0.391907	
-0.391235	
-0.390808	
-0.391113	
-0.389526	
-0.392395	
-0.392761	
-0.39093	
-0.39209	
-0.391785	
-0.392273	
-0.391663	
-0.393494	
-0.391907	
-0.392151	
-0.392456	
-0.392029	
-0.392273	
-0.391785	
-0.391296	
-0.389465	
-0.390015	
-0.389893	
-0.390808	
-0.391541	
-0.390015	
-0.389587	
-0.390137	
-0.390076	
-0.390381	
-0.389404	
-0.389099	
-0.389221	
-0.389832	
-0.389954	
-0.390686	
-0.390625	
-0.390381	
-0.390015	
-0.389648	
-0.391052	
-0.391113	
-0.389587	
-0.390381	
-0.390381	
-0.391357	
-0.391663	
-0.392212	
-0.391479	
-0.391541	
-0.391052	
-0.390564	
-0.392273	
-0.391113	
-0.390259	
-0.389954	
-0.389832	
-0.391052	
-0.391052	
-0.390137	
-0.389893	
-0.389832	
-0.389404	
-0.388916	
-0.388855	
-0.388428	
-0.387817	
-0.387268	
-0.388245	
-0.388428	
-0.388916	
-0.389465	
-0.388428	
-0.388367	
-0.389099	
-0.389587	
-0.389526	
-0.388306	
-0.389343	
-0.388367	
-0.389526	
-0.390076	
-0.389893	
-0.390076	
-0.389832	
-0.39093	
-0.390137	
-0.391479	
-0.390442	
-0.390869	
-0.391479	
-0.390991	
-0.392151	
-0.393311	
-0.392639	
-0.392883	
-0.393005	
-0.393555	
-0.392639	
-0.393005	
-0.392212	
-0.392151	
-0.39093	
-0.39209	
-0.392822	
-0.392883	
-0.392639	
-0.392944	
-0.39209	
-0.392395	
-0.391907	
-0.392822	
-0.391724	
-0.392334	
-0.390564	
-0.392578	
-0.392944	
-0.393127	
-0.393188	
-0.392761	
-0.392334	
-0.392151	
-0.39325	
-0.392761	
-0.392578	
-0.391602	
-0.392456	
-0.392944	
-0.393799	
-0.392761	
-0.393372	
-0.392456	
-0.393066	
-0.392456	
-0.394043	
-0.391968	
-0.392334	
-0.392273	
-0.393188	
-0.392456	
-0.393799	
-0.3927	
-0.393433	
-0.392639	
-0.393494	
-0.392578	
-0.392334	
-0.392456	
-0.392822	
-0.390869	
-0.392456	
-0.392639	
-0.392761	
-0.392639	
-0.39325	
-0.392334	
-0.3927	
-0.393005	
-0.39209	
-0.391541	
-0.391479	
-0.390625	
-0.391724	
-0.391479	
-0.391296	
-0.391724	
-0.392578	
-0.391663	
-0.391357	
-0.391418	
-0.390076	
-0.389526	
-0.390381	
-0.391418	
-0.391174	
-0.392151	
-0.391418	
-0.391174	
-0.391113	
-0.391174	
-0.391968	
-0.392334	
-0.392151	
-0.391296	
-0.390625	
-0.391235	
-0.392212	
-0.391968	
-0.392151	
-0.391968	
-0.392029	
-0.393311	
-0.393311	
-0.392151	
-0.391968	
-0.392456	
-0.391663	
-0.39209	
-0.392456	
-0.391907	
-0.391602	
-0.392151	
-0.391113	
-0.392944	
-0.392151	
-0.390503	
-0.391113	
-0.390564	
-0.39032	
-0.390686	
-0.39093	
-0.389648	
-0.390381	
-0.390198	
-0.389038	
-0.389771	
-0.389404	
-0.388306	
-0.387939	
-0.387085	
-0.387573	
-0.388123	
-0.388672	
-0.388	
-0.387634	
-0.388245	
-0.387573	
-0.388367	
-0.387939	
-0.386902	
-0.386292	
-0.386292	
-0.387207	
-0.38739	
-0.387756	
-0.387329	
-0.387695	
-0.388184	
-0.388611	
-0.389099	
-0.388489	
-0.387878	
-0.388123	
-0.38916	
-0.389832	
-0.390503	
-0.390137	
-0.390625	
-0.391479	
-0.391541	
-0.393066	
-0.392212	
-0.392517	
-0.393005	
-0.392212	
-0.39209	
-0.393066	
-0.393738	
-0.393494	
-0.3927	
-0.392944	
-0.392395	
-0.393066	
-0.392456	
-0.391418	
-0.391785	
-0.390808	
-0.390808	
-0.39209	
-0.391541	
-0.390991	
-0.390198	
-0.390625	
-0.389465	
-0.390015	
-0.388855	
-0.387939	
-0.38678	
-0.387756	
-0.386841	
-0.387024	
-0.388428	
-0.387512	
-0.38739	
-0.386841	
-0.388062	
-0.387878	
-0.386719	
-0.386353	
-0.386841	
-0.385742	
-0.386169	
-0.386292	
-0.38739	
	
