E:\DOCUMENTS AND SETTINGS\JPOTAS\MEUS DOCUMENTOS\UFRJ\RSCI-BM 12 WK SERIES\070718-RSCI-BM-03\RSCI-BM-03-LEMG\070718-RSCI-BM-03-LEMG-0020.ACQ
0.025000 msec/sample
1 channel
Analog input
Volts
CH1	
2000	
-0.391235	
-0.391174	
-0.391846	
-0.392456	
-0.390381	
-0.391541	
-0.390198	
-0.39032	
-0.391968	
-0.392761	
-0.392151	
-0.391724	
-0.391663	
-0.391785	
-0.392151	
-0.392334	
-0.390747	
-0.391174	
-0.391174	
-0.390442	
-0.391785	
-0.392395	
-0.392212	
-0.391724	
-0.392517	
-0.392761	
-0.393738	
-0.394409	
-0.392822	
-0.3927	
-0.393616	
-0.392517	
-0.393555	
-0.39386	
-0.393799	
-0.393555	
-0.393433	
-0.393982	
-0.394531	
-0.394592	
-0.393372	
-0.39386	
-0.39325	
-0.392639	
-0.393677	
-0.393311	
-0.393616	
-0.393433	
-0.393188	
-0.39386	
-0.395264	
-0.395813	
-0.39447	
-0.393616	
-0.393982	
-0.394348	
-0.395081	
-0.39447	
-0.394592	
-0.394653	
-0.39502	
-0.395935	
-0.395386	
-0.396179	
-0.395325	
-0.394714	
-0.39502	
-0.394836	
-0.396179	
-0.395386	
-0.395874	
-0.39563	
-0.39624	
-0.394836	
-0.395752	
-0.396118	
-0.394592	
-0.393799	
-0.394409	
-0.394653	
-0.39502	
-0.394226	
-0.394165	
-0.394043	
-0.394287	
-0.393921	
-0.393738	
-0.394226	
-0.392883	
-0.391541	
-0.392151	
-0.393555	
-0.393433	
-0.392273	
-0.39209	
-0.392029	
-0.393188	
-0.392151	
-0.392456	
-0.393005	
-0.391846	
-0.390564	
-0.391907	
-0.392517	
-0.392395	
-0.392639	
-0.392456	
-0.391724	
-0.393738	
-0.393127	
-0.393066	
-0.393494	
-0.39325	
-0.391785	
-0.39209	
-0.393982	
-0.39447	
-0.393982	
-0.394226	
-0.393127	
-0.393799	
-0.393799	
-0.393372	
-0.392761	
-0.392639	
-0.390747	
-0.390442	
-0.3927	
-0.390747	
-0.390259	
-0.389893	
-0.39032	
-0.390991	
-0.390686	
-0.390259	
-0.389893	
-0.39032	
-0.389282	
-0.388794	
-0.390747	
-0.39032	
-0.390259	
-0.389954	
-0.390564	
-0.390686	
-0.391418	
-0.390625	
-0.390625	
-0.390076	
-0.390076	
-0.389526	
-0.391541	
-0.391235	
-0.390747	
-0.391113	
-0.391602	
-0.391663	
-0.392883	
-0.392944	
-0.391418	
-0.392151	
-0.392334	
-0.391235	
-0.392273	
-0.392517	
-0.392761	
-0.392517	
-0.392517	
-0.392883	
-0.394104	
-0.393555	
-0.392334	
-0.39325	
-0.393433	
-0.392639	
-0.394104	
-0.394226	
-0.394714	
-0.393738	
-0.39563	
-0.39502	
-0.396606	
-0.397217	
-0.395325	
-0.395447	
-0.395935	
-0.395508	
-0.395508	
-0.395813	
-0.395386	
-0.394714	
-0.396484	
-0.39563	
-0.396179	
-0.395691	
-0.395264	
-0.395203	
-0.225525	
-0.316528	
-0.462402	
-0.409607	
-0.395081	
-0.388489	
-0.386292	
-0.385498	
-0.38269	
-0.384583	
-0.384155	
-0.384155	
-0.38446	
-0.384888	
-0.38446	
-0.384155	
-0.387573	
-0.383118	
-0.38385	
-0.383179	
-0.383789	
-0.384094	
-0.383606	
-0.383301	
-0.383911	
-0.38501	
-0.383972	
-0.384399	
-0.385498	
-0.383179	
-0.382935	
-0.382446	
-0.383118	
-0.382935	
-0.382629	
-0.382507	
-0.383667	
-0.383728	
-0.382996	
-0.383484	
-0.384827	
-0.383179	
-0.383301	
-0.380981	
-0.38269	
-0.382629	
-0.382935	
-0.383057	
-0.382385	
-0.383057	
-0.382996	
-0.38385	
-0.381836	
-0.381226	
-0.380737	
-0.380493	
-0.38269	
-0.384521	
-0.385315	
-0.387146	
-0.390808	
-0.393311	
-0.396606	
-0.402039	
-0.403137	
-0.407227	
-0.412109	
-0.415588	
-0.422546	
-0.428284	
-0.434143	
-0.442261	
-0.449402	
-0.457458	
-0.467102	
-0.475525	
-0.483887	
-0.492065	
-0.498047	
-0.504761	
-0.510681	
-0.516296	
-0.5224	
-0.52832	
-0.532227	
-0.536499	
-0.541016	
-0.542847	
-0.545837	
-0.547424	
-0.548828	
-0.552246	
-0.552246	
-0.552917	
-0.552612	
-0.55188	
-0.550598	
-0.550354	
-0.55011	
-0.549011	
-0.548523	
-0.545715	
-0.548706	
-0.549255	
-0.549988	
-0.551697	
-0.554016	
-0.554871	
-0.556213	
-0.558899	
-0.559082	
-0.559387	
-0.558472	
-0.558228	
-0.558533	
-0.558472	
-0.557312	
-0.555481	
-0.554138	
-0.550842	
-0.547363	
-0.544556	
-0.539978	
-0.534607	
-0.528809	
-0.523132	
-0.520142	
-0.514709	
-0.509583	
-0.505371	
-0.500122	
-0.494873	
-0.490234	
-0.484924	
-0.478821	
-0.473389	
-0.467102	
-0.461487	
-0.457031	
-0.450928	
-0.44458	
-0.437866	
-0.430725	
-0.424133	
-0.417419	
-0.409485	
-0.403015	
-0.396729	
-0.387268	
-0.381775	
-0.375732	
-0.368469	
-0.361511	
-0.353394	
-0.345032	
-0.338135	
-0.33075	
-0.323364	
-0.315369	
-0.308228	
-0.2995	
-0.293762	
-0.287964	
-0.281616	
-0.274902	
-0.26886	
-0.262024	
-0.25708	
-0.25293	
-0.247925	
-0.243469	
-0.240662	
-0.236877	
-0.23584	
-0.235779	
-0.235413	
-0.236694	
-0.239746	
-0.24176	
-0.246277	
-0.250366	
-0.255737	
-0.260437	
-0.263611	
-0.270813	
-0.27655	
-0.282959	
-0.289307	
-0.296143	
-0.30249	
-0.309082	
-0.315002	
-0.322266	
-0.32843	
-0.333069	
-0.339539	
-0.345642	
-0.351563	
-0.356628	
-0.360779	
-0.364807	
-0.369446	
-0.373108	
-0.376587	
-0.378906	
-0.379822	
-0.383545	
-0.387146	
-0.389587	
-0.390991	
-0.393188	
-0.393982	
-0.395142	
-0.397034	
-0.397705	
-0.397827	
-0.397766	
-0.398804	
-0.401062	
-0.401794	
-0.402283	
-0.403076	
-0.403381	
-0.403503	
-0.404907	
-0.403809	
-0.403625	
-0.402649	
-0.402405	
-0.403015	
-0.402893	
-0.401733	
-0.401489	
-0.401062	
-0.398926	
-0.398315	
-0.397217	
-0.394958	
-0.392822	
-0.389038	
-0.386963	
-0.385132	
-0.382874	
-0.379944	
-0.376587	
-0.373901	
-0.370911	
-0.368469	
-0.365295	
-0.361572	
-0.358398	
-0.35498	
-0.352173	
-0.350952	
-0.3479	
-0.345154	
-0.342285	
-0.338989	
-0.336609	
-0.334473	
-0.331665	
-0.330139	
-0.327148	
-0.326477	
-0.3255	
-0.32489	
-0.324341	
-0.32373	
-0.324097	
-0.324402	
-0.325623	
-0.325745	
-0.32666	
-0.327209	
-0.327026	
-0.329407	
-0.332031	
-0.333008	
-0.334534	
-0.33728	
-0.338806	
-0.341003	
-0.341919	
-0.34314	
-0.343201	
-0.343628	
-0.345093	
-0.346619	
-0.347412	
-0.348633	
-0.349304	
-0.350281	
-0.350159	
-0.352844	
-0.352051	
-0.352051	
-0.352539	
-0.353516	
-0.354797	
-0.355591	
-0.355408	
-0.356079	
-0.357361	
-0.357483	
-0.359192	
-0.359131	
-0.358032	
-0.359375	
-0.358154	
-0.360718	
-0.359863	
-0.361389	
-0.362122	
-0.362366	
-0.362854	
-0.363586	
-0.365479	
-0.36322	
-0.364075	
-0.364075	
-0.364624	
-0.364685	
-0.364197	
-0.365234	
-0.365723	
-0.365784	
-0.366699	
-0.366333	
-0.367798	
-0.367065	
-0.367432	
-0.365417	
-0.366943	
-0.367249	
-0.367188	
-0.367004	
-0.366821	
-0.367432	
-0.36792	
-0.368591	
-0.368286	
-0.367065	
-0.367981	
-0.366577	
-0.367615	
-0.367554	
-0.36792	
-0.368347	
-0.367859	
-0.368225	
-0.368042	
-0.368469	
-0.367798	
-0.366638	
-0.366333	
-0.366272	
-0.368164	
-0.367249	
-0.368042	
-0.367859	
-0.368652	
-0.369202	
-0.369019	
-0.369446	
-0.36853	
-0.368958	
-0.368958	
-0.368469	
-0.369141	
-0.369507	
-0.370667	
-0.370911	
-0.370667	
-0.371948	
-0.371277	
-0.372559	
-0.371399	
-0.371155	
-0.370972	
-0.370178	
-0.371277	
-0.371094	
-0.370911	
-0.370483	
-0.371521	
-0.372437	
-0.371887	
-0.372803	
-0.370544	
-0.372131	
-0.37207	
-0.372925	
-0.371704	
-0.373047	
-0.373413	
-0.373657	
-0.374329	
-0.37384	
-0.375	
-0.373718	
-0.37384	
-0.374817	
-0.374268	
-0.374023	
-0.374817	
-0.375183	
-0.375549	
-0.375732	
-0.376099	
-0.376221	
-0.37738	
-0.377075	
-0.376465	
-0.37616	
-0.377319	
-0.377441	
-0.377502	
-0.37738	
-0.378113	
-0.378601	
-0.377686	
-0.378113	
-0.376648	
-0.377625	
-0.376221	
-0.375854	
-0.377258	
-0.377014	
-0.376953	
-0.376892	
-0.377747	
-0.376099	
-0.377075	
-0.376404	
-0.376221	
-0.376343	
-0.375122	
-0.374939	
-0.375977	
-0.376221	
-0.375854	
-0.376465	
-0.376526	
-0.376526	
-0.37677	
-0.375916	
-0.375977	
-0.373962	
-0.375244	
-0.375916	
-0.375916	
-0.375488	
-0.375916	
-0.376404	
-0.376099	
-0.377686	
-0.37561	
-0.376404	
-0.375793	
-0.375122	
-0.375671	
-0.37561	
-0.37561	
-0.376282	
-0.377686	
-0.375427	
-0.376526	
-0.376648	
-0.375977	
-0.375244	
-0.374512	
-0.375488	
-0.376038	
-0.376221	
-0.376404	
-0.377014	
-0.377502	
-0.377014	
-0.377441	
-0.376282	
-0.376343	
-0.376648	
-0.375488	
-0.375	
-0.376038	
-0.37677	
-0.377136	
-0.377686	
-0.377075	
-0.376465	
-0.377563	
-0.376099	
-0.377014	
-0.376953	
-0.376221	
-0.377197	
-0.377747	
-0.378113	
-0.378479	
-0.380005	
-0.378601	
-0.379272	
-0.379456	
-0.379517	
-0.378784	
-0.37854	
-0.37854	
-0.379333	
-0.379089	
-0.378235	
-0.378723	
-0.378906	
-0.378906	
-0.379089	
-0.377014	
-0.379822	
-0.378723	
-0.377686	
-0.379211	
-0.37915	
-0.379761	
-0.380371	
-0.381348	
-0.379822	
-0.380249	
-0.381348	
-0.379944	
-0.379761	
-0.38031	
-0.380615	
-0.379456	
-0.380554	
-0.380737	
-0.380981	
-0.380798	
-0.380981	
-0.38147	
-0.37915	
-0.381958	
-0.380737	
-0.379578	
-0.381409	
-0.381104	
-0.381042	
-0.380493	
-0.382385	
-0.380371	
-0.380005	
-0.381104	
-0.380371	
-0.380127	
-0.379639	
-0.379883	
-0.378723	
-0.378967	
-0.37915	
-0.379272	
-0.378723	
-0.37854	
-0.378601	
-0.377747	
-0.379089	
-0.377991	
-0.377075	
-0.378296	
-0.378113	
-0.377991	
-0.378052	
-0.378662	
-0.37793	
-0.377747	
-0.377563	
-0.378052	
-0.37854	
-0.377991	
-0.377014	
-0.377991	
-0.378662	
-0.378784	
-0.379517	
-0.379028	
-0.378235	
-0.378784	
-0.379639	
-0.379517	
-0.379028	
-0.378906	
-0.379456	
-0.378418	
-0.380005	
-0.379883	
-0.380798	
-0.378723	
-0.378357	
-0.377747	
-0.378174	
-0.378357	
-0.377258	
-0.376099	
-0.375916	
-0.375854	
-0.376099	
-0.376831	
-0.376465	
-0.375488	
-0.37561	
-0.375488	
-0.376526	
-0.375977	
-0.375183	
-0.37384	
-0.375244	
-0.375427	
-0.375732	
-0.377014	
-0.376221	
-0.376282	
-0.376221	
-0.376587	
-0.376465	
-0.376221	
-0.375793	
-0.375366	
-0.375793	
-0.377014	
-0.377258	
-0.377625	
-0.377686	
-0.377869	
-0.377014	
-0.379272	
-0.378784	
-0.377991	
-0.377869	
-0.37793	
-0.378418	
-0.378052	
-0.379028	
-0.379211	
-0.378662	
-0.378418	
-0.378296	
-0.380676	
-0.380127	
-0.379272	
-0.378174	
-0.378967	
-0.379944	
-0.380737	
-0.381714	
-0.380493	
-0.380737	
-0.381165	
-0.382019	
-0.38269	
-0.381653	
-0.381592	
-0.381104	
-0.380249	
-0.381775	
-0.382019	
-0.381775	
-0.381042	
-0.381165	
-0.379578	
-0.381531	
-0.38208	
-0.381226	
-0.381104	
-0.380371	
-0.380798	
-0.381226	
-0.382324	
-0.381531	
-0.381531	
-0.381287	
-0.380493	
-0.381531	
-0.381348	
-0.380737	
-0.379639	
-0.380005	
-0.380737	
-0.380981	
-0.382263	
-0.38092	
-0.380737	
-0.380249	
-0.381714	
-0.381775	
-0.380127	
-0.380249	
-0.380493	
-0.379517	
-0.38031	
-0.380432	
-0.380554	
-0.380066	
-0.3797	
-0.378113	
-0.379578	
-0.380493	
-0.378479	
-0.377502	
-0.378723	
-0.378174	
-0.378662	
-0.379639	
-0.378784	
-0.378174	
-0.379089	
-0.379089	
-0.37915	
-0.38092	
-0.379089	
-0.37793	
-0.378113	
-0.379211	
-0.379761	
-0.380493	
-0.379272	
-0.378906	
-0.377747	
-0.378601	
-0.37915	
-0.378845	
-0.37793	
-0.37793	
-0.377136	
-0.378235	
-0.378418	
-0.379333	
-0.378235	
-0.378418	
-0.377502	
-0.378723	
-0.378662	
-0.377869	
-0.377502	
-0.377747	
-0.376648	
-0.377563	
-0.37738	
-0.377441	
-0.376831	
-0.376282	
-0.376099	
-0.376648	
-0.37793	
-0.376404	
-0.375732	
-0.376038	
-0.375732	
-0.376831	
-0.37738	
-0.376831	
-0.376648	
-0.377136	
-0.375977	
-0.378113	
-0.378967	
-0.37793	
-0.378052	
-0.377625	
-0.378235	
-0.378479	
-0.379883	
-0.378723	
-0.378357	
-0.378906	
-0.378296	
-0.37915	
-0.379333	
-0.379639	
-0.379761	
-0.377686	
-0.379761	
-0.38031	
-0.38147	
-0.381226	
-0.380676	
-0.380493	
-0.380432	
-0.381775	
-0.38092	
-0.379578	
-0.380554	
-0.38031	
-0.380859	
-0.380859	
-0.381958	
-0.38031	
-0.380615	
-0.380554	
-0.380798	
-0.381836	
-0.380432	
-0.380554	
-0.380859	
-0.381714	
-0.381775	
-0.382385	
-0.382385	
-0.381531	
-0.381042	
-0.38092	
-0.381348	
-0.381653	
-0.380981	
-0.38147	
-0.380066	
-0.381165	
-0.381042	
-0.381531	
-0.380981	
-0.381165	
-0.381042	
-0.381226	
-0.381714	
-0.381531	
-0.381348	
-0.381104	
-0.379456	
-0.38147	
-0.381287	
-0.381714	
-0.380981	
-0.380432	
-0.379883	
-0.378967	
-0.381287	
-0.379456	
-0.379028	
-0.379089	
-0.379395	
-0.379578	
-0.380005	
-0.380493	
-0.379456	
-0.379456	
-0.379211	
-0.380615	
-0.380066	
-0.379089	
-0.378052	
-0.377686	
-0.379517	
-0.379639	
-0.380615	
-0.38092	
-0.380127	
-0.379639	
-0.37854	
-0.380127	
-0.378662	
-0.378662	
-0.377747	
-0.378418	
-0.378479	
-0.378601	
-0.378784	
-0.378235	
-0.378113	
-0.378418	
-0.377747	
-0.379333	
-0.378296	
-0.377502	
-0.376831	
-0.37738	
-0.377808	
-0.377686	
-0.37854	
-0.377502	
-0.377441	
-0.377319	
-0.377502	
-0.377625	
-0.378296	
-0.377625	
-0.376099	
-0.378113	
-0.378845	
-0.379089	
-0.379761	
-0.379089	
-0.379089	
-0.37915	
-0.380615	
-0.379944	
-0.379578	
-0.379395	
-0.379395	
-0.380493	
-0.380615	
-0.38092	
-0.381531	
-0.380981	
-0.380981	
-0.38147	
-0.382263	
-0.380676	
-0.380188	
-0.38092	
-0.381104	
-0.381042	
-0.38092	
-0.382629	
-0.38092	
-0.380859	
-0.381226	
-0.380798	
-0.380981	
-0.380371	
-0.380066	
-0.379211	
-0.380737	
-0.380005	
-0.380371	
-0.38092	
-0.379395	
-0.379028	
-0.379333	
-0.38031	
-0.379639	
-0.379272	
-0.378662	
-0.380554	
-0.380737	
-0.381104	
-0.381958	
-0.38385	
-0.382935	
-0.382874	
-0.383301	
-0.384338	
-0.382935	
-0.382996	
-0.382629	
-0.38269	
-0.383362	
-0.383423	
-0.383911	
-0.384094	
-0.383362	
-0.383362	
-0.383789	
-0.383667	
-0.383118	
-0.382813	
-0.38147	
-0.383972	
-0.383667	
-0.383484	
-0.383789	
-0.383118	
-0.382874	
-0.382813	
-0.381775	
-0.382019	
-0.381897	
-0.380615	
-0.380249	
-0.381409	
-0.381348	
-0.38147	
-0.382141	
-0.381531	
-0.381104	
-0.381287	
-0.380981	
-0.381104	
-0.38031	
-0.378967	
-0.380249	
-0.38031	
-0.380859	
-0.380554	
-0.381531	
-0.379761	
-0.380005	
-0.379211	
-0.38031	
-0.379272	
-0.378418	
-0.376404	
-0.378235	
-0.37854	
-0.378479	
-0.378967	
-0.380188	
-0.378357	
-0.378479	
-0.379578	
-0.378174	
-0.378357	
-0.378601	
-0.377563	
-0.378601	
-0.378662	
-0.378784	
-0.378845	
-0.379028	
-0.378601	
-0.378662	
-0.378418	
-0.378052	
-0.378418	
-0.377747	
-0.378479	
-0.378906	
-0.378479	
-0.379333	
-0.38031	
-0.378906	
-0.379089	
-0.379272	
-0.37854	
-0.379211	
-0.378845	
-0.376648	
-0.379089	
-0.379211	
-0.379883	
-0.379578	
-0.379822	
-0.378906	
-0.379395	
-0.380859	
-0.378723	
-0.379639	
-0.379517	
-0.379456	
-0.380371	
-0.381042	
-0.381348	
-0.381531	
-0.381775	
-0.381653	
-0.381653	
-0.382385	
-0.381348	
-0.381531	
-0.38031	
-0.381775	
-0.381592	
-0.381592	
-0.381592	
-0.382507	
-0.382019	
-0.380981	
-0.381836	
-0.38147	
-0.381042	
-0.38147	
-0.379883	
-0.381409	
-0.38147	
-0.381775	
-0.381653	
-0.382507	
-0.382263	
-0.381714	
-0.382385	
-0.380127	
-0.381775	
-0.381775	
-0.380188	
-0.382568	
-0.382385	
-0.382568	
-0.38269	
-0.383057	
-0.382507	
-0.383057	
-0.383789	
-0.382874	
-0.38324	
-0.382813	
-0.382385	
-0.383789	
-0.38385	
-0.384033	
-0.384766	
-0.384644	
-0.38385	
-0.383484	
-0.385071	
-0.383301	
-0.382996	
-0.382141	
-0.38208	
-0.382568	
-0.382019	
-0.382202	
-0.382813	
-0.381958	
-0.381775	
-0.381897	
-0.382446	
-0.381348	
-0.380798	
-0.379944	
-0.381409	
-0.381042	
-0.380615	
-0.380859	
-0.381714	
-0.380798	
-0.381104	
-0.381287	
-0.380798	
-0.38031	
-0.380493	
-0.37915	
-0.379822	
-0.3797	
-0.3797	
-0.380371	
-0.3797	
-0.379333	
-0.379578	
-0.379944	
-0.379578	
-0.379761	
-0.379272	
-0.377747	
-0.379822	
-0.379578	
-0.379211	
-0.379395	
-0.378906	
-0.378662	
-0.379089	
-0.379272	
-0.378784	
-0.378967	
-0.378845	
-0.378845	
-0.379272	
-0.379639	
-0.379272	
-0.380554	
-0.380249	
-0.380127	
-0.379517	
-0.381104	
-0.379639	
-0.379089	
-0.377869	
-0.37915	
-0.379395	
-0.379028	
-0.379822	
-0.38147	
-0.379639	
-0.379028	
-0.379822	
-0.380798	
-0.38031	
-0.380188	
-0.379333	
-0.380859	
-0.381348	
-0.380981	
-0.38147	
-0.381836	
-0.381287	
-0.381226	
-0.381592	
-0.382568	
-0.381958	
-0.381226	
-0.38031	
-0.381531	
-0.381836	
-0.382202	
-0.381897	
-0.380981	
-0.381592	
-0.381287	
-0.380554	
-0.381042	
-0.381348	
-0.380432	
-0.381226	
-0.382141	
-0.382507	
-0.383057	
-0.384155	
-0.382996	
-0.382996	
-0.38324	
-0.383667	
-0.382813	
-0.383301	
-0.381836	
-0.382629	
-0.382996	
-0.383667	
-0.383972	
-0.384644	
-0.383118	
-0.383484	
-0.38446	
-0.384705	
-0.383789	
-0.383057	
-0.382141	
-0.384094	
-0.383972	
-0.383362	
-0.383789	
-0.383789	
-0.383545	
-0.382874	
-0.382935	
-0.383179	
-0.382324	
-0.381897	
-0.381836	
-0.381958	
-0.381653	
-0.381714	
-0.382141	
-0.381287	
-0.381348	
-0.380981	
-0.380859	
-0.381042	
-0.38031	
-0.379089	
-0.379456	
-0.380737	
-0.380737	
-0.380737	
-0.380859	
-0.380493	
-0.381042	
-0.381531	
-0.381287	
-0.380798	
-0.380615	
-0.380127	
-0.380981	
-0.381592	
-0.38147	
-0.381836	
-0.382996	
-0.382141	
-0.38147	
-0.383423	
-0.383179	
-0.382324	
-0.382141	
-0.38147	
-0.382141	
-0.382324	
-0.382324	
-0.381958	
-0.382813	
-0.380798	
-0.379639	
-0.381592	
-0.380005	
-0.3797	
-0.378906	
-0.379028	
-0.37915	
-0.378662	
-0.379639	
-0.379089	
-0.37854	
-0.378418	
-0.378662	
-0.379456	
-0.378845	
-0.37915	
-0.378113	
-0.377625	
-0.378662	
-0.379028	
-0.379211	
-0.378906	
-0.379089	
-0.378052	
-0.3797	
-0.37915	
-0.379272	
-0.37915	
-0.378174	
-0.379944	
-0.380554	
-0.380615	
-0.380005	
-0.381226	
-0.380554	
-0.380615	
-0.381775	
-0.381409	
-0.381348	
-0.381226	
-0.379883	
-0.381714	
-0.381653	
-0.382202	
-0.382324	
-0.382629	
-0.381165	
-0.38208	
-0.383423	
-0.382568	
-0.382874	
-0.381531	
-0.381409	
-0.383911	
-0.384277	
-0.383972	
-0.384216	
-0.384644	
-0.384644	
-0.385315	
-0.385437	
-0.384827	
-0.384888	
-0.383972	
-0.384827	
-0.384277	
-0.384766	
-0.384094	
-0.384583	
-0.38385	
-0.384216	
-0.38501	
-0.384888	
-0.384155	
-0.384033	
-0.384155	
-0.384399	
-0.384705	
-0.384583	
-0.384521	
-0.384827	
-0.383301	
-0.384399	
-0.384216	
-0.38501	
-0.384155	
-0.383362	
-0.382263	
-0.384094	
-0.384399	
-0.383667	
-0.384155	
-0.38446	
-0.38385	
-0.384399	
-0.384521	
-0.383728	
-0.383606	
-0.383057	
-0.382019	
-0.383118	
-0.384338	
-0.383118	
-0.382813	
-0.38269	
-0.382751	
-0.383118	
-0.383301	
-0.382141	
-0.381653	
-0.38147	
-0.381653	
-0.382019	
-0.382202	
-0.382507	
-0.381592	
-0.381226	
-0.382568	
-0.382324	
-0.382385	
-0.38269	
-0.38147	
-0.381897	
-0.382324	
-0.382141	
-0.381653	
-0.381897	
-0.382263	
-0.381042	
-0.381653	
-0.381653	
-0.381531	
-0.381165	
-0.380676	
-0.38031	
-0.381531	
-0.38208	
-0.381104	
-0.381226	
-0.38208	
-0.381042	
-0.382019	
-0.381592	
-0.381287	
-0.380859	
-0.380859	
-0.3797	
-0.380615	
-0.380737	
-0.380676	
-0.380859	
-0.380005	
-0.38031	
-0.380737	
-0.381592	
-0.380554	
-0.379761	
-0.379883	
-0.380005	
-0.381836	
-0.380676	
-0.381104	
-0.381409	
-0.381653	
-0.382019	
-0.382019	
-0.382568	
-0.381836	
-0.380737	
-0.381897	
-0.383362	
-0.383484	
-0.382507	
-0.382935	
-0.382935	
-0.383301	
-0.384094	
-0.383484	
-0.382568	
-0.383484	
-0.383423	
-0.382385	
-0.384216	
-0.383972	
-0.384277	
-0.384766	
-0.384338	
-0.384705	
-0.385864	
-0.385742	
-0.384094	
-0.384827	
-0.384644	
-0.383423	
-0.38501	
-0.38446	
-0.384033	
-0.384155	
-0.385681	
-0.385437	
-0.38562	
-0.385925	
-0.384949	
-0.384705	
-0.384705	
-0.38501	
-0.385559	
-0.385559	
-0.385559	
-0.384521	
-0.385925	
-0.385681	
-0.385132	
-0.38501	
-0.384216	
-0.38385	
-0.383484	
-0.385132	
-0.384949	
-0.385376	
-0.384644	
-0.384399	
-0.385986	
-0.385071	
-0.385803	
-0.385193	
-0.385376	
-0.384094	
-0.384216	
-0.385803	
-0.385132	
-0.384888	
-0.384705	
-0.38446	
-0.383789	
-0.384766	
-0.384521	
-0.382202	
-0.382629	
-0.382263	
-0.383423	
-0.384216	
-0.383484	
-0.383972	
-0.383484	
-0.385132	
-0.383972	
-0.385559	
-0.384705	
-0.383789	
-0.382996	
-0.382874	
-0.383362	
-0.383667	
-0.383911	
-0.383118	
-0.382446	
-0.383362	
-0.383118	
-0.383728	
-0.381836	
-0.382141	
-0.381042	
-0.381409	
-0.382996	
-0.382568	
-0.381836	
-0.381531	
-0.381592	
-0.382385	
-0.382507	
-0.381958	
-0.380615	
-0.381714	
-0.380493	
-0.380432	
-0.381958	
-0.38147	
-0.381775	
-0.381104	
-0.38147	
-0.381897	
-0.383118	
-0.382507	
-0.38208	
-0.38208	
-0.381958	
-0.381592	
-0.382935	
-0.382629	
-0.382446	
-0.382629	
-0.384338	
-0.383606	
-0.384766	
-0.383911	
-0.383728	
-0.383362	
-0.383606	
-0.384338	
-0.384216	
-0.384827	
-0.384583	
-0.38385	
-0.384521	
-0.385376	
-0.385498	
-0.384888	
-0.384521	
-0.383484	
-0.385071	
-0.385681	
-0.385071	
-0.38501	
-0.384644	
-0.384766	
-0.38501	
-0.385132	
-0.384338	
-0.384216	
-0.384644	
-0.38269	
-0.383301	
-0.38501	
-0.383301	
-0.383545	
-0.383362	
-0.384155	
-0.382996	
-0.384888	
-0.383911	
-0.38446	
-0.384705	
-0.38501	
-0.38501	
-0.385986	
-0.385681	
-0.385925	
-0.386719	
-0.386841	
-0.386841	
-0.388	
-0.388306	
-0.38623	
-0.385986	
-0.386169	
-0.386658	
-0.387207	
-0.386658	
-0.387268	
-0.387085	
-0.386841	
-0.387329	
-0.387878	
-0.38562	
-0.38678	
-0.385376	
-0.385742	
-0.386841	
-0.386963	
-0.386963	
-0.386047	
-0.385803	
-0.385803	
-0.386414	
-0.385742	
-0.38501	
-0.384521	
-0.383545	
-0.38501	
-0.385315	
-0.384399	
-0.384827	
-0.384583	
-0.384644	
-0.384338	
-0.385193	
-0.38501	
-0.384094	
-0.383667	
-0.382019	
-0.383606	
-0.384155	
-0.383423	
-0.382996	
-0.383057	
-0.382813	
-0.382935	
-0.384888	
-0.382263	
-0.381653	
-0.381287	
-0.380676	
-0.382324	
-0.382446	
-0.381775	
-0.381653	
-0.381958	
-0.38147	
-0.382141	
-0.384033	
-0.381165	
-0.382263	
-0.381775	
-0.382141	
-0.382263	
-0.382446	
-0.381958	
-0.381531	
-0.380676	
-0.381592	
-0.382507	
-0.383667	
-0.381409	
-0.381714	
-0.381592	
-0.382263	
-0.383728	
-0.382385	
-0.382935	
-0.382507	
-0.383667	
-0.382629	
-0.382446	
-0.382324	
-0.382263	
-0.382202	
-0.38031	
-0.383972	
-0.382996	
-0.383301	
-0.382935	
-0.382568	
-0.383667	
-0.382935	
-0.384155	
-0.382935	
-0.383667	
-0.38324	
-0.381409	
-0.385254	
-0.385376	
-0.384644	
-0.384644	
-0.385559	
-0.385254	
-0.385376	
-0.387451	
-0.384216	
-0.384155	
-0.384216	
-0.383423	
-0.385132	
-0.385254	
-0.384888	
-0.385071	
-0.385803	
-0.385071	
-0.384705	
-0.387024	
-0.385437	
-0.385254	
-0.384399	
-0.38501	
-0.385376	
-0.385681	
-0.38501	
-0.385742	
-0.386658	
-0.385681	
-0.385742	
-0.386597	
-0.385559	
-0.385803	
-0.384766	
-0.386353	
-0.386169	
-0.385803	
-0.385986	
-0.386414	
-0.386658	
-0.386597	
-0.387573	
-0.388062	
-0.387573	
-0.386658	
-0.386353	
-0.387329	
-0.387634	
-0.38739	
-0.386719	
-0.387329	
-0.387756	
-0.38678	
-0.387634	
-0.386353	
-0.386108	
-0.385803	
-0.385559	
-0.386108	
-0.385376	
-0.384888	
-0.385193	
-0.386841	
-0.385132	
-0.385193	
-0.386047	
-0.385193	
-0.38501	
-0.38446	
-0.384399	
-0.384277	
-0.384033	
-0.384094	
-0.385315	
-0.384521	
-0.384521	
-0.383972	
-0.383972	
-0.384216	
-0.383606	
-0.383667	
-0.381836	
-0.383362	
-0.383118	
-0.383728	
-0.384216	
-0.383484	
-0.383667	
-0.383789	
-0.383972	
-0.382874	
-0.383545	
-0.383118	
-0.382019	
-0.383118	
-0.382996	
-0.381592	
-0.383301	
-0.382446	
-0.382202	
	
