E:\DOCUMENTS AND SETTINGS\JPOTAS\MEUS DOCUMENTOS\UFRJ\RSCI-BM 12 WK SERIES\070718-RSCI-BM-03\RSCI-BM-03-LEMG\070718-RSCI-BM-03-LEMG-0010.ACQ
0.025000 msec/sample
1 channel
Analog input
Volts
CH1	
2000	
-0.396179	
-0.395996	
-0.39679	
-0.397522	
-0.398315	
-0.397278	
-0.3974	
-0.398071	
-0.398865	
-0.398193	
-0.397827	
-0.398071	
-0.398376	
-0.39856	
-0.397644	
-0.398193	
-0.398865	
-0.398071	
-0.397278	
-0.397461	
-0.397278	
-0.396973	
-0.396729	
-0.396851	
-0.396606	
-0.396606	
-0.395203	
-0.39679	
-0.396545	
-0.396973	
-0.396362	
-0.397278	
-0.397461	
-0.397278	
-0.396057	
-0.396667	
-0.396729	
-0.397156	
-0.396362	
-0.397461	
-0.396301	
-0.396545	
-0.395874	
-0.39563	
-0.396179	
-0.39563	
-0.394958	
-0.395569	
-0.395386	
-0.395447	
-0.394958	
-0.396057	
-0.395447	
-0.395996	
-0.395203	
-0.395081	
-0.393921	
-0.393372	
-0.393677	
-0.394043	
-0.392456	
-0.393005	
-0.393311	
-0.393494	
-0.392822	
-0.393738	
-0.392212	
-0.392151	
-0.392822	
-0.392761	
-0.392334	
-0.392395	
-0.391357	
-0.392822	
-0.392883	
-0.392639	
-0.393005	
-0.394104	
-0.392639	
-0.392639	
-0.393799	
-0.39325	
-0.393433	
-0.392944	
-0.392395	
-0.39447	
-0.394531	
-0.39325	
-0.394043	
-0.394531	
-0.394104	
-0.39386	
-0.394226	
-0.393127	
-0.39447	
-0.394165	
-0.39325	
-0.394104	
-0.394287	
-0.393982	
-0.395264	
-0.394653	
-0.394409	
-0.394714	
-0.39563	
-0.393982	
-0.394348	
-0.394409	
-0.394226	
-0.394409	
-0.394531	
-0.394287	
-0.395691	
-0.394897	
-0.394531	
-0.394348	
-0.395264	
-0.393555	
-0.39447	
-0.394226	
-0.393555	
-0.393677	
-0.393555	
-0.393433	
-0.393616	
-0.392761	
-0.39209	
-0.392151	
-0.393066	
-0.391785	
-0.392456	
-0.392517	
-0.393005	
-0.392517	
-0.392578	
-0.393066	
-0.393799	
-0.394226	
-0.394775	
-0.394714	
-0.395691	
-0.395752	
-0.395447	
-0.395447	
-0.39624	
-0.396545	
-0.396362	
-0.396606	
-0.397156	
-0.397278	
-0.396973	
-0.397217	
-0.397583	
-0.397888	
-0.397095	
-0.397278	
-0.395996	
-0.39679	
-0.397095	
-0.396973	
-0.396912	
-0.397888	
-0.397217	
-0.396729	
-0.395752	
-0.396606	
-0.395996	
-0.395874	
-0.395569	
-0.394653	
-0.395752	
-0.395874	
-0.396545	
-0.395752	
-0.396667	
-0.395874	
-0.39502	
-0.395935	
-0.395569	
-0.395325	
-0.395447	
-0.39563	
-0.394958	
-0.394836	
-0.396118	
-0.394897	
-0.394958	
-0.393494	
-0.394165	
-0.394775	
-0.393738	
-0.393188	
-0.392273	
-0.392395	
-0.392456	
-0.392273	
-0.391785	
-0.214783	
0.0839233	
-0.0228882	
-0.0513916	
-0.0558472	
-0.0519409	
-0.395996	
-0.496826	
-0.388794	
-0.352783	
-0.337769	
-0.331604	
-0.327393	
-0.325989	
-0.323914	
-0.322998	
-0.322449	
-0.322327	
-0.32312	
-0.323242	
-0.322937	
-0.322083	
-0.321655	
-0.322571	
-0.321899	
-0.323425	
-0.323914	
-0.324402	
-0.324341	
-0.324829	
-0.32666	
-0.325195	
-0.326477	
-0.3255	
-0.324158	
-0.326416	
-0.327332	
-0.327881	
-0.328064	
-0.328613	
-0.329041	
-0.330017	
-0.331909	
-0.330017	
-0.329407	
-0.328857	
-0.329956	
-0.328796	
-0.3302	
-0.330688	
-0.331665	
-0.332764	
-0.334045	
-0.335876	
-0.337585	
-0.340271	
-0.340698	
-0.343079	
-0.348694	
-0.352478	
-0.164429	
0.114929	
0.00640869	
-0.0246582	
-0.0327148	
-0.0336304	
-0.388794	
-0.487366	
-0.382935	
-0.353882	
-0.346191	
-0.349365	
-0.354065	
-0.359741	
-0.364502	
-0.369019	
-0.374023	
-0.378113	
-0.38446	
-0.384216	
-0.387024	
-0.389771	
-0.392822	
-0.396118	
-0.398438	
-0.400024	
-0.401306	
-0.403015	
-0.403564	
-0.404846	
-0.407959	
-0.405334	
-0.405518	
-0.405029	
-0.407043	
-0.407532	
-0.408508	
-0.409119	
-0.409668	
-0.410522	
-0.41156	
-0.414368	
-0.412781	
-0.414429	
-0.415039	
-0.417847	
-0.420288	
-0.421814	
-0.422791	
-0.423218	
-0.423645	
-0.424133	
-0.424438	
-0.421631	
-0.419128	
-0.416565	
-0.412598	
-0.411377	
-0.408875	
-0.406006	
-0.40155	
-0.398193	
-0.394836	
-0.391785	
-0.388	
-0.382141	
-0.377197	
-0.374146	
-0.371338	
-0.367004	
-0.362854	
-0.359558	
-0.355408	
-0.350281	
-0.347229	
-0.342102	
-0.337097	
-0.331726	
-0.326538	
-0.321411	
-0.318726	
-0.314697	
-0.310364	
-0.305969	
-0.30127	
-0.29718	
-0.293884	
-0.288696	
-0.284668	
-0.279236	
-0.274109	
-0.269409	
-0.266174	
-0.260803	
-0.256104	
-0.251038	
-0.245544	
-0.239319	
-0.234985	
-0.229492	
-0.224121	
-0.217896	
-0.212524	
-0.205627	
-0.201294	
-0.194763	
-0.189209	
-0.183594	
-0.179077	
-0.175049	
-0.171021	
-0.167786	
-0.162903	
-0.160767	
-0.159729	
-0.159241	
-0.160706	
-0.162231	
-0.164185	
-0.166748	
-0.17041	
-0.173889	
-0.179138	
-0.183838	
-0.187561	
-0.194153	
-0.199829	
-0.206909	
-0.213806	
-0.220398	
-0.226746	
-0.23407	
-0.240051	
-0.246582	
-0.253845	
-0.259277	
-0.265991	
-0.271545	
-0.278442	
-0.284363	
-0.289429	
-0.294678	
-0.299988	
-0.303955	
-0.306702	
-0.309998	
-0.311707	
-0.313416	
-0.315308	
-0.317078	
-0.317444	
-0.317383	
-0.316101	
-0.314636	
-0.315125	
-0.312805	
-0.310852	
-0.308228	
-0.30603	
-0.303772	
-0.301697	
-0.299622	
-0.297424	
-0.295471	
-0.293823	
-0.291016	
-0.289795	
-0.288208	
-0.286499	
-0.283264	
-0.281189	
-0.280762	
-0.279419	
-0.277222	
-0.274963	
-0.272888	
-0.270935	
-0.268799	
-0.266724	
-0.263855	
-0.26062	
-0.257324	
-0.256897	
-0.253967	
-0.253662	
-0.253052	
-0.250671	
-0.249023	
-0.248169	
-0.248108	
-0.245667	
-0.244568	
-0.242065	
-0.240479	
-0.240295	
-0.239746	
-0.238586	
-0.235901	
-0.234192	
-0.232239	
-0.23114	
-0.229431	
-0.22699	
-0.223816	
-0.222839	
-0.221802	
-0.220703	
-0.220337	
-0.21991	
-0.219421	
-0.220642	
-0.221008	
-0.222595	
-0.223999	
-0.225342	
-0.226685	
-0.230225	
-0.232788	
-0.236877	
-0.239563	
-0.243652	
-0.246216	
-0.24823	
-0.25354	
-0.256104	
-0.260071	
-0.26239	
-0.264954	
-0.26886	
-0.271667	
-0.27594	
-0.277649	
-0.27887	
-0.281189	
-0.284302	
-0.286438	
-0.288513	
-0.290039	
-0.289978	
-0.29364	
-0.295044	
-0.297058	
-0.298279	
-0.299377	
-0.298462	
-0.299805	
-0.301819	
-0.301147	
-0.301636	
-0.300842	
-0.30127	
-0.301514	
-0.301392	
-0.301636	
-0.300232	
-0.2995	
-0.30011	
-0.301941	
-0.300964	
-0.300537	
-0.30011	
-0.301086	
-0.30072	
-0.301331	
-0.30127	
-0.30127	
-0.300293	
-0.300781	
-0.300842	
-0.301208	
-0.299988	
-0.299927	
-0.298279	
-0.299683	
-0.300781	
-0.300354	
-0.300293	
-0.299683	
-0.299744	
-0.300598	
-0.301147	
-0.300354	
-0.299988	
-0.300598	
-0.300171	
-0.301514	
-0.302551	
-0.302002	
-0.302429	
-0.301575	
-0.301636	
-0.30249	
-0.303772	
-0.302795	
-0.302368	
-0.301941	
-0.302917	
-0.303528	
-0.302979	
-0.303345	
-0.304626	
-0.303894	
-0.304565	
-0.306458	
-0.304993	
-0.305481	
-0.305481	
-0.305481	
-0.307312	
-0.308716	
-0.3078	
-0.308105	
-0.308838	
-0.308899	
-0.311096	
-0.310059	
-0.309875	
-0.310181	
-0.310059	
-0.310608	
-0.312134	
-0.312256	
-0.312195	
-0.313538	
-0.312256	
-0.314697	
-0.314575	
-0.314758	
-0.314758	
-0.314697	
-0.315552	
-0.317078	
-0.317444	
-0.318115	
-0.319092	
-0.318115	
-0.321167	
-0.320374	
-0.320496	
-0.320679	
-0.32135	
-0.321777	
-0.323181	
-0.323303	
-0.32312	
-0.32428	
-0.323486	
-0.324585	
-0.324524	
-0.323608	
-0.324097	
-0.325439	
-0.323853	
-0.325256	
-0.325806	
-0.324707	
-0.325073	
-0.326233	
-0.325928	
-0.325256	
-0.32489	
-0.32489	
-0.32489	
-0.324036	
-0.324585	
-0.325073	
-0.323547	
-0.323669	
-0.324402	
-0.324158	
-0.323242	
-0.32373	
-0.323059	
-0.324402	
-0.32428	
-0.324585	
-0.324463	
-0.324402	
-0.325378	
-0.325745	
-0.324402	
-0.324951	
-0.325623	
-0.324036	
-0.324707	
-0.32489	
-0.325623	
-0.325928	
-0.325928	
-0.32605	
-0.326111	
-0.32666	
-0.326294	
-0.326233	
-0.325256	
-0.326416	
-0.326416	
-0.326294	
-0.327148	
-0.32782	
-0.327148	
-0.327148	
-0.328552	
-0.328308	
-0.32843	
-0.327698	
-0.329407	
-0.329651	
-0.329041	
-0.331055	
-0.330994	
-0.33136	
-0.331787	
-0.332581	
-0.331909	
-0.33313	
-0.333557	
-0.33136	
-0.333679	
-0.333862	
-0.334473	
-0.334839	
-0.335693	
-0.334778	
-0.335205	
-0.335388	
-0.33429	
-0.335571	
-0.334229	
-0.334778	
-0.334412	
-0.334595	
-0.334534	
-0.335388	
-0.334534	
-0.334595	
-0.335754	
-0.335022	
-0.334839	
-0.333923	
-0.334717	
-0.335632	
-0.335083	
-0.335938	
-0.336548	
-0.335876	
-0.336182	
-0.337158	
-0.335815	
-0.336609	
-0.336426	
-0.336365	
-0.336487	
-0.336304	
-0.336243	
-0.336243	
-0.336792	
-0.335999	
-0.337402	
-0.336914	
-0.336487	
-0.337097	
-0.335938	
-0.337036	
-0.337463	
-0.336853	
-0.33606	
-0.33606	
-0.336182	
-0.336426	
-0.335632	
-0.335876	
-0.336426	
-0.333374	
-0.334778	
-0.335999	
-0.336548	
-0.336121	
-0.336365	
-0.336243	
-0.336792	
-0.337585	
-0.33667	
-0.337402	
-0.33667	
-0.337158	
-0.337891	
-0.336853	
-0.338257	
-0.338745	
-0.338318	
-0.338684	
-0.340698	
-0.338562	
-0.339661	
-0.339233	
-0.339478	
-0.339905	
-0.338928	
-0.34021	
-0.340576	
-0.341125	
-0.340515	
-0.341736	
-0.34082	
-0.340881	
-0.341309	
-0.341064	
-0.34082	
-0.341125	
-0.341614	
-0.341553	
-0.342651	
-0.342224	
-0.343018	
-0.342102	
-0.343262	
-0.343201	
-0.341553	
-0.342896	
-0.342407	
-0.342651	
-0.343567	
-0.343506	
-0.343201	
-0.343872	
-0.343872	
-0.34314	
-0.343262	
-0.341736	
-0.342834	
-0.342224	
-0.342102	
-0.342896	
-0.342346	
-0.343567	
-0.343018	
-0.34314	
-0.342529	
-0.342896	
-0.342407	
-0.342834	
-0.342407	
-0.342834	
-0.343872	
-0.343567	
-0.344788	
-0.34491	
-0.346313	
-0.34552	
-0.347717	
-0.347717	
-0.346558	
-0.347595	
-0.347778	
-0.348389	
-0.348572	
-0.348877	
-0.348816	
-0.349426	
-0.349548	
-0.349182	
-0.34967	
-0.34845	
-0.350159	
-0.349854	
-0.349304	
-0.350281	
-0.350342	
-0.351074	
-0.350464	
-0.35144	
-0.351074	
-0.350586	
-0.350525	
-0.35083	
-0.349854	
-0.349487	
-0.35022	
-0.350281	
-0.350525	
-0.350342	
-0.350708	
-0.350098	
-0.350647	
-0.35144	
-0.349243	
-0.349548	
-0.350525	
-0.350403	
-0.350525	
-0.350464	
-0.350952	
-0.350342	
-0.351013	
-0.350037	
-0.350952	
-0.347473	
-0.349792	
-0.34906	
-0.350159	
-0.348877	
-0.348389	
-0.348877	
-0.348633	
-0.350403	
-0.347961	
-0.348755	
-0.347839	
-0.3479	
-0.347595	
-0.346558	
-0.348022	
-0.348328	
-0.348267	
-0.348389	
-0.349915	
-0.348389	
-0.349426	
-0.348816	
-0.348877	
-0.349243	
-0.348328	
-0.348389	
-0.349121	
-0.349487	
-0.350037	
-0.350464	
-0.349915	
-0.35022	
-0.351624	
-0.348511	
-0.35022	
-0.349426	
-0.350952	
-0.351013	
-0.351807	
-0.352173	
-0.352173	
-0.352844	
-0.351929	
-0.352722	
-0.351196	
-0.352966	
-0.352539	
-0.353088	
-0.353577	
-0.354065	
-0.354065	
-0.354431	
-0.35614	
-0.354431	
-0.35437	
-0.355103	
-0.355591	
-0.355957	
-0.355774	
-0.356384	
-0.356995	
-0.356934	
-0.35791	
-0.357239	
-0.356445	
-0.356323	
-0.357178	
-0.355103	
-0.35675	
-0.35553	
-0.356018	
-0.355408	
-0.354797	
-0.355347	
-0.355164	
-0.355774	
-0.355042	
-0.355042	
-0.354248	
-0.35437	
-0.354309	
-0.354614	
-0.35498	
-0.354919	
-0.355347	
-0.355835	
-0.356628	
-0.355835	
-0.355774	
-0.355042	
-0.355896	
-0.355835	
-0.353577	
-0.356873	
-0.356873	
-0.357239	
-0.357971	
-0.358459	
-0.358215	
-0.358276	
-0.360229	
-0.358398	
-0.360168	
-0.359985	
-0.361267	
-0.360779	
-0.361023	
-0.361023	
-0.361267	
-0.362183	
-0.360718	
-0.360718	
-0.360046	
-0.360596	
-0.360474	
-0.360962	
-0.360352	
-0.360901	
-0.360779	
-0.361206	
-0.361267	
-0.360718	
-0.360779	
-0.360291	
-0.359985	
-0.360291	
-0.358459	
-0.360718	
-0.360352	
-0.360474	
-0.360779	
-0.360718	
-0.360657	
-0.359985	
-0.360962	
-0.358704	
-0.35968	
-0.35968	
-0.359558	
-0.359192	
-0.358826	
-0.358704	
-0.359497	
-0.359375	
-0.358276	
-0.357849	
-0.357361	
-0.356812	
-0.356018	
-0.356506	
-0.356384	
-0.356445	
-0.35614	
-0.356323	
-0.356873	
-0.356628	
-0.356079	
-0.355713	
-0.354919	
-0.356873	
-0.354736	
-0.356934	
-0.357605	
-0.357849	
-0.358215	
-0.358521	
-0.358826	
-0.358215	
-0.359436	
-0.357849	
-0.359253	
-0.358704	
-0.359375	
-0.359558	
-0.358765	
-0.358582	
-0.360168	
-0.36084	
-0.359314	
-0.359985	
-0.358765	
-0.359253	
-0.359436	
-0.359314	
-0.359985	
-0.360229	
-0.360718	
-0.361694	
-0.361328	
-0.361328	
-0.361084	
-0.361389	
-0.359314	
-0.361633	
-0.360474	
-0.362244	
-0.362488	
-0.362671	
-0.363159	
-0.363892	
-0.364685	
-0.363953	
-0.36438	
-0.363342	
-0.364136	
-0.364197	
-0.364807	
-0.364868	
-0.36554	
-0.365295	
-0.366333	
-0.366333	
-0.365906	
-0.366028	
-0.365112	
-0.365051	
-0.365906	
-0.364807	
-0.365662	
-0.365662	
-0.366089	
-0.366882	
-0.366028	
-0.366394	
-0.366394	
-0.366699	
-0.364929	
-0.365906	
-0.365173	
-0.366272	
-0.366028	
-0.366394	
-0.366455	
-0.366516	
-0.36731	
-0.366333	
-0.366821	
-0.365479	
-0.366272	
-0.365479	
-0.366516	
-0.367065	
-0.36615	
-0.366882	
-0.367188	
-0.367676	
-0.366516	
-0.366699	
-0.366333	
-0.365723	
-0.366577	
-0.365967	
-0.366577	
-0.367065	
-0.367188	
-0.367371	
-0.367615	
-0.368042	
-0.367493	
-0.368103	
-0.366699	
-0.367615	
-0.36676	
-0.367981	
-0.368286	
-0.369019	
-0.36853	
-0.369263	
-0.369629	
-0.369446	
-0.370605	
-0.369446	
-0.368469	
-0.370056	
-0.370422	
-0.370117	
-0.369812	
-0.370178	
-0.371033	
-0.370667	
-0.370789	
-0.370544	
-0.369263	
-0.368042	
-0.367981	
-0.367371	
-0.367371	
-0.367676	
-0.367188	
-0.367676	
-0.367493	
-0.367493	
-0.366882	
-0.365845	
-0.365906	
-0.365417	
-0.365784	
-0.365967	
-0.366333	
-0.366516	
-0.366333	
-0.367798	
-0.367798	
-0.367004	
-0.367615	
-0.36676	
-0.36554	
-0.36615	
-0.367493	
-0.367615	
-0.368103	
-0.369019	
-0.368774	
-0.368835	
-0.369812	
-0.369446	
-0.368591	
-0.367981	
-0.369324	
-0.368225	
-0.369507	
-0.370178	
-0.369934	
-0.370056	
-0.3703	
-0.371582	
-0.370789	
-0.370239	
-0.369934	
-0.3703	
-0.370544	
-0.371765	
-0.371521	
-0.372131	
-0.372925	
-0.373413	
-0.373901	
-0.374451	
-0.374084	
-0.373596	
-0.372314	
-0.374268	
-0.374512	
-0.375732	
-0.375671	
-0.376038	
-0.375671	
-0.375977	
-0.378174	
-0.377014	
-0.37561	
-0.375916	
-0.375427	
-0.375671	
-0.375977	
-0.37677	
-0.376709	
-0.376221	
-0.376587	
-0.376831	
-0.376404	
-0.37616	
-0.375793	
-0.375244	
-0.376038	
-0.375549	
-0.376221	
-0.376038	
-0.375671	
-0.375732	
-0.375916	
-0.377075	
-0.37561	
-0.375671	
-0.374023	
-0.374451	
-0.373657	
-0.375122	
-0.375	
-0.374634	
-0.374695	
-0.374268	
-0.375549	
-0.374634	
-0.373901	
-0.373108	
-0.372864	
-0.373108	
-0.373352	
-0.373047	
-0.373291	
-0.373596	
-0.373901	
-0.373474	
-0.374207	
-0.37323	
-0.373474	
-0.372192	
-0.373047	
-0.37262	
-0.373535	
-0.374207	
-0.374634	
-0.375427	
-0.375854	
-0.377014	
-0.375488	
-0.37616	
-0.375671	
-0.374451	
-0.375854	
-0.37677	
-0.377197	
-0.376465	
-0.377136	
-0.377014	
-0.377686	
-0.378418	
-0.376221	
-0.377075	
-0.374817	
-0.377258	
-0.377075	
-0.377563	
-0.376892	
-0.377075	
-0.377319	
-0.377075	
-0.379272	
-0.376038	
-0.376709	
-0.375488	
-0.375549	
-0.374573	
-0.37439	
-0.37384	
-0.37323	
-0.374146	
-0.373596	
-0.373596	
-0.373718	
-0.373596	
-0.373901	
-0.371399	
-0.374146	
-0.374756	
-0.374512	
-0.374573	
-0.374939	
-0.37561	
-0.375244	
-0.37738	
-0.375671	
-0.375916	
-0.374939	
-0.375183	
-0.375305	
-0.376465	
-0.376526	
-0.376343	
-0.377319	
-0.377441	
-0.378113	
-0.37738	
-0.378235	
-0.377075	
-0.376587	
-0.377319	
-0.378113	
-0.377625	
-0.378235	
-0.378845	
-0.379211	
-0.380127	
-0.381287	
-0.379883	
-0.380615	
-0.379089	
-0.381165	
-0.38092	
-0.382141	
-0.382629	
-0.382507	
-0.383362	
-0.383057	
-0.385437	
-0.384033	
-0.384888	
-0.383545	
-0.38385	
-0.384521	
-0.384033	
-0.384216	
-0.384094	
-0.383911	
-0.383667	
-0.384399	
-0.384338	
-0.383362	
-0.383606	
-0.382568	
-0.382324	
-0.381287	
-0.383179	
-0.383484	
-0.382874	
-0.384094	
-0.383789	
-0.384644	
-0.384094	
-0.384399	
-0.382813	
-0.382935	
-0.383118	
-0.383789	
-0.383362	
-0.383118	
-0.383362	
-0.38324	
-0.384399	
-0.38385	
-0.382507	
-0.382751	
-0.382751	
-0.382324	
-0.381042	
-0.38208	
-0.382568	
-0.38269	
-0.383118	
-0.382935	
-0.382996	
-0.382751	
-0.382935	
-0.380798	
-0.381409	
-0.381226	
-0.380676	
-0.380981	
-0.381104	
-0.380981	
-0.381042	
-0.382202	
-0.381409	
-0.379761	
-0.380493	
-0.380554	
-0.380615	
-0.380127	
-0.380493	
-0.380554	
-0.381042	
-0.382202	
-0.381409	
-0.381958	
-0.381836	
-0.381836	
-0.38092	
-0.381165	
-0.381775	
-0.381775	
-0.381836	
-0.382446	
-0.382935	
-0.383118	
-0.383606	
-0.383484	
-0.382324	
-0.381958	
-0.383179	
-0.382996	
-0.382324	
-0.382874	
-0.383179	
-0.383362	
-0.384644	
-0.385498	
-0.383911	
-0.383484	
-0.384094	
-0.383484	
-0.382874	
-0.383362	
-0.383667	
-0.383667	
-0.383728	
-0.38385	
-0.384155	
-0.384644	
-0.384766	
-0.383728	
-0.382813	
-0.383972	
-0.383911	
-0.384094	
-0.384277	
-0.384033	
-0.383972	
-0.38446	
-0.384277	
-0.383972	
-0.383728	
-0.382385	
-0.381592	
-0.382019	
-0.381531	
-0.38208	
-0.381836	
-0.382202	
-0.383118	
-0.382324	
-0.383362	
-0.383179	
-0.383362	
-0.382446	
-0.383728	
-0.383972	
-0.384766	
-0.38446	
-0.38501	
-0.385925	
-0.387146	
-0.387451	
-0.38678	
-0.388062	
-0.387634	
-0.385986	
-0.386719	
-0.386353	
-0.387634	
-0.387146	
-0.387817	
-0.388123	
-0.388184	
-0.389099	
-0.388245	
-0.388672	
-0.387329	
-0.388367	
-0.386475	
-0.387573	
-0.387817	
-0.387878	
-0.386902	
-0.387756	
-0.388184	
-0.387146	
-0.386841	
-0.386414	
-0.385925	
-0.386292	
-0.385559	
-0.386963	
-0.386536	
-0.387207	
-0.387695	
-0.387878	
-0.387451	
-0.387207	
-0.388062	
-0.385681	
-0.386353	
-0.386292	
-0.386353	
-0.385986	
-0.38623	
-0.385864	
-0.386353	
-0.385315	
-0.384949	
-0.38501	
-0.383301	
-0.382874	
-0.383606	
-0.381958	
-0.383606	
-0.383606	
-0.383179	
-0.383728	
-0.383972	
-0.384033	
-0.382996	
-0.384399	
-0.382507	
-0.382935	
-0.382385	
-0.38385	
-0.38324	
-0.382996	
-0.383301	
-0.38501	
-0.384216	
-0.383484	
-0.383606	
-0.382751	
-0.384033	
-0.383911	
-0.382263	
-0.384399	
-0.384827	
-0.384766	
-0.384766	
-0.386169	
-0.385498	
-0.384888	
-0.38562	
-0.385132	
-0.38562	
-0.385376	
-0.385742	
-0.385925	
-0.386536	
-0.386597	
-0.387573	
-0.387451	
-0.387146	
-0.387329	
-0.388	
-0.387695	
-0.387939	
-0.38678	
-0.388367	
-0.388428	
-0.388794	
-0.389404	
-0.390869	
-0.39032	
-0.389771	
-0.39032	
-0.388855	
-0.389282	
-0.389282	
-0.389099	
-0.38916	
-0.388916	
-0.389099	
-0.389404	
-0.388916	
-0.387817	
-0.387939	
-0.387634	
-0.387878	
-0.387146	
-0.385864	
-0.387329	
-0.387024	
-0.38678	
-0.387268	
-0.388611	
-0.38739	
-0.386719	
-0.387146	
-0.386841	
-0.387451	
-0.386902	
-0.387085	
-0.387512	
-0.388	
-0.387817	
-0.388855	
-0.388733	
-0.388611	
-0.38916	
-0.389465	
-0.389404	
-0.389954	
-0.389404	
-0.391052	
-0.391602	
-0.391602	
-0.391479	
-0.393005	
-0.393188	
-0.391785	
-0.391968	
-0.391113	
-0.391479	
-0.391479	
-0.390503	
-0.391418	
-0.391052	
-0.391479	
-0.392029	
-0.392578	
-0.390747	
-0.391174	
-0.391907	
-0.390686	
-0.390869	
-0.389648	
-0.390137	
-0.390442	
-0.39093	
-0.39032	
-0.391113	
-0.390625	
-0.390076	
-0.390808	
-0.389526	
-0.389465	
-0.389709	
-0.390076	
-0.389771	
-0.389893	
-0.389038	
-0.389343	
-0.389465	
-0.388428	
-0.387939	
-0.386841	
-0.38678	
-0.387024	
-0.385925	
-0.385681	
-0.38623	
-0.385742	
-0.385376	
-0.386536	
-0.386414	
-0.385254	
-0.385193	
-0.384094	
-0.38446	
-0.384949	
-0.384644	
-0.384338	
-0.38562	
-0.385376	
-0.386108	
-0.386169	
-0.385742	
-0.386169	
-0.384644	
-0.385681	
-0.387024	
-0.385742	
-0.386108	
-0.386108	
-0.386841	
-0.38739	
-0.387939	
-0.388306	
-0.386536	
-0.387451	
-0.385681	
-0.387451	
-0.38623	
-0.387207	
-0.386963	
-0.386841	
-0.387268	
-0.387146	
-0.387756	
-0.387817	
-0.388184	
-0.386902	
-0.386902	
-0.388672	
-0.38739	
-0.38855	
-0.388367	
-0.388428	
-0.388489	
-0.390442	
-0.390381	
-0.389221	
-0.389954	
-0.389404	
-0.390015	
-0.390991	
-0.390198	
-0.390625	
-0.390869	
-0.390747	
-0.391418	
-0.391907	
-0.390686	
-0.390808	
-0.391174	
-0.390137	
-0.391541	
-0.391113	
-0.391113	
-0.391479	
-0.390442	
-0.390991	
-0.391357	
-0.392822	
-0.391174	
-0.391418	
-0.38916	
-0.390564	
-0.390747	
-0.389893	
-0.390259	
-0.390198	
-0.389465	
-0.390625	
-0.391724	
-0.390503	
-0.390137	
-0.390686	
-0.388489	
-0.389893	
-0.390259	
-0.390564	
-0.389771	
-0.390076	
-0.389587	
-0.390503	
-0.391235	
-0.389832	
-0.390076	
-0.389221	
-0.389465	
-0.389587	
-0.39032	
-0.389954	
-0.389465	
-0.389771	
-0.390076	
-0.390869	
-0.391418	
-0.390259	
-0.390503	
-0.389282	
-0.390747	
-0.390564	
-0.390991	
-0.391174	
-0.390808	
-0.390625	
-0.391296	
-0.393311	
-0.391479	
-0.391663	
-0.392578	
-0.390503	
-0.392517	
-0.392212	
-0.3927	
-0.393066	
-0.392883	
-0.391968	
-0.393005	
-0.39447	
-0.392029	
-0.391479	
-0.391174	
-0.391602	
-0.391296	
-0.390198	
-0.389954	
-0.389648	
-0.389221	
-0.388123	
-0.388794	
-0.389099	
-0.388245	
-0.388123	
-0.385803	
-0.388489	
-0.387939	
-0.387451	
-0.388062	
-0.387207	
-0.387878	
-0.387329	
-0.390015	
-0.388611	
-0.388123	
-0.388123	
-0.388	
-0.388733	
-0.388794	
-0.389465	
-0.388245	
-0.388428	
-0.389526	
-0.390198	
-0.391052	
-0.389587	
-0.389587	
-0.388794	
-0.389404	
-0.389343	
-0.389832	
-0.390259	
-0.390015	
-0.390442	
-0.389587	
-0.390625	
-0.390686	
-0.390442	
-0.390015	
-0.388977	
-0.390442	
-0.390564	
-0.390198	
-0.391663	
-0.391724	
-0.392212	
-0.392334	
-0.394836	
-0.393127	
-0.393799	
-0.394104	
-0.392639	
-0.39386	
-0.394043	
-0.394714	
-0.395203	
-0.394958	
-0.394836	
-0.394287	
-0.396301	
-0.394775	
-0.394592	
-0.393066	
-0.394958	
-0.393921	
-0.394226	
-0.395142	
-0.395142	
-0.394836	
-0.394104	
-0.39502	
-0.394836	
-0.394226	
-0.393799	
-0.393433	
-0.394348	
-0.394165	
-0.39325	
-0.394104	
-0.393616	
-0.393555	
-0.393677	
-0.394653	
-0.393433	
-0.392883	
-0.393005	
-0.392029	
-0.392456	
-0.392151	
-0.392578	
-0.393127	
-0.391785	
-0.391602	
-0.391907	
-0.392456	
-0.391541	
-0.391357	
-0.390015	
-0.389771	
-0.390503	
-0.389709	
-0.390381	
-0.390869	
-0.389954	
-0.390442	
-0.391235	
-0.39093	
-0.390686	
-0.390564	
-0.389587	
-0.39032	
-0.389771	
-0.389587	
-0.391174	
-0.39209	
-0.391724	
-0.392334	
-0.391968	
-0.393005	
-0.3927	
-0.392456	
-0.391479	
-0.3927	
-0.392822	
-0.392151	
-0.393127	
-0.392883	
-0.393005	
-0.39325	
-0.39325	
-0.393433	
-0.393005	
-0.393188	
-0.391602	
-0.392883	
-0.392639	
-0.392578	
-0.392578	
-0.392395	
-0.391724	
-0.392822	
-0.391479	
-0.391479	
-0.390564	
-0.390625	
-0.389648	
-0.388977	
-0.388489	
-0.388306	
-0.389771	
-0.38855	
-0.388977	
-0.389404	
-0.389709	
-0.388733	
-0.388245	
-0.388733	
-0.389343	
-0.389343	
-0.388611	
-0.39032	
-0.390564	
-0.390198	
-0.389832	
-0.390686	
-0.390564	
-0.390564	
-0.39032	
-0.389954	
-0.390808	
-0.390564	
-0.390137	
-0.391052	
-0.391296	
-0.391479	
-0.392029	
-0.392517	
-0.391418	
-0.391174	
-0.391357	
-0.391663	
-0.392273	
-0.39209	
-0.392639	
-0.393311	
-0.393494	
-0.39447	
-0.394348	
-0.393616	
	
