E:\DOCUMENTS AND SETTINGS\JPOTAS\MEUS DOCUMENTOS\UFRJ\RSCI-BM 12 WK SERIES\070718-RSCI-BM-03\RSCI-BM-03-LEMG\070718-RSCI-BM-03-LEMG-0017.ACQ
0.025000 msec/sample
1 channel
Analog input
Volts
CH1	
2000	
-0.395813	
-0.395447	
-0.394714	
-0.394775	
-0.394714	
-0.393005	
-0.393372	
-0.393188	
-0.392578	
-0.392883	
-0.392578	
-0.391113	
-0.39209	
-0.391785	
-0.391357	
-0.391174	
-0.390747	
-0.391296	
-0.391113	
-0.391296	
-0.390991	
-0.391357	
-0.391174	
-0.389771	
-0.390442	
-0.389465	
-0.390076	
-0.390015	
-0.390869	
-0.390808	
-0.390564	
-0.391846	
-0.391418	
-0.392151	
-0.392395	
-0.391235	
-0.392578	
-0.390991	
-0.392212	
-0.391846	
-0.393005	
-0.392395	
-0.392822	
-0.39386	
-0.393372	
-0.393616	
-0.393066	
-0.392944	
-0.395142	
-0.393372	
-0.393677	
-0.393311	
-0.393372	
-0.394043	
-0.394287	
-0.395081	
-0.394348	
-0.395386	
-0.395447	
-0.394653	
-0.396118	
-0.394897	
-0.395142	
-0.394714	
-0.394836	
-0.395081	
-0.395386	
-0.396606	
-0.395996	
-0.396545	
-0.39624	
-0.39563	
-0.39624	
-0.395386	
-0.39447	
-0.394043	
-0.394226	
-0.394897	
-0.394836	
-0.395203	
-0.394592	
-0.395447	
-0.395325	
-0.394531	
-0.395752	
-0.394653	
-0.395081	
-0.394775	
-0.393555	
-0.394226	
-0.394409	
-0.394592	
-0.393799	
-0.39447	
-0.394226	
-0.393433	
-0.393738	
-0.3927	
-0.392883	
-0.391968	
-0.391602	
-0.392639	
-0.391785	
-0.392761	
-0.392761	
-0.393127	
-0.392761	
-0.391907	
-0.392822	
-0.391602	
-0.391785	
-0.392151	
-0.391296	
-0.392212	
-0.392212	
-0.392944	
-0.393127	
-0.394531	
-0.394653	
-0.393921	
-0.395142	
-0.394714	
-0.39502	
-0.394775	
-0.395325	
-0.395691	
-0.396606	
-0.396912	
-0.396362	
-0.3974	
-0.397522	
-0.396912	
-0.396606	
-0.395996	
-0.396667	
-0.396057	
-0.395813	
-0.396423	
-0.396729	
-0.397522	
-0.396484	
-0.396423	
-0.396729	
-0.396179	
-0.395874	
-0.39502	
-0.395447	
-0.393921	
-0.394165	
-0.39502	
-0.394592	
-0.394348	
-0.393677	
-0.394043	
-0.393921	
-0.392517	
-0.391724	
-0.390137	
-0.39032	
-0.389099	
-0.38855	
-0.388794	
-0.388794	
-0.38916	
-0.388489	
-0.388306	
-0.388611	
-0.388062	
-0.387756	
-0.38623	
-0.387024	
-0.386536	
-0.386292	
-0.387573	
-0.388367	
-0.389221	
-0.388428	
-0.388489	
-0.38855	
-0.389465	
-0.388611	
-0.387207	
-0.388977	
-0.389404	
-0.389099	
-0.390564	
-0.391724	
-0.392456	
-0.391296	
-0.392395	
-0.393127	
-0.393066	
-0.393127	
-0.391418	
-0.392029	
-0.392456	
-0.391907	
-0.212952	
0.0325317	
-0.0532837	
-0.0757446	
-0.0778809	
-0.0726318	
-0.397461	
-0.470215	
-0.379333	
-0.349915	
-0.336731	
-0.33197	
-0.329468	
-0.327576	
-0.326477	
-0.326294	
-0.325562	
-0.325684	
-0.326843	
-0.326843	
-0.325439	
-0.324768	
-0.322571	
-0.325256	
-0.325073	
-0.325745	
-0.325562	
-0.325928	
-0.326233	
-0.326355	
-0.328125	
-0.326782	
-0.327393	
-0.3255	
-0.326294	
-0.327637	
-0.327454	
-0.327942	
-0.327942	
-0.328186	
-0.327942	
-0.32959	
-0.327637	
-0.32782	
-0.328186	
-0.325134	
-0.327698	
-0.327332	
-0.327515	
-0.328064	
-0.328979	
-0.329651	
-0.330505	
-0.333679	
-0.334106	
-0.33728	
-0.338928	
-0.344299	
-0.348206	
-0.352783	
-0.356567	
-0.360718	
-0.364624	
-0.368591	
-0.374329	
-0.377808	
-0.383484	
-0.388245	
-0.394653	
-0.403625	
-0.41095	
-0.421204	
-0.431152	
-0.439697	
-0.446777	
-0.455078	
-0.460205	
-0.464233	
-0.467468	
-0.472534	
-0.477356	
-0.47998	
-0.484436	
-0.486755	
-0.48938	
-0.492004	
-0.494873	
-0.495056	
-0.495056	
-0.496033	
-0.494995	
-0.495544	
-0.495728	
-0.495361	
-0.4953	
-0.495972	
-0.496399	
-0.496643	
-0.497375	
-0.496887	
-0.496155	
-0.497131	
-0.497375	
-0.499023	
-0.499634	
-0.502441	
-0.502808	
-0.502991	
-0.502563	
-0.503357	
-0.502319	
-0.500183	
-0.499084	
-0.496033	
-0.494141	
-0.491821	
-0.487427	
-0.484802	
-0.480896	
-0.477234	
-0.473267	
-0.470032	
-0.464478	
-0.460754	
-0.456238	
-0.4505	
-0.446716	
-0.443115	
-0.437988	
-0.434631	
-0.429871	
-0.424927	
-0.420166	
-0.415527	
-0.409607	
-0.403259	
-0.397888	
-0.391357	
-0.386597	
-0.381042	
-0.374939	
-0.369995	
-0.365173	
-0.358765	
-0.353821	
-0.348206	
-0.340515	
-0.334534	
-0.32843	
-0.321228	
-0.315063	
-0.307861	
-0.300842	
-0.293579	
-0.286804	
-0.280029	
-0.274109	
-0.267212	
-0.260315	
-0.254395	
-0.24939	
-0.242981	
-0.238586	
-0.233032	
-0.228088	
-0.222961	
-0.218201	
-0.214172	
-0.211914	
-0.207703	
-0.204956	
-0.203735	
-0.202637	
-0.203369	
-0.204163	
-0.204773	
-0.208313	
-0.211182	
-0.215271	
-0.219482	
-0.223999	
-0.228577	
-0.234131	
-0.238586	
-0.244873	
-0.252258	
-0.257874	
-0.265259	
-0.270691	
-0.276794	
-0.28363	
-0.289978	
-0.292969	
-0.297668	
-0.302002	
-0.308044	
-0.312744	
-0.315308	
-0.319702	
-0.323914	
-0.32782	
-0.331238	
-0.334534	
-0.335388	
-0.337646	
-0.338562	
-0.341858	
-0.343933	
-0.344666	
-0.346741	
-0.348083	
-0.349548	
-0.350952	
-0.351563	
-0.352295	
-0.353638	
-0.354858	
-0.356079	
-0.357788	
-0.358398	
-0.359314	
-0.360657	
-0.361938	
-0.363281	
-0.363708	
-0.364441	
-0.362732	
-0.364441	
-0.363403	
-0.36377	
-0.363037	
-0.363098	
-0.362488	
-0.362305	
-0.362183	
-0.360718	
-0.359314	
-0.357422	
-0.356201	
-0.353455	
-0.352356	
-0.350525	
-0.348389	
-0.347229	
-0.346313	
-0.343384	
-0.340698	
-0.339478	
-0.337219	
-0.333557	
-0.333191	
-0.330322	
-0.32782	
-0.324524	
-0.323242	
-0.320862	
-0.317871	
-0.315918	
-0.312927	
-0.310974	
-0.308472	
-0.306396	
-0.304138	
-0.302734	
-0.301941	
-0.301941	
-0.300781	
-0.300598	
-0.300964	
-0.300659	
-0.301086	
-0.302124	
-0.302673	
-0.303772	
-0.303894	
-0.305786	
-0.307617	
-0.309021	
-0.310608	
-0.312561	
-0.312988	
-0.315552	
-0.317993	
-0.317871	
-0.319519	
-0.320068	
-0.322815	
-0.324097	
-0.325867	
-0.326111	
-0.327576	
-0.329041	
-0.330688	
-0.332764	
-0.333008	
-0.332886	
-0.334717	
-0.336487	
-0.337646	
-0.338989	
-0.339478	
-0.341064	
-0.341064	
-0.342407	
-0.344727	
-0.343689	
-0.343445	
-0.343933	
-0.344666	
-0.34491	
-0.345642	
-0.34613	
-0.346863	
-0.347595	
-0.346863	
-0.348083	
-0.347717	
-0.347961	
-0.346924	
-0.34668	
-0.347534	
-0.347717	
-0.348938	
-0.348145	
-0.347229	
-0.346924	
-0.348267	
-0.348511	
-0.346924	
-0.346375	
-0.346436	
-0.346436	
-0.34552	
-0.346741	
-0.347107	
-0.346436	
-0.346741	
-0.345642	
-0.347961	
-0.347473	
-0.347473	
-0.34668	
-0.345886	
-0.346436	
-0.346802	
-0.346985	
-0.34729	
-0.346985	
-0.347168	
-0.346313	
-0.349121	
-0.347717	
-0.348633	
-0.347778	
-0.347046	
-0.348267	
-0.348145	
-0.348267	
-0.348022	
-0.348938	
-0.348267	
-0.347351	
-0.349792	
-0.349182	
-0.349182	
-0.348145	
-0.347412	
-0.348999	
-0.349609	
-0.350647	
-0.349915	
-0.349915	
-0.350281	
-0.351013	
-0.351868	
-0.351807	
-0.351563	
-0.349731	
-0.350464	
-0.351685	
-0.352478	
-0.352966	
-0.352966	
-0.353638	
-0.353699	
-0.355042	
-0.35437	
-0.354858	
-0.354065	
-0.353943	
-0.35376	
-0.354004	
-0.354797	
-0.354065	
-0.354065	
-0.35376	
-0.355469	
-0.355042	
-0.354797	
-0.354248	
-0.353394	
0.0391235	
-0.0466919	
-0.0693359	
-0.071228	
-0.0672607	
-0.165527	
-0.434265	
-0.343933	
-0.314819	
-0.30249	
-0.298218	
-0.296448	
-0.293884	
-0.293091	
-0.292358	
-0.292053	
-0.292542	
-0.292419	
-0.292236	
-0.291199	
-0.289307	
-0.290649	
-0.291565	
-0.291687	
-0.291687	
-0.292236	
-0.292969	
-0.292786	
-0.294739	
-0.293579	
-0.292908	
-0.292786	
-0.29303	
-0.292847	
-0.294617	
-0.295593	
-0.295532	
-0.296387	
-0.296387	
-0.298157	
-0.299011	
-0.298462	
-0.298279	
-0.298035	
-0.298584	
-0.300293	
-0.301025	
-0.300842	
-0.302307	
-0.303772	
-0.304749	
-0.305725	
-0.308411	
-0.309937	
-0.311646	
-0.315247	
-0.321106	
-0.325928	
-0.330383	
-0.3349	
-0.338501	
-0.342102	
-0.346619	
-0.350708	
-0.353394	
-0.358032	
-0.362671	
-0.368958	
-0.376343	
-0.384033	
-0.391052	
-0.399963	
-0.407654	
-0.415955	
-0.422119	
-0.426086	
-0.429321	
-0.432678	
-0.435791	
-0.439087	
-0.441589	
-0.443359	
-0.445251	
-0.445679	
-0.448486	
-0.449036	
-0.447754	
-0.446594	
-0.447327	
-0.447998	
-0.44873	
-0.448975	
-0.449646	
-0.450378	
-0.450745	
-0.451904	
-0.453125	
-0.454346	
-0.455444	
-0.456238	
-0.45813	
-0.460144	
-0.462097	
-0.463501	
-0.464111	
-0.46405	
-0.463562	
-0.464539	
-0.462769	
-0.460693	
-0.457825	
-0.455505	
-0.453125	
-0.449951	
-0.446777	
-0.443726	
-0.438965	
-0.434631	
-0.429871	
-0.426697	
-0.421692	
-0.416809	
-0.410706	
-0.405701	
-0.40094	
-0.395447	
-0.389893	
-0.382813	
-0.376709	
-0.369324	
-0.363831	
-0.356567	
-0.348206	
-0.340576	
-0.332153	
-0.325378	
-0.318481	
-0.311523	
-0.303711	
-0.296631	
-0.28949	
-0.282349	
-0.275818	
-0.268188	
-0.258545	
-0.250305	
-0.241882	
-0.233582	
-0.225281	
-0.219543	
-0.212708	
-0.206238	
-0.200623	
-0.194458	
-0.190247	
-0.185486	
-0.179932	
-0.173889	
-0.171387	
-0.168884	
-0.167053	
-0.1651	
-0.16449	
-0.164368	
-0.165039	
-0.167725	
-0.170532	
-0.172974	
-0.176025	
-0.179077	
-0.184998	
-0.189941	
-0.197266	
-0.202698	
-0.209839	
-0.215942	
-0.223206	
-0.229431	
-0.235291	
-0.240112	
-0.245483	
-0.251892	
-0.256042	
-0.262024	
-0.267029	
-0.271729	
-0.275757	
-0.281128	
-0.285034	
-0.287781	
-0.289612	
-0.292725	
-0.295837	
-0.29834	
-0.300842	
-0.303589	
-0.305664	
-0.307861	
-0.312012	
-0.312866	
-0.314453	
-0.316162	
-0.31842	
-0.320313	
-0.322083	
-0.325317	
-0.327332	
-0.329529	
-0.331299	
-0.334595	
-0.335449	
-0.33606	
-0.337097	
-0.337708	
-0.337036	
-0.33844	
-0.339172	
-0.33905	
-0.338623	
-0.338196	
-0.338501	
-0.338196	
-0.337158	
-0.334167	
-0.332764	
-0.332336	
-0.331299	
-0.329773	
-0.328735	
-0.327026	
-0.325439	
-0.324768	
-0.324097	
-0.322876	
-0.320618	
-0.319092	
-0.317993	
-0.316528	
-0.316711	
-0.315735	
-0.315247	
-0.314392	
-0.313843	
-0.314758	
-0.31366	
-0.311951	
-0.31134	
-0.310364	
-0.309204	
-0.309937	
-0.309265	
-0.309143	
-0.308289	
-0.307739	
-0.308105	
-0.30835	
-0.308044	
-0.306335	
-0.303101	
-0.303772	
-0.303833	
-0.302063	
-0.301575	
-0.300476	
-0.299805	
-0.299011	
-0.300598	
-0.298767	
-0.297913	
-0.296875	
-0.295959	
-0.29657	
-0.297668	
-0.298035	
-0.297974	
-0.299194	
-0.299133	
-0.300415	
-0.302246	
-0.302063	
-0.30249	
-0.301575	
-0.303833	
-0.305176	
-0.306702	
-0.306519	
-0.307373	
-0.308044	
-0.308716	
-0.31073	
-0.309631	
-0.309875	
-0.308533	
-0.311584	
-0.312134	
-0.312622	
-0.312378	
-0.313538	
-0.314331	
-0.315308	
-0.316528	
-0.315979	
-0.316833	
-0.31488	
-0.317749	
-0.317444	
-0.318481	
-0.319153	
-0.319519	
-0.31958	
-0.320801	
-0.321472	
-0.321167	
-0.321228	
-0.319458	
-0.32074	
-0.321045	
-0.32251	
-0.322693	
-0.322815	
-0.323181	
-0.324097	
-0.325134	
-0.3255	
-0.325317	
-0.323303	
-0.325012	
-0.325623	
-0.32666	
-0.327087	
-0.327698	
-0.327698	
-0.328003	
-0.32959	
-0.328674	
-0.328979	
-0.328857	
-0.328979	
-0.32959	
-0.330383	
-0.331055	
-0.330994	
-0.33136	
-0.33197	
-0.332947	
-0.332458	
-0.333069	
-0.333191	
-0.332825	
-0.332703	
-0.333191	
-0.333191	
-0.334961	
-0.334717	
-0.335022	
-0.335571	
-0.337036	
-0.336609	
-0.336792	
-0.335022	
-0.335815	
-0.337158	
-0.336548	
-0.33606	
-0.336975	
-0.337585	
-0.337708	
-0.338379	
-0.337769	
-0.338074	
-0.337708	
-0.337341	
-0.336243	
-0.335876	
-0.336243	
-0.336121	
-0.335876	
-0.335693	
-0.335693	
-0.335388	
-0.33606	
-0.335388	
-0.334595	
-0.334351	
-0.335083	
-0.3349	
-0.333984	
-0.335266	
-0.33551	
-0.335876	
-0.335632	
-0.335632	
-0.336365	
-0.336487	
-0.336853	
-0.335999	
-0.337585	
-0.337341	
-0.33783	
-0.338013	
-0.339355	
-0.339355	
-0.339844	
-0.340332	
-0.339905	
-0.341064	
-0.340393	
-0.341003	
-0.341431	
-0.34259	
-0.343079	
-0.343933	
-0.343994	
-0.344604	
-0.345154	
-0.344727	
-0.34552	
-0.344543	
-0.345398	
-0.345337	
-0.345825	
-0.34613	
-0.347351	
-0.347168	
-0.347717	
-0.347473	
-0.347107	
-0.3479	
-0.347839	
-0.3479	
-0.3479	
-0.347656	
-0.348022	
-0.348816	
-0.348328	
-0.34845	
-0.348511	
-0.34729	
-0.348816	
-0.347595	
-0.347412	
-0.34729	
-0.347534	
-0.347107	
-0.347595	
-0.347473	
-0.347351	
-0.347168	
-0.346558	
-0.346497	
-0.346924	
-0.347351	
-0.347229	
-0.347046	
-0.34729	
-0.347778	
-0.347046	
-0.347595	
-0.347229	
-0.346985	
-0.346497	
-0.346863	
-0.34613	
-0.346741	
-0.346008	
-0.347107	
-0.347839	
-0.347534	
-0.348694	
-0.347046	
-0.3479	
-0.347473	
-0.348511	
-0.346863	
-0.348633	
-0.347473	
-0.348022	
-0.348999	
-0.348572	
-0.349182	
-0.349365	
-0.349487	
-0.348755	
-0.347473	
-0.348816	
-0.349243	
-0.349731	
-0.34967	
-0.349792	
-0.350098	
-0.350647	
-0.351685	
-0.349487	
-0.350952	
-0.350586	
-0.351318	
-0.351013	
-0.351929	
-0.351013	
-0.352539	
-0.353394	
-0.352783	
-0.353638	
-0.35321	
-0.354065	
-0.353271	
-0.352844	
-0.353577	
-0.35437	
-0.354126	
-0.354309	
-0.354614	
-0.354431	
-0.354492	
-0.354797	
-0.355347	
-0.354309	
-0.352539	
-0.35376	
-0.354065	
-0.353333	
-0.352478	
-0.352844	
-0.352722	
-0.353271	
-0.3526	
-0.352112	
-0.351868	
-0.350769	
-0.351196	
-0.351563	
-0.351135	
-0.350464	
-0.351868	
-0.351624	
-0.351624	
-0.352661	
-0.35199	
-0.352295	
-0.351501	
-0.352417	
-0.352051	
-0.352417	
-0.351929	
-0.352966	
-0.352966	
-0.353394	
-0.355164	
-0.353149	
-0.354004	
-0.354248	
-0.355164	
-0.354553	
-0.355347	
-0.355469	
-0.356384	
-0.3573	
-0.357483	
-0.358337	
-0.358154	
-0.359741	
-0.359985	
-0.361511	
-0.360474	
-0.361694	
-0.362305	
-0.362732	
-0.363159	
-0.362488	
-0.363342	
-0.362854	
-0.363586	
-0.363647	
-0.363037	
-0.363159	
-0.363647	
-0.363708	
-0.364075	
-0.364685	
-0.363831	
-0.363647	
-0.364014	
-0.364258	
-0.363403	
-0.362122	
-0.363037	
-0.36261	
-0.361877	
-0.360718	
-0.361084	
-0.360291	
-0.360535	
-0.360901	
-0.359314	
-0.359253	
-0.358276	
-0.360291	
-0.359863	
-0.359619	
-0.359253	
-0.359619	
-0.360107	
-0.359985	
-0.360291	
-0.35907	
-0.359375	
-0.35907	
-0.359436	
-0.358582	
-0.359436	
-0.360168	
-0.35968	
-0.360413	
-0.359741	
-0.360535	
-0.360168	
-0.360657	
-0.360168	
-0.359253	
-0.360901	
-0.360596	
-0.36084	
-0.360413	
-0.361816	
-0.361511	
-0.361633	
-0.361816	
-0.362244	
-0.362122	
-0.360779	
-0.362	
-0.361694	
-0.362427	
-0.362244	
-0.362122	
-0.362244	
-0.362	
-0.364014	
-0.362854	
-0.363159	
-0.363037	
-0.363098	
-0.363098	
-0.363464	
-0.363953	
-0.362793	
-0.364563	
-0.364197	
-0.365479	
-0.364441	
-0.364624	
-0.364258	
-0.363953	
-0.36438	
-0.364929	
-0.364319	
-0.364075	
-0.364929	
-0.363892	
-0.364136	
-0.363647	
-0.363403	
-0.363403	
-0.361328	
-0.362732	
-0.363281	
-0.36377	
-0.363464	
-0.364014	
-0.363159	
-0.362915	
-0.364075	
-0.363953	
-0.363037	
-0.361816	
-0.362671	
-0.363098	
-0.362793	
-0.362244	
-0.362122	
-0.36261	
-0.362366	
-0.364319	
-0.362366	
-0.362488	
-0.361938	
-0.362	
-0.362976	
-0.36261	
-0.361755	
-0.361267	
-0.362122	
-0.361816	
-0.362854	
-0.362122	
-0.362061	
-0.362183	
-0.361755	
-0.362549	
-0.362183	
-0.362244	
-0.362427	
-0.363037	
-0.362549	
-0.363892	
-0.363159	
-0.363708	
-0.364502	
-0.363342	
-0.365356	
-0.366516	
-0.366638	
-0.366882	
-0.367249	
-0.367859	
-0.368164	
-0.368835	
-0.368652	
-0.368347	
-0.366943	
-0.36853	
-0.369507	
-0.368713	
-0.368958	
-0.368713	
-0.368591	
-0.36908	
-0.36969	
-0.367615	
-0.368286	
-0.367737	
-0.368042	
-0.368896	
-0.367859	
-0.367798	
-0.367554	
-0.367615	
-0.36731	
-0.367371	
-0.366516	
-0.366516	
-0.365723	
-0.364929	
-0.365967	
-0.365112	
-0.36438	
-0.363953	
-0.36438	
-0.364502	
-0.364624	
-0.364624	
-0.36438	
-0.363586	
-0.362	
-0.363403	
-0.363647	
-0.363342	
-0.363464	
-0.363342	
-0.364014	
-0.363708	
-0.364746	
-0.363892	
-0.363953	
-0.363403	
-0.364441	
-0.365234	
-0.364624	
-0.365234	
-0.364563	
-0.366272	
-0.365173	
-0.366821	
-0.366455	
-0.366455	
-0.36615	
-0.366943	
-0.367615	
-0.366516	
-0.367493	
-0.367554	
-0.367554	
-0.368042	
-0.368042	
-0.368042	
-0.367371	
-0.368286	
-0.367798	
-0.368286	
-0.369141	
-0.369202	
-0.36853	
-0.36908	
-0.369934	
-0.369812	
-0.370178	
-0.370178	
-0.370056	
-0.369263	
-0.369934	
-0.370117	
-0.369995	
-0.370239	
-0.369812	
-0.370789	
-0.370728	
-0.371887	
-0.371582	
-0.370422	
-0.369507	
-0.370422	
-0.370667	
-0.370056	
-0.369507	
-0.370056	
-0.370789	
-0.37085	
-0.371826	
-0.370911	
-0.368835	
-0.369812	
-0.370728	
-0.371277	
-0.370667	
-0.370178	
-0.369812	
-0.370056	
-0.370911	
-0.370117	
-0.369568	
-0.369629	
-0.369324	
-0.367615	
-0.368835	
-0.369202	
-0.368713	
-0.368591	
-0.368347	
-0.369141	
-0.369263	
-0.369629	
-0.368469	
-0.368225	
-0.368469	
-0.368225	
-0.369751	
-0.369324	
-0.369202	
-0.368652	
-0.369202	
-0.369873	
-0.370728	
-0.370667	
-0.36969	
-0.369629	
-0.371155	
-0.372559	
-0.372131	
-0.372864	
-0.373047	
-0.37323	
-0.374207	
-0.374878	
-0.373962	
-0.373962	
-0.37384	
-0.37384	
-0.374084	
-0.374939	
-0.374329	
-0.373962	
-0.373352	
-0.375061	
-0.375305	
-0.375061	
-0.374939	
-0.373352	
-0.373413	
-0.37384	
-0.374756	
-0.373535	
-0.373962	
-0.372986	
-0.373657	
-0.374023	
-0.373352	
-0.372986	
-0.371948	
-0.370728	
-0.371399	
-0.372375	
-0.370667	
-0.370117	
-0.369446	
-0.369141	
-0.369324	
-0.368896	
-0.367737	
-0.367371	
-0.366211	
-0.36676	
-0.366699	
-0.366882	
-0.367065	
-0.366821	
-0.366028	
-0.367737	
-0.368103	
-0.367676	
-0.368408	
-0.366882	
-0.366943	
-0.367615	
-0.368591	
-0.368286	
-0.367981	
-0.367554	
-0.369324	
-0.369934	
-0.370789	
-0.370789	
-0.369934	
-0.371277	
-0.372009	
-0.373413	
-0.372742	
-0.372925	
-0.372925	
-0.373474	
-0.37439	
-0.373352	
-0.373901	
-0.373535	
-0.372864	
-0.372437	
-0.373718	
-0.374146	
-0.374573	
-0.374329	
-0.37439	
-0.375	
-0.374695	
-0.375427	
-0.374756	
-0.373596	
-0.375183	
-0.375305	
-0.374817	
-0.375061	
-0.375122	
-0.37384	
-0.375244	
-0.375793	
-0.375732	
-0.375732	
-0.373169	
-0.374939	
-0.374939	
-0.375183	
-0.375671	
-0.375427	
-0.374817	
-0.375183	
-0.376404	
-0.375061	
-0.374817	
-0.375427	
-0.375061	
-0.373962	
-0.375183	
-0.375183	
-0.374695	
-0.374451	
-0.375122	
-0.376038	
-0.375366	
-0.375488	
-0.374329	
-0.374084	
-0.374939	
-0.374451	
-0.373718	
-0.374756	
-0.374939	
-0.374207	
-0.374756	
-0.375488	
-0.375366	
-0.375122	
-0.373413	
-0.375366	
-0.375427	
-0.375916	
-0.375793	
-0.375977	
-0.375916	
-0.376587	
-0.377441	
-0.376526	
-0.377014	
-0.37677	
-0.376343	
-0.375793	
-0.37793	
-0.37677	
-0.377258	
-0.377197	
-0.377869	
-0.378235	
-0.378052	
-0.378784	
-0.378113	
-0.377258	
-0.378113	
-0.378906	
-0.377747	
-0.378906	
-0.378967	
-0.379211	
-0.379639	
-0.380859	
-0.38031	
-0.380127	
-0.380432	
-0.380127	
-0.379883	
-0.379822	
-0.380432	
-0.380432	
-0.380249	
-0.381042	
-0.382019	
-0.381165	
-0.38147	
-0.381287	
-0.38031	
-0.380615	
-0.380615	
-0.380371	
-0.379639	
-0.379333	
-0.378479	
-0.378601	
-0.37793	
-0.377686	
-0.377625	
-0.375122	
-0.376221	
-0.376221	
-0.375671	
-0.37616	
-0.376465	
-0.375793	
-0.376282	
-0.377502	
-0.376404	
-0.376465	
-0.376221	
-0.376404	
-0.376099	
-0.377136	
-0.377625	
-0.377502	
-0.377014	
-0.377441	
-0.378967	
-0.377747	
-0.379028	
-0.379211	
-0.379089	
-0.379211	
-0.3797	
-0.379883	
-0.3797	
-0.380737	
-0.379822	
-0.381958	
-0.382263	
-0.383057	
-0.383118	
-0.380737	
-0.382935	
-0.381958	
-0.383057	
-0.383301	
-0.383545	
-0.38324	
-0.383728	
-0.385925	
-0.38446	
-0.38501	
-0.38446	
-0.384155	
-0.384521	
-0.383972	
-0.384949	
-0.384949	
-0.384521	
-0.383789	
-0.385193	
-0.385254	
-0.384766	
-0.385193	
-0.383911	
-0.383911	
-0.382507	
-0.384338	
-0.383362	
-0.382629	
-0.383179	
-0.383545	
-0.382813	
-0.382751	
-0.383362	
-0.380615	
-0.382019	
-0.381897	
-0.381165	
-0.38208	
-0.381836	
-0.381348	
-0.380554	
-0.383057	
-0.381226	
-0.382324	
-0.381165	
-0.381592	
-0.380859	
-0.379211	
-0.381226	
-0.380615	
-0.381409	
-0.380371	
-0.382446	
-0.381287	
-0.381531	
-0.382202	
-0.381287	
-0.380798	
-0.380005	
-0.381653	
-0.381287	
-0.381226	
-0.380859	
-0.382141	
-0.382019	
-0.381531	
-0.381714	
-0.380493	
-0.381653	
-0.381409	
-0.380981	
-0.382019	
-0.381714	
-0.381226	
-0.381409	
-0.383362	
-0.382385	
-0.382568	
-0.382996	
-0.382385	
-0.382446	
-0.382446	
-0.383423	
-0.383179	
-0.38385	
-0.383484	
-0.384949	
-0.384155	
-0.384216	
-0.38562	
-0.383484	
-0.384399	
-0.383606	
-0.384949	
-0.385254	
-0.385132	
-0.385132	
-0.384583	
-0.386047	
-0.385132	
-0.385742	
-0.384705	
-0.384827	
-0.384644	
-0.383057	
-0.385193	
-0.383423	
-0.383301	
-0.383057	
-0.38385	
-0.381775	
-0.381958	
-0.38269	
-0.381042	
-0.381409	
-0.38092	
-0.381042	
-0.381042	
-0.381165	
-0.381104	
-0.380798	
-0.381897	
-0.381287	
-0.381409	
-0.380554	
-0.381165	
-0.380981	
-0.381348	
-0.382202	
-0.381897	
-0.381653	
-0.38269	
-0.382751	
-0.382202	
-0.382874	
-0.382263	
-0.383484	
-0.383423	
-0.382324	
-0.384888	
-0.384644	
-0.384949	
-0.385437	
-0.386902	
-0.387512	
-0.387329	
-0.38916	
-0.387817	
-0.388367	
-0.388733	
-0.390015	
-0.389648	
-0.389954	
-0.390259	
-0.389709	
-0.391113	
-0.391052	
-0.391113	
-0.389954	
-0.391296	
-0.391296	
-0.389648	
-0.391724	
-0.391174	
-0.390808	
-0.390869	
-0.391907	
-0.391541	
-0.390076	
-0.39093	
-0.389771	
-0.38916	
-0.387695	
-0.38855	
-0.387878	
-0.387329	
-0.387207	
-0.386292	
-0.386292	
-0.386292	
-0.387329	
-0.385193	
-0.385437	
-0.384949	
-0.385986	
-0.386475	
-0.386108	
-0.385986	
-0.385376	
-0.385925	
-0.386658	
-0.385986	
-0.385803	
-0.385559	
-0.385437	
-0.38446	
-0.384949	
-0.385803	
-0.385559	
-0.385498	
-0.385925	
-0.386047	
-0.385925	
-0.387756	
-0.385925	
-0.384949	
-0.385315	
-0.385925	
-0.386414	
-0.386047	
-0.385803	
-0.386047	
-0.386414	
-0.387756	
-0.387451	
-0.385498	
-0.386108	
-0.386719	
-0.38562	
-0.386414	
-0.386841	
-0.386169	
-0.386963	
-0.387817	
-0.38739	
-0.38739	
-0.387939	
-0.386841	
-0.386536	
-0.386414	
-0.388	
-0.388184	
-0.387939	
-0.387939	
-0.388245	
-0.387695	
-0.388977	
-0.38855	
-0.386658	
-0.387024	
-0.387146	
-0.386597	
-0.387085	
-0.387695	
-0.386719	
-0.386719	
-0.387024	
-0.387451	
-0.387268	
-0.386963	
-0.385742	
-0.385742	
-0.385742	
-0.386475	
-0.386169	
-0.386169	
-0.386292	
-0.385681	
-0.385193	
-0.385986	
-0.385864	
-0.384949	
-0.384216	
-0.38501	
-0.383972	
-0.384888	
-0.385376	
-0.384949	
-0.384583	
-0.384216	
-0.385132	
-0.384583	
-0.383606	
-0.384094	
-0.383789	
-0.383606	
-0.384521	
-0.384949	
-0.383667	
-0.383911	
-0.385071	
-0.38446	
-0.383606	
-0.384094	
-0.383423	
-0.383484	
-0.383484	
-0.382935	
-0.383789	
-0.384644	
-0.384216	
-0.385193	
-0.385254	
-0.386658	
-0.38739	
-0.386353	
-0.387207	
-0.387756	
-0.387268	
-0.389221	
-0.389587	
-0.388977	
-0.389282	
-0.390381	
-0.39032	
-0.389954	
-0.390625	
-0.389709	
-0.390015	
-0.389404	
-0.389587	
-0.390015	
-0.389343	
-0.388916	
-0.389526	
-0.388428	
-0.389282	
-0.389282	
-0.388	
-0.387695	
-0.387695	
	
