E:\DOCUMENTS AND SETTINGS\JPOTAS\MEUS DOCUMENTOS\UFRJ\RSCI-BM 12 WK SERIES\070718-RSCI-BM-03\RSCI-BM-03-LEMG\070718-RSCI-BM-03-LEMG-0012.ACQ
0.025000 msec/sample
1 channel
Analog input
Volts
CH1	
2000	
-0.396301	
-0.39502	
-0.395264	
-0.39563	
-0.395508	
-0.39563	
-0.395996	
-0.396423	
-0.396423	
-0.396667	
-0.395813	
-0.395142	
-0.394165	
-0.39386	
-0.394653	
-0.394897	
-0.394897	
-0.39502	
-0.395325	
-0.394409	
-0.394409	
-0.394653	
-0.394592	
-0.394348	
-0.391785	
-0.392517	
-0.393188	
-0.393311	
-0.393494	
-0.393555	
-0.394287	
-0.39325	
-0.393555	
-0.39386	
-0.392578	
-0.393372	
-0.391541	
-0.392456	
-0.392822	
-0.392822	
-0.393616	
-0.3927	
-0.393921	
-0.393921	
-0.393921	
-0.393738	
-0.393188	
-0.393921	
-0.392639	
-0.393738	
-0.393921	
-0.392822	
-0.39386	
-0.393738	
-0.394104	
-0.394287	
-0.394592	
-0.395386	
-0.394592	
-0.394958	
-0.394165	
-0.394531	
-0.394592	
-0.394226	
-0.394836	
-0.394653	
-0.395203	
-0.395752	
-0.395569	
-0.396301	
-0.395935	
-0.39563	
-0.39502	
-0.394714	
-0.394409	
-0.394775	
-0.394897	
-0.394165	
-0.394836	
-0.395569	
-0.394287	
-0.395081	
-0.393982	
-0.393188	
-0.392883	
-0.392151	
-0.392151	
-0.391846	
-0.392639	
-0.392334	
-0.391541	
-0.3927	
-0.391602	
-0.392883	
-0.391174	
-0.391296	
-0.391724	
-0.389709	
-0.390198	
-0.391235	
-0.390686	
-0.391052	
-0.391479	
-0.391785	
-0.391357	
-0.392944	
-0.391785	
-0.390381	
-0.39325	
-0.391296	
-0.391296	
-0.392761	
-0.392517	
-0.393188	
-0.393982	
-0.395081	
-0.394592	
-0.396362	
-0.396423	
-0.395325	
-0.396729	
-0.395325	
-0.396545	
-0.397583	
-0.397156	
-0.398315	
-0.398438	
-0.398865	
-0.398987	
-0.399536	
-0.399292	
-0.398376	
-0.399292	
-0.398682	
-0.399048	
-0.399414	
-0.398926	
-0.399414	
-0.399353	
-0.399841	
-0.399597	
-0.399658	
-0.399841	
-0.398987	
-0.39856	
-0.398438	
-0.39801	
-0.39856	
-0.397949	
-0.397339	
-0.397461	
-0.3974	
-0.398254	
-0.397644	
-0.396606	
-0.396729	
-0.396301	
-0.396423	
-0.396423	
-0.396545	
-0.395142	
-0.39502	
-0.394897	
-0.394897	
-0.395874	
-0.394714	
-0.394531	
-0.394043	
-0.393005	
-0.393433	
-0.3927	
-0.392761	
-0.393494	
-0.392639	
-0.392944	
-0.393066	
-0.393677	
-0.394226	
-0.393494	
-0.393738	
-0.392517	
-0.393127	
-0.393494	
-0.392822	
-0.394592	
-0.393921	
-0.394653	
-0.394531	
-0.394714	
-0.395142	
-0.394226	
-0.394226	
-0.393311	
-0.394104	
-0.394104	
-0.392761	
-0.393433	
-0.209229	
0.0634155	
-0.0370483	
-0.0643311	
-0.0678101	
-0.0641479	
-0.407715	
-0.491089	
-0.388489	
-0.354126	
-0.340454	
-0.335083	
-0.332092	
-0.330505	
-0.328796	
-0.328064	
-0.327759	
-0.32782	
-0.328247	
-0.327881	
-0.326782	
-0.326965	
-0.323853	
-0.327454	
-0.328186	
-0.327881	
-0.328064	
-0.328247	
-0.328369	
-0.328735	
-0.331299	
-0.327454	
-0.327393	
-0.32666	
-0.325317	
-0.327515	
-0.327942	
-0.327148	
-0.327637	
-0.327271	
-0.327271	
-0.328125	
-0.328857	
-0.326904	
-0.327148	
-0.325195	
-0.326965	
-0.326416	
-0.327271	
-0.327026	
-0.327271	
-0.328064	
-0.3302	
-0.333557	
-0.332642	
-0.335144	
-0.337219	
-0.339783	
-0.345398	
-0.349854	
-0.353333	
-0.357056	
-0.360352	
-0.364014	
-0.368591	
-0.373474	
-0.377014	
-0.383118	
-0.387085	
-0.39679	
-0.404602	
-0.414001	
-0.422729	
-0.430176	
-0.437073	
-0.443542	
-0.449829	
-0.452759	
-0.455811	
-0.457397	
-0.281921	
-0.00897217	
-0.112366	
-0.141357	
-0.146667	
-0.144714	
-0.479736	
-0.574707	
-0.471252	
-0.436951	
-0.422485	
-0.417725	
-0.413696	
-0.411011	
-0.409851	
-0.409241	
-0.408875	
-0.408508	
-0.411255	
-0.408813	
-0.409119	
-0.408691	
-0.407532	
-0.411987	
-0.413269	
-0.415222	
-0.416565	
-0.417358	
-0.418274	
-0.418335	
-0.417786	
-0.416321	
-0.414856	
-0.410339	
-0.412354	
-0.409668	
-0.406616	
-0.403931	
-0.401428	
-0.397949	
-0.395386	
-0.39386	
-0.387451	
-0.383179	
-0.377441	
-0.375916	
-0.371155	
-0.367554	
-0.363708	
-0.359558	
-0.354431	
-0.349976	
-0.346741	
-0.339355	
-0.334473	
-0.330078	
-0.322693	
-0.320923	
-0.316467	
-0.311768	
-0.307312	
-0.302612	
-0.298828	
-0.294678	
-0.292786	
-0.287354	
-0.282654	
-0.27887	
-0.272827	
-0.271851	
-0.267334	
-0.263367	
-0.259583	
-0.256165	
-0.252563	
-0.248718	
-0.246887	
-0.23938	
-0.234985	
-0.230042	
-0.224426	
-0.222717	
-0.218506	
-0.214294	
-0.210754	
-0.206665	
-0.204102	
-0.201599	
-0.198669	
-0.194519	
-0.190674	
-0.186707	
-0.187256	
-0.185181	
-0.184082	
-0.183899	
-0.184265	
-0.18512	
-0.188171	
-0.193665	
-0.194336	
-0.19751	
-0.200256	
-0.207153	
-0.211731	
-0.217102	
-0.222107	
-0.228333	
-0.234131	
-0.239929	
-0.2453	
-0.249084	
-0.25415	
-0.258423	
-0.265076	
-0.27002	
-0.275635	
-0.280334	
-0.284546	
-0.288757	
-0.293457	
-0.298828	
-0.300781	
-0.303772	
-0.307983	
-0.31134	
-0.315247	
-0.317932	
-0.320251	
-0.322327	
-0.323303	
-0.324158	
-0.324707	
-0.322998	
-0.322937	
-0.321289	
-0.321899	
-0.321472	
-0.320984	
-0.319641	
-0.318787	
-0.316345	
-0.31488	
-0.313782	
-0.311523	
-0.308167	
-0.30542	
-0.302673	
-0.301392	
-0.299683	
-0.297791	
-0.29657	
-0.293762	
-0.292358	
-0.288696	
-0.286926	
-0.282471	
-0.27887	
-0.274963	
-0.271729	
-0.268494	
-0.26416	
-0.260986	
-0.256409	
-0.251831	
-0.247925	
-0.244995	
-0.239868	
-0.236572	
-0.233032	
-0.227722	
-0.224731	
-0.221863	
-0.218994	
-0.216919	
-0.214233	
-0.211304	
-0.208679	
-0.208069	
-0.205078	
-0.203125	
-0.19989	
-0.199097	
-0.198059	
-0.197754	
-0.197327	
-0.196533	
-0.196167	
-0.197449	
-0.200867	
-0.20105	
-0.203186	
-0.205078	
-0.208435	
-0.212952	
-0.216919	
-0.221436	
-0.225281	
-0.229004	
-0.234192	
-0.239807	
-0.243408	
-0.248474	
-0.252625	
-0.255127	
-0.260986	
-0.264709	
-0.267944	
-0.27124	
-0.273743	
-0.2771	
-0.280151	
-0.281799	
-0.283752	
-0.285706	
-0.28656	
-0.290833	
-0.294128	
-0.294678	
-0.297119	
-0.297302	
-0.298828	
-0.300049	
-0.301941	
-0.300842	
-0.300476	
-0.300903	
-0.300781	
-0.300781	
-0.301575	
-0.301941	
-0.302002	
-0.301086	
-0.302185	
-0.301697	
-0.301147	
-0.300598	
-0.301086	
-0.300537	
-0.301086	
-0.301147	
-0.30127	
-0.301392	
-0.301147	
-0.300354	
-0.300476	
-0.300354	
-0.299927	
-0.299561	
-0.298645	
-0.299133	
-0.299622	
-0.299744	
-0.29834	
-0.298523	
-0.298279	
-0.297363	
-0.298157	
-0.297607	
-0.297791	
-0.296875	
-0.297119	
-0.296448	
-0.297241	
-0.298096	
-0.297302	
-0.298157	
-0.296814	
-0.297791	
-0.296997	
-0.297668	
-0.297546	
-0.298157	
-0.298218	
-0.298828	
-0.299316	
-0.298767	
-0.299805	
-0.299805	
-0.299011	
-0.298889	
-0.299438	
-0.300842	
-0.299866	
-0.301331	
-0.302063	
-0.303589	
-0.30426	
-0.304382	
-0.304932	
-0.305359	
-0.304871	
-0.30658	
-0.307556	
-0.306641	
-0.308044	
-0.308472	
-0.308899	
-0.310974	
-0.310791	
-0.310974	
-0.312317	
-0.311279	
-0.312561	
-0.312561	
-0.312988	
-0.313782	
-0.314209	
-0.313721	
-0.315613	
-0.315674	
-0.315979	
-0.317749	
-0.315613	
-0.317017	
-0.316833	
-0.31781	
-0.317566	
-0.317444	
-0.3172	
-0.317505	
-0.318298	
-0.317444	
-0.317627	
-0.31604	
-0.317078	
-0.316162	
-0.317261	
-0.317261	
-0.3172	
-0.316772	
-0.317749	
-0.318481	
-0.317566	
-0.317383	
-0.315918	
-0.317017	
-0.316528	
-0.316772	
-0.317322	
-0.317383	
-0.317749	
-0.318176	
-0.318298	
-0.318665	
-0.319397	
-0.318054	
-0.318909	
-0.319458	
-0.32019	
-0.320007	
-0.32074	
-0.32074	
-0.321594	
-0.322937	
-0.322388	
-0.322388	
-0.322937	
-0.322327	
-0.323608	
-0.324829	
-0.325439	
-0.326538	
-0.326355	
-0.326721	
-0.328491	
-0.327942	
-0.328491	
-0.32959	
-0.328857	
-0.329041	
-0.329834	
-0.330627	
-0.330566	
-0.330566	
-0.329773	
-0.331848	
-0.331909	
-0.331116	
-0.331665	
-0.330078	
-0.330444	
-0.33075	
-0.331177	
-0.331726	
-0.33136	
-0.330933	
-0.331238	
-0.33197	
-0.331787	
-0.330811	
-0.330139	
-0.330444	
-0.331665	
-0.331604	
-0.330933	
-0.330933	
-0.330933	
-0.331604	
-0.332214	
-0.332947	
-0.331909	
-0.332703	
-0.330261	
-0.332092	
-0.331421	
-0.331482	
-0.331726	
-0.331726	
-0.331482	
-0.331787	
-0.333313	
-0.331482	
-0.332092	
-0.330627	
-0.331543	
-0.332092	
-0.332397	
-0.332581	
-0.332397	
-0.331787	
-0.33313	
-0.334473	
-0.332825	
-0.333679	
-0.332581	
-0.333008	
-0.334167	
-0.334229	
-0.334412	
-0.333984	
-0.333679	
-0.334412	
-0.336365	
-0.33551	
-0.335693	
-0.335205	
-0.333862	
-0.335205	
-0.3349	
-0.335938	
-0.336304	
-0.336426	
-0.33667	
-0.337708	
-0.337158	
-0.337463	
-0.33783	
-0.334534	
-0.337769	
-0.337463	
-0.338257	
-0.338684	
-0.338196	
-0.338745	
-0.339722	
-0.340454	
-0.339294	
-0.340088	
-0.33783	
-0.340088	
-0.339233	
-0.339417	
-0.3396	
-0.339539	
-0.340027	
-0.340393	
-0.341797	
-0.339844	
-0.340576	
-0.33844	
-0.338989	
-0.338989	
-0.338623	
-0.33844	
-0.338013	
-0.338196	
-0.338562	
-0.340454	
-0.33844	
-0.338501	
-0.337769	
-0.33783	
-0.338196	
-0.338196	
-0.338196	
-0.338013	
-0.337158	
-0.338806	
-0.340088	
-0.338867	
-0.339111	
-0.338501	
-0.338379	
-0.339111	
-0.3396	
-0.339783	
-0.340027	
-0.340454	
-0.34137	
-0.342041	
-0.342224	
-0.342407	
-0.34259	
-0.341248	
-0.343689	
-0.344604	
-0.345032	
-0.345215	
-0.345825	
-0.346497	
-0.347229	
-0.34906	
-0.348633	
-0.349243	
-0.346619	
-0.348633	
-0.349243	
-0.349304	
-0.349365	
-0.349487	
-0.348938	
-0.350098	
-0.352173	
-0.350891	
-0.351196	
-0.35022	
-0.349792	
-0.351135	
-0.351379	
-0.351074	
-0.350952	
-0.350403	
-0.350952	
-0.351135	
-0.350586	
-0.350281	
-0.350281	
-0.348206	
-0.34906	
-0.349548	
-0.348999	
-0.348938	
-0.349365	
-0.349609	
-0.349243	
-0.351501	
-0.349365	
-0.349304	
-0.347229	
-0.347656	
-0.346802	
-0.347839	
-0.347961	
-0.347412	
-0.346497	
-0.347412	
-0.348633	
-0.346741	
-0.347168	
-0.346252	
-0.346069	
-0.346436	
-0.346497	
-0.346985	
-0.34729	
-0.34613	
-0.347046	
-0.348694	
-0.347778	
-0.348755	
-0.347839	
-0.347229	
-0.348328	
-0.349487	
-0.349609	
-0.349548	
-0.34906	
-0.34967	
-0.350464	
-0.350464	
-0.35022	
-0.348694	
-0.347107	
-0.348999	
-0.350159	
-0.349731	
-0.350098	
-0.349854	
-0.349792	
-0.350647	
-0.351929	
-0.350891	
-0.350525	
-0.350037	
-0.351379	
-0.352661	
-0.351563	
-0.351868	
-0.351563	
-0.352356	
-0.352356	
-0.354187	
-0.353638	
-0.353149	
-0.353088	
-0.353271	
-0.352661	
-0.353882	
-0.354065	
-0.353943	
-0.352966	
-0.354126	
-0.354736	
-0.355103	
-0.354004	
-0.353455	
-0.3526	
-0.352112	
-0.353149	
-0.352722	
-0.351563	
-0.350708	
-0.352173	
-0.351807	
-0.352173	
-0.352051	
-0.351379	
-0.350586	
-0.350464	
-0.351807	
-0.351318	
-0.351318	
-0.350708	
-0.351013	
-0.351196	
-0.352173	
-0.352966	
-0.351013	
-0.350708	
-0.349731	
-0.352112	
-0.351746	
-0.351318	
-0.351318	
-0.351868	
-0.352295	
-0.353149	
-0.35376	
-0.352966	
-0.352722	
-0.353394	
-0.353088	
-0.355042	
-0.355103	
-0.355408	
-0.356323	
-0.356628	
-0.357605	
-0.357849	
-0.357666	
-0.356873	
-0.356812	
-0.355652	
-0.357178	
-0.357849	
-0.357971	
-0.357849	
-0.357971	
-0.358459	
-0.358948	
-0.359741	
-0.35791	
-0.357971	
-0.357971	
-0.358826	
-0.359131	
-0.358643	
-0.357666	
-0.358765	
-0.358887	
-0.359253	
-0.359985	
-0.358826	
-0.357422	
-0.357605	
-0.358704	
-0.358521	
-0.357971	
-0.357849	
-0.358032	
-0.358154	
-0.358704	
-0.35791	
-0.356995	
-0.356018	
-0.355652	
-0.354797	
-0.355286	
-0.354797	
-0.354492	
-0.354553	
-0.35437	
-0.355286	
-0.354492	
-0.355835	
-0.353943	
-0.352966	
-0.353882	
-0.353638	
-0.354492	
-0.355164	
-0.355408	
-0.35498	
-0.355713	
-0.356567	
-0.356567	
-0.355347	
-0.355713	
-0.355591	
-0.355835	
-0.356445	
-0.357605	
-0.356812	
-0.357361	
-0.357422	
-0.35907	
-0.359375	
-0.359436	
-0.358704	
-0.357971	
-0.357056	
-0.358826	
-0.358643	
-0.358643	
-0.359314	
-0.359375	
-0.360107	
-0.361145	
-0.362	
-0.360352	
-0.358765	
-0.361084	
-0.361389	
-0.361572	
-0.361084	
-0.361511	
-0.362366	
-0.362976	
-0.363281	
-0.36322	
-0.362976	
-0.362732	
-0.362793	
-0.362732	
-0.363037	
-0.363098	
-0.362183	
-0.363281	
-0.363159	
-0.364258	
-0.36438	
-0.363892	
-0.362732	
-0.363037	
-0.361816	
-0.363281	
-0.363037	
-0.362427	
-0.363159	
-0.363831	
-0.36438	
-0.364563	
-0.365051	
-0.363159	
-0.363342	
-0.363586	
-0.364014	
-0.363708	
-0.363098	
-0.363403	
-0.363342	
-0.363281	
-0.36377	
-0.363953	
-0.362732	
-0.36261	
-0.362549	
-0.362183	
-0.363281	
-0.362793	
-0.362793	
-0.363037	
-0.363586	
-0.363831	
-0.36438	
-0.364075	
-0.363586	
-0.363403	
-0.363647	
-0.364502	
-0.364502	
-0.364319	
-0.365112	
-0.365784	
-0.366028	
-0.367188	
-0.367126	
-0.366638	
-0.365967	
-0.366577	
-0.367249	
-0.367737	
-0.366333	
-0.367798	
-0.368469	
-0.368591	
-0.369385	
-0.369873	
-0.36908	
-0.368408	
-0.368591	
-0.368042	
-0.368652	
-0.368408	
-0.368896	
-0.368774	
-0.36853	
-0.369202	
-0.370361	
-0.369629	
-0.368164	
-0.368286	
-0.367615	
-0.367981	
-0.367615	
-0.367737	
-0.367859	
-0.367065	
-0.366882	
-0.367004	
-0.366394	
-0.364929	
-0.363953	
-0.363647	
-0.363098	
-0.363525	
-0.362671	
-0.36377	
-0.363281	
-0.363281	
-0.364319	
-0.364563	
-0.363647	
-0.362427	
-0.362244	
-0.362122	
-0.362427	
-0.362671	
-0.36322	
-0.363464	
-0.363647	
-0.363892	
-0.36554	
-0.364868	
-0.364136	
-0.364563	
-0.36377	
-0.364563	
-0.364563	
-0.364929	
-0.365295	
-0.365906	
-0.366394	
-0.36731	
-0.367065	
-0.366028	
-0.366699	
-0.367065	
-0.366699	
-0.367249	
-0.368286	
-0.368713	
-0.369263	
-0.369812	
-0.370667	
-0.370789	
-0.371277	
-0.370544	
-0.369995	
-0.370972	
-0.371521	
-0.370361	
-0.371582	
-0.371765	
-0.372131	
-0.372375	
-0.373474	
-0.372803	
-0.372803	
-0.373413	
-0.371704	
-0.372131	
-0.371399	
-0.371582	
-0.37207	
-0.371643	
-0.371704	
-0.371643	
-0.372009	
-0.371399	
-0.3703	
-0.37146	
-0.371277	
-0.371826	
-0.372009	
-0.372253	
-0.371521	
-0.372009	
-0.373291	
-0.372681	
-0.373352	
-0.372131	
-0.371155	
-0.3703	
-0.371948	
-0.371033	
-0.371582	
-0.371338	
-0.371582	
-0.37207	
-0.372314	
-0.372375	
-0.37085	
-0.371582	
-0.37085	
-0.369812	
-0.370667	
-0.370667	
-0.371094	
-0.371277	
-0.371399	
-0.371521	
-0.37207	
-0.37207	
-0.369934	
-0.371094	
-0.37146	
-0.371216	
-0.372009	
-0.372192	
-0.372375	
-0.372925	
-0.37439	
-0.373901	
-0.374268	
-0.373413	
-0.373779	
-0.374084	
-0.373962	
-0.374329	
-0.375305	
-0.375366	
-0.375916	
-0.37677	
-0.376526	
-0.376343	
-0.376587	
-0.375916	
-0.375366	
-0.375977	
-0.376221	
-0.376404	
-0.376221	
-0.377014	
-0.377319	
-0.377441	
-0.377197	
-0.376648	
-0.375366	
-0.37616	
-0.375977	
-0.375305	
-0.375	
-0.375854	
-0.375977	
-0.375977	
-0.375854	
-0.374878	
-0.374084	
-0.374268	
-0.372986	
-0.372681	
-0.373352	
-0.372925	
-0.372986	
-0.373413	
-0.373413	
-0.374023	
-0.374329	
-0.373718	
-0.373413	
-0.373413	
-0.372742	
-0.373352	
-0.371826	
-0.372803	
-0.373596	
-0.37323	
-0.373718	
-0.37384	
-0.374817	
-0.373901	
-0.373718	
-0.37262	
-0.374512	
-0.374512	
-0.373718	
-0.374634	
-0.374939	
-0.37561	
-0.376404	
-0.377075	
-0.376465	
-0.376404	
-0.376892	
-0.377991	
-0.378235	
-0.376343	
-0.378601	
-0.379395	
-0.379944	
-0.380676	
-0.381165	
-0.380432	
-0.381287	
-0.382446	
-0.380432	
-0.38092	
-0.381226	
-0.381775	
-0.382019	
-0.381653	
-0.381714	
-0.382019	
-0.38269	
-0.381897	
-0.381531	
-0.380798	
-0.381226	
-0.381042	
-0.380371	
-0.381042	
-0.381287	
-0.380798	
-0.382019	
-0.381714	
-0.380249	
-0.379944	
-0.380554	
-0.379333	
-0.379639	
-0.378906	
-0.380005	
-0.380371	
-0.380188	
-0.380371	
-0.379944	
-0.380188	
-0.379883	
-0.380493	
-0.37854	
-0.379822	
-0.379089	
-0.378967	
-0.378723	
-0.378479	
-0.379211	
-0.379211	
-0.38031	
-0.378479	
-0.377991	
-0.378174	
-0.378235	
-0.378479	
-0.376648	
-0.378662	
-0.378662	
-0.378357	
-0.379944	
-0.379944	
-0.37854	
-0.378052	
-0.379578	
-0.377441	
-0.378784	
-0.378601	
-0.379456	
-0.37915	
-0.379211	
-0.37915	
-0.379883	
-0.380615	
-0.37915	
-0.379517	
-0.378296	
-0.379761	
-0.379761	
-0.378906	
-0.380005	
-0.380188	
-0.381104	
-0.381287	
-0.382324	
-0.380737	
-0.381104	
-0.381836	
-0.381165	
-0.381165	
-0.380127	
-0.381226	
-0.38208	
-0.382141	
-0.382751	
-0.382629	
-0.38269	
-0.38208	
-0.383423	
-0.380981	
-0.381714	
-0.38208	
-0.38147	
-0.382202	
-0.382263	
-0.382813	
-0.382507	
-0.383667	
-0.381592	
-0.380249	
-0.38092	
-0.380737	
-0.380615	
-0.378601	
-0.379883	
-0.379272	
-0.379639	
-0.380432	
-0.380371	
-0.37915	
-0.378967	
-0.379944	
-0.379272	
-0.379456	
-0.378418	
-0.37915	
-0.379272	
-0.379578	
-0.37915	
-0.379639	
-0.379578	
-0.379639	
-0.3797	
-0.378479	
-0.380249	
-0.3797	
-0.379761	
-0.381042	
-0.380981	
-0.381348	
-0.382019	
-0.383728	
-0.382874	
-0.383179	
-0.384216	
-0.384216	
-0.384827	
-0.384216	
-0.385498	
-0.386169	
-0.38678	
-0.387085	
-0.387634	
-0.387573	
-0.387695	
-0.387817	
-0.387817	
-0.387817	
-0.388123	
-0.387268	
-0.388367	
-0.388123	
-0.388062	
-0.388977	
-0.389404	
-0.388977	
-0.388489	
-0.388611	
-0.388916	
-0.388794	
-0.388184	
-0.387756	
-0.387695	
-0.388367	
-0.389343	
-0.389526	
-0.387878	
-0.387146	
-0.387695	
-0.386719	
-0.386475	
-0.385437	
-0.385925	
-0.387024	
-0.387329	
-0.386719	
-0.387024	
-0.38623	
-0.385132	
-0.384399	
-0.384521	
-0.384399	
-0.384338	
-0.382996	
-0.383728	
-0.383545	
-0.383179	
-0.384216	
-0.384705	
-0.383484	
-0.383728	
-0.383179	
-0.383179	
-0.383972	
-0.383362	
-0.382568	
-0.38385	
-0.384094	
-0.384705	
-0.385193	
-0.38446	
-0.384766	
-0.384827	
-0.385559	
-0.385864	
-0.384766	
-0.383301	
-0.384766	
-0.38501	
-0.385315	
-0.385864	
-0.385071	
-0.384827	
-0.384521	
-0.385254	
-0.384521	
-0.384766	
-0.384949	
-0.384399	
-0.385132	
-0.385498	
-0.386597	
-0.385925	
-0.385986	
-0.385986	
-0.38562	
-0.387085	
-0.385925	
-0.386353	
-0.386169	
-0.387878	
-0.38739	
-0.387817	
-0.388428	
-0.388428	
-0.387939	
-0.386719	
-0.388428	
-0.388428	
-0.387512	
-0.387329	
-0.387634	
-0.388	
-0.387878	
-0.388428	
-0.38739	
-0.387573	
-0.385681	
-0.384949	
-0.385681	
-0.385315	
-0.38501	
-0.384766	
-0.384216	
-0.385132	
-0.38501	
-0.38562	
-0.384155	
-0.38446	
-0.383606	
-0.38501	
-0.384094	
-0.384521	
-0.383362	
-0.383484	
-0.384705	
-0.384338	
-0.385681	
-0.384521	
-0.384827	
-0.384216	
-0.385193	
-0.385132	
-0.384155	
-0.385071	
-0.384827	
-0.385132	
-0.384766	
-0.385742	
-0.386536	
-0.386353	
-0.38739	
-0.386292	
-0.388	
-0.387878	
-0.388733	
-0.388306	
-0.388733	
-0.388916	
-0.389221	
-0.390442	
-0.389099	
-0.390503	
-0.388916	
-0.389099	
-0.389954	
-0.389648	
-0.388672	
-0.390137	
-0.390503	
-0.389832	
-0.390259	
-0.390564	
-0.389832	
-0.389954	
-0.389771	
-0.389709	
-0.388977	
-0.390137	
-0.389954	
-0.388245	
-0.389893	
-0.389587	
-0.390137	
-0.388916	
-0.389771	
-0.389282	
-0.388611	
-0.389587	
-0.388123	
-0.387451	
-0.387695	
-0.387268	
-0.386902	
-0.386963	
-0.387024	
-0.385864	
-0.385376	
-0.38385	
-0.384277	
-0.383545	
-0.383911	
-0.384033	
-0.383606	
-0.383911	
-0.384277	
-0.385376	
-0.384277	
-0.385193	
-0.384644	
-0.384888	
-0.385193	
-0.384827	
-0.385071	
-0.385376	
-0.385925	
-0.386292	
-0.38623	
-0.386353	
-0.386292	
-0.386597	
-0.385803	
-0.38739	
-0.386353	
-0.38562	
-0.386841	
-0.386841	
-0.386963	
-0.387573	
-0.388489	
-0.388245	
-0.388306	
-0.38855	
-0.387573	
-0.388	
-0.388123	
-0.388794	
-0.388306	
-0.388977	
-0.389038	
-0.389709	
-0.389832	
-0.389893	
-0.389954	
-0.388367	
-0.390015	
-0.390381	
-0.390747	
-0.390381	
-0.389709	
-0.391296	
-0.390991	
-0.391907	
-0.390564	
-0.391602	
-0.391174	
-0.390076	
-0.390686	
-0.390137	
-0.390625	
-0.390076	
-0.390625	
-0.39032	
-0.391357	
-0.391418	
-0.391174	
-0.391418	
-0.389038	
-0.390564	
-0.390564	
-0.390503	
-0.390381	
-0.389954	
-0.390686	
-0.390503	
-0.391113	
-0.390198	
-0.391174	
-0.390015	
-0.388916	
-0.390259	
-0.389282	
-0.389587	
-0.389282	
-0.389099	
-0.389221	
-0.389404	
-0.389954	
-0.389343	
-0.390076	
-0.387878	
-0.389099	
-0.388	
-0.389343	
-0.389709	
-0.388367	
-0.390076	
-0.389526	
-0.39093	
-0.390076	
-0.391479	
-0.390564	
-0.390564	
-0.391846	
-0.391541	
-0.392151	
-0.392456	
-0.392944	
-0.392761	
-0.39325	
-0.393555	
-0.393433	
-0.394348	
-0.392334	
-0.393433	
-0.393372	
-0.394043	
-0.394043	
-0.39386	
-0.393494	
-0.393982	
-0.39502	
-0.394775	
-0.394653	
-0.393799	
-0.393188	
-0.393433	
-0.393433	
-0.393311	
-0.393433	
-0.391541	
-0.392456	
-0.393311	
-0.393555	
-0.392151	
-0.393066	
-0.391296	
-0.390259	
-0.390625	
-0.390015	
-0.389954	
-0.389404	
-0.388062	
-0.388062	
-0.388245	
-0.388062	
-0.387573	
-0.387268	
-0.385986	
-0.386719	
-0.385742	
-0.387329	
-0.38678	
-0.386658	
-0.38678	
-0.386475	
-0.387512	
-0.386719	
-0.387878	
-0.386292	
-0.387024	
-0.386292	
-0.387329	
-0.387451	
-0.387451	
-0.386475	
-0.387329	
-0.387939	
-0.388611	
-0.389099	
-0.389038	
-0.387939	
-0.388916	
-0.389221	
-0.389526	
-0.388855	
-0.388977	
-0.389404	
-0.390381	
-0.391541	
-0.391357	
-0.392639	
-0.391052	
-0.390747	
-0.391907	
-0.392639	
-0.392761	
-0.393311	
-0.392761	
-0.393311	
-0.39325	
-0.394775	
-0.394165	
-0.394287	
-0.39386	
-0.394531	
-0.393127	
-0.393494	
-0.394104	
-0.393738	
-0.392822	
-0.393616	
-0.393982	
-0.393616	
-0.394592	
-0.392334	
-0.390991	
-0.39209	
-0.393433	
-0.393005	
-0.392639	
-0.392273	
-0.393372	
-0.393555	
-0.394775	
-0.394348	
-0.393372	
-0.392944	
-0.392151	
-0.39209	
-0.393188	
-0.393005	
-0.393005	
-0.391907	
-0.392822	
-0.392761	
-0.393799	
-0.393921	
-0.392334	
-0.390869	
-0.391541	
-0.392212	
-0.391663	
-0.391663	
-0.391418	
-0.391602	
-0.391907	
-0.392761	
-0.392517	
-0.392212	
-0.391235	
-0.391174	
-0.390808	
-0.391968	
-0.391846	
-0.391418	
-0.391357	
-0.39209	
-0.393066	
-0.394348	
-0.394287	
-0.393677	
-0.393738	
-0.392761	
-0.393921	
-0.394897	
-0.395386	
-0.394958	
-0.394287	
-0.396118	
-0.395813	
-0.396606	
-0.39679	
-0.395081	
-0.394592	
-0.395569	
-0.396912	
-0.395752	
-0.396118	
-0.395935	
-0.396057	
-0.395996	
-0.396851	
-0.396729	
-0.396423	
-0.395996	
-0.395447	
-0.394348	
-0.396606	
-0.395935	
-0.395508	
-0.395447	
-0.394531	
-0.394531	
-0.394653	
-0.394958	
-0.393127	
-0.391296	
-0.392151	
-0.391724	
-0.392273	
-0.391968	
-0.392273	
-0.391724	
-0.392151	
-0.392883	
-0.393311	
-0.392334	
-0.391357	
-0.391724	
-0.391296	
-0.391846	
-0.391785	
-0.391602	
-0.391602	
-0.391479	
-0.391663	
-0.391968	
-0.391907	
-0.392456	
-0.391113	
-0.390442	
-0.391174	
-0.393616	
-0.392822	
-0.392517	
-0.392517	
-0.392761	
-0.393799	
-0.39386	
-0.394287	
-0.393616	
-0.393494	
-0.394043	
-0.394104	
-0.396484	
-0.395508	
-0.395996	
-0.396362	
-0.397095	
-0.398621	
-0.397766	
-0.398926	
-0.397583	
-0.397034	
-0.397522	
-0.398682	
-0.399048	
-0.398926	
-0.398865	
-0.398254	
-0.399048	
-0.399475	
-0.398499	
-0.398804	
-0.397217	
-0.397522	
-0.396851	
-0.398193	
-0.397888	
-0.397583	
-0.397339	
-0.396973	
-0.396851	
	
