E:\DOCUMENTS AND SETTINGS\JPOTAS\MEUS DOCUMENTOS\UFRJ\RSCI-BM 12 WK SERIES\070718-RSCI-BM-03\RSCI-BM-03-LEMG\070718-RSCI-BM-03-LEMG-0003.ACQ
0.025000 msec/sample
1 channel
Analog input
Volts
CH1	
2000	
-0.39093	
-0.391296	
-0.391113	
-0.391602	
-0.391907	
-0.393311	
-0.392639	
-0.392395	
-0.393433	
-0.392761	
-0.393188	
-0.393372	
-0.392029	
-0.393738	
-0.393188	
-0.39386	
-0.393616	
-0.393311	
-0.394531	
-0.39386	
-0.393982	
-0.393555	
-0.393005	
-0.394104	
-0.393921	
-0.394775	
-0.394287	
-0.393311	
-0.394043	
-0.393738	
-0.395264	
-0.394714	
-0.394287	
-0.393982	
-0.393982	
-0.395081	
-0.394531	
-0.393494	
-0.394836	
-0.39447	
-0.394653	
-0.39447	
-0.394165	
-0.395142	
-0.39502	
-0.39502	
-0.394714	
-0.393738	
-0.395142	
-0.395325	
-0.39502	
-0.395325	
-0.394043	
-0.395081	
-0.394897	
-0.395264	
-0.395508	
-0.394897	
-0.393799	
-0.394409	
-0.394958	
-0.394165	
-0.393677	
-0.394592	
-0.393311	
-0.39386	
-0.393799	
-0.3927	
-0.39386	
-0.393188	
-0.393677	
-0.394653	
-0.393799	
-0.395081	
-0.394592	
-0.394104	
-0.395508	
-0.394043	
-0.393616	
-0.394592	
-0.39563	
-0.39563	
-0.394836	
-0.394409	
-0.394653	
-0.394409	
-0.394104	
-0.394226	
-0.394287	
-0.393982	
-0.394409	
-0.394409	
-0.393921	
-0.395081	
-0.393982	
-0.394348	
-0.393738	
-0.393616	
-0.395081	
-0.393433	
-0.39209	
-0.394653	
-0.393555	
-0.393127	
-0.393188	
-0.39447	
-0.394226	
-0.393188	
-0.393127	
-0.393433	
-0.393555	
-0.393555	
-0.394104	
-0.394165	
-0.393494	
-0.394104	
-0.394226	
-0.394165	
-0.394348	
-0.394104	
-0.394531	
-0.395264	
-0.393555	
-0.394714	
-0.393982	
-0.393311	
-0.394592	
-0.39325	
-0.394104	
-0.394043	
-0.394287	
-0.394714	
-0.393738	
-0.393311	
-0.393005	
-0.393188	
-0.393372	
-0.3927	
-0.3927	
-0.391968	
-0.392212	
-0.392151	
-0.391785	
-0.393066	
-0.391724	
-0.391968	
-0.391663	
-0.391357	
-0.392334	
-0.391418	
-0.391663	
-0.392639	
-0.39209	
-0.392273	
-0.392029	
-0.39209	
-0.393494	
-0.392212	
-0.392761	
-0.393311	
-0.392212	
-0.393005	
-0.393616	
-0.393433	
-0.392395	
-0.393127	
-0.392761	
-0.392151	
-0.393738	
-0.392822	
-0.392151	
-0.391907	
-0.391846	
-0.393372	
-0.392151	
-0.3927	
-0.393555	
-0.392761	
-0.393188	
-0.393616	
-0.393921	
-0.394409	
-0.393616	
-0.393982	
-0.394348	
-0.393066	
-0.393982	
-0.393616	
-0.393982	
-0.393188	
-0.393311	
-0.393677	
-0.393005	
-0.394531	
-0.394165	
-0.393555	
-0.393982	
-0.174316	
0.156311	
0.0155029	
-0.0228882	
-0.0292969	
-0.0266113	
-0.433594	
-0.545288	
-0.403564	
-0.359009	
-0.343384	
-0.333374	
-0.329834	
-0.327026	
-0.326233	
-0.324585	
-0.323608	
-0.323181	
-0.323608	
-0.324707	
-0.324219	
-0.323181	
-0.323181	
-0.322144	
-0.322144	
-0.323242	
-0.323792	
-0.324158	
-0.324219	
-0.324036	
-0.324402	
-0.325745	
-0.325195	
-0.325073	
-0.325256	
-0.324768	
-0.324768	
-0.325562	
-0.325745	
-0.325806	
-0.32605	
-0.325684	
-0.326233	
-0.327698	
-0.326294	
-0.326355	
-0.325256	
-0.32605	
-0.326233	
-0.32666	
-0.327576	
-0.328491	
-0.329041	
-0.330444	
-0.33252	
-0.335083	
-0.337585	
-0.3396	
-0.342712	
-0.346375	
-0.34967	
-0.352356	
-0.355286	
-0.356995	
-0.358521	
-0.360779	
-0.36499	
-0.36853	
-0.37207	
-0.375732	
-0.381226	
-0.387207	
-0.393616	
-0.399658	
-0.403992	
-0.407776	
-0.411072	
-0.413025	
-0.415649	
-0.416931	
-0.416931	
-0.417786	
-0.41864	
-0.419495	
-0.421265	
-0.421326	
-0.421509	
-0.421631	
-0.42041	
-0.420593	
-0.420471	
-0.420288	
-0.418701	
-0.417236	
-0.416504	
-0.417664	
-0.418274	
-0.41864	
-0.419983	
-0.42041	
-0.421143	
-0.422485	
-0.424316	
-0.423767	
-0.425232	
-0.42749	
-0.428711	
-0.431152	
-0.433044	
-0.433655	
-0.435181	
-0.435547	
-0.435486	
-0.434509	
-0.434875	
-0.432739	
-0.429871	
-0.429688	
-0.427246	
-0.426025	
-0.424255	
-0.421875	
-0.421753	
-0.418884	
-0.417908	
-0.41571	
-0.414063	
-0.409119	
-0.40625	
-0.403748	
-0.398987	
-0.397644	
-0.393066	
-0.388306	
-0.38446	
-0.380127	
-0.375671	
-0.369873	
-0.364197	
-0.356934	
-0.350647	
-0.344543	
-0.337769	
-0.333069	
-0.327515	
-0.321655	
-0.317078	
-0.31189	
-0.307495	
-0.301392	
-0.29834	
-0.290894	
-0.285828	
-0.28186	
-0.276001	
-0.273315	
-0.268799	
-0.263611	
-0.259094	
-0.255005	
-0.250244	
-0.246094	
-0.242188	
-0.237305	
-0.231506	
-0.226929	
-0.220886	
-0.217041	
-0.212646	
-0.208435	
-0.203552	
-0.200317	
-0.197327	
-0.195068	
-0.192261	
-0.191406	
-0.188538	
-0.189758	
-0.190674	
-0.193604	
-0.196777	
-0.200439	
-0.204956	
-0.210754	
-0.216064	
-0.22168	
-0.229492	
-0.232971	
-0.237732	
-0.244202	
-0.25	
-0.256958	
-0.263672	
-0.267334	
-0.274231	
-0.280518	
-0.285889	
-0.291138	
-0.295715	
-0.298645	
-0.303345	
-0.307007	
-0.311096	
-0.315552	
-0.317993	
-0.321167	
-0.323975	
-0.326599	
-0.328003	
-0.330139	
-0.331787	
-0.332092	
-0.33429	
-0.335632	
-0.338013	
-0.339172	
-0.340027	
-0.342102	
-0.342712	
-0.344727	
-0.346069	
-0.34613	
-0.346436	
-0.347473	
-0.348511	
-0.348755	
-0.349426	
-0.349243	
-0.34967	
-0.349548	
-0.350647	
-0.352051	
-0.35022	
-0.350159	
-0.349243	
-0.348572	
-0.348816	
-0.345886	
-0.346619	
-0.345154	
-0.344055	
-0.342896	
-0.342102	
-0.340637	
-0.338257	
-0.336304	
-0.33136	
-0.331848	
-0.329834	
-0.326599	
-0.324829	
-0.322998	
-0.321289	
-0.318787	
-0.317261	
-0.315369	
-0.311646	
-0.309326	
-0.307922	
-0.305481	
-0.302734	
-0.299255	
-0.297485	
-0.296082	
-0.294067	
-0.291809	
-0.289734	
-0.289246	
-0.285522	
-0.286987	
-0.285339	
-0.284729	
-0.28418	
-0.284363	
-0.285889	
-0.286926	
-0.288696	
-0.289551	
-0.291565	
-0.294067	
-0.295471	
-0.298828	
-0.30011	
-0.30249	
-0.304321	
-0.306396	
-0.30896	
-0.310242	
-0.312256	
-0.313721	
-0.313538	
-0.31543	
-0.317322	
-0.318481	
-0.318298	
-0.319275	
-0.320435	
-0.321472	
-0.322205	
-0.323669	
-0.324707	
-0.325195	
-0.326599	
-0.325928	
-0.327942	
-0.329163	
-0.328308	
-0.329285	
-0.330017	
-0.330933	
-0.330872	
-0.333496	
-0.330994	
-0.331177	
-0.332397	
-0.332031	
-0.33252	
-0.332458	
-0.333191	
-0.333679	
-0.332764	
-0.333984	
-0.335449	
-0.336731	
-0.335693	
-0.336182	
-0.336853	
-0.337585	
-0.337524	
-0.337036	
-0.337402	
-0.337524	
-0.33667	
-0.338501	
-0.338501	
-0.34021	
-0.339111	
-0.339233	
-0.340088	
-0.338806	
-0.340698	
-0.340637	
-0.340088	
-0.339844	
-0.340942	
-0.341675	
-0.341858	
-0.342957	
-0.342224	
-0.34259	
-0.343201	
-0.340942	
-0.343384	
-0.342529	
-0.34198	
-0.342529	
-0.343018	
-0.344116	
-0.344604	
-0.344666	
-0.345154	
-0.344421	
-0.345703	
-0.344238	
-0.346252	
-0.346619	
-0.34552	
-0.345825	
-0.345215	
-0.347229	
-0.347717	
-0.34845	
-0.348755	
-0.348633	
-0.348938	
-0.348572	
-0.348694	
-0.35022	
-0.349792	
-0.349487	
-0.348083	
-0.349304	
-0.349915	
-0.350647	
-0.350525	
-0.349976	
-0.349548	
-0.350159	
-0.350281	
-0.350098	
-0.350525	
-0.350586	
-0.348816	
-0.351563	
-0.351868	
-0.351624	
-0.351685	
-0.352905	
-0.351563	
-0.352051	
-0.352722	
-0.352112	
-0.35199	
-0.351807	
-0.351868	
-0.3526	
-0.3526	
-0.352478	
-0.354309	
-0.352783	
-0.352661	
-0.353516	
-0.353333	
-0.354431	
-0.354065	
-0.353088	
-0.354675	
-0.354736	
-0.355591	
-0.355347	
-0.355835	
-0.355286	
-0.355347	
-0.355469	
-0.355774	
-0.355957	
-0.355957	
-0.355408	
-0.356079	
-0.356995	
-0.356689	
-0.357971	
-0.35675	
-0.356384	
-0.357056	
-0.357422	
-0.357483	
-0.357239	
-0.356262	
-0.357117	
-0.357361	
-0.359009	
-0.357971	
-0.358215	
-0.357483	
-0.357483	
-0.35791	
-0.358276	
-0.356934	
-0.356689	
-0.357727	
-0.357361	
-0.357971	
-0.358337	
-0.358765	
-0.357544	
-0.35791	
-0.358032	
-0.355896	
-0.357422	
-0.357422	
-0.356506	
-0.355896	
-0.357117	
-0.356628	
-0.356628	
-0.357666	
-0.355896	
-0.35553	
-0.355896	
-0.35675	
-0.356201	
-0.356628	
-0.356445	
-0.357117	
-0.3573	
-0.357971	
-0.358582	
-0.359253	
-0.358093	
-0.357849	
-0.358826	
-0.359924	
-0.359314	
-0.359009	
-0.359619	
-0.359741	
-0.360596	
-0.360901	
-0.360901	
-0.362	
-0.361267	
-0.360413	
-0.360718	
-0.361938	
-0.360718	
-0.361755	
-0.360962	
-0.361633	
-0.36145	
-0.361633	
-0.362244	
-0.362915	
-0.361633	
-0.360901	
-0.361938	
-0.362549	
-0.362244	
-0.362305	
-0.362122	
-0.363098	
-0.362549	
-0.36322	
-0.364136	
-0.363953	
-0.363525	
-0.362244	
-0.364075	
-0.364502	
-0.363708	
-0.363708	
-0.36377	
-0.36438	
-0.364075	
-0.364746	
-0.364258	
-0.364258	
-0.364624	
-0.363281	
-0.363892	
-0.364502	
-0.363831	
-0.363403	
-0.364258	
-0.363892	
-0.363586	
-0.36499	
-0.364624	
-0.364136	
-0.363831	
-0.364197	
-0.364624	
-0.365662	
-0.365234	
-0.364685	
-0.364929	
-0.366089	
-0.366333	
-0.367004	
-0.367371	
-0.366394	
-0.365906	
-0.366699	
-0.366211	
-0.365906	
-0.366455	
-0.366394	
-0.365601	
-0.366089	
-0.366455	
-0.367065	
-0.366882	
-0.366516	
-0.365723	
-0.366638	
-0.36731	
-0.36676	
-0.365723	
-0.366943	
-0.366821	
-0.366394	
-0.36792	
-0.366821	
-0.366638	
-0.366638	
-0.365295	
-0.365845	
-0.368042	
-0.367126	
-0.367065	
-0.367676	
-0.367615	
-0.368042	
-0.369751	
-0.36908	
-0.36792	
-0.368103	
-0.368958	
-0.368286	
-0.369385	
-0.368774	
-0.369324	
-0.368469	
-0.368713	
-0.369324	
-0.371155	
-0.369629	
-0.368652	
-0.368591	
-0.36969	
-0.368958	
-0.36969	
-0.368225	
-0.368347	
-0.368774	
-0.368958	
-0.368835	
-0.3703	
-0.369446	
-0.368042	
-0.368042	
-0.367554	
-0.367981	
-0.36792	
-0.367249	
-0.367859	
-0.367432	
-0.368225	
-0.36853	
-0.369568	
-0.368896	
-0.368652	
-0.368591	
-0.368286	
-0.369385	
-0.368958	
-0.367798	
-0.369141	
-0.36908	
-0.369385	
-0.370361	
-0.371521	
-0.370483	
-0.370056	
-0.370056	
-0.369873	
-0.370178	
-0.36969	
-0.370117	
-0.369568	
-0.368774	
-0.369995	
-0.370239	
-0.371033	
-0.3703	
-0.371094	
-0.371155	
-0.370178	
-0.371582	
-0.371216	
-0.371765	
-0.371216	
-0.371521	
-0.372253	
-0.373657	
-0.372986	
-0.371826	
-0.372742	
-0.370483	
-0.372314	
-0.372986	
-0.371582	
-0.372314	
-0.372437	
-0.372131	
-0.372498	
-0.373596	
-0.373352	
-0.372192	
-0.371826	
-0.369995	
-0.371704	
-0.371826	
-0.370117	
-0.371521	
-0.371033	
-0.37207	
-0.371216	
-0.372437	
-0.371338	
-0.371704	
-0.371948	
-0.369751	
-0.371216	
-0.371216	
-0.371704	
-0.371643	
-0.371826	
-0.371948	
-0.372192	
-0.374512	
-0.372192	
-0.371643	
-0.372314	
-0.370911	
-0.371826	
-0.371399	
-0.371338	
-0.372314	
-0.371338	
-0.372009	
-0.372192	
-0.373657	
-0.371521	
-0.371216	
-0.371521	
-0.370789	
-0.371399	
-0.370789	
-0.371033	
-0.370483	
-0.369812	
-0.372253	
-0.372803	
-0.375183	
-0.372681	
-0.37207	
-0.371216	
-0.372437	
-0.372925	
-0.372314	
-0.372498	
-0.372498	
-0.372009	
-0.373047	
-0.373108	
-0.374268	
-0.372681	
-0.37262	
-0.37207	
-0.373047	
-0.373962	
-0.372742	
-0.373413	
-0.373291	
-0.372742	
-0.374084	
-0.374878	
-0.375122	
-0.374268	
-0.374878	
-0.37262	
-0.374084	
-0.37439	
-0.373352	
-0.373535	
-0.373169	
-0.373596	
-0.373718	
-0.375122	
-0.374573	
-0.374451	
-0.374329	
-0.373169	
-0.374634	
-0.375	
-0.373596	
-0.374329	
-0.374512	
-0.374268	
-0.37439	
-0.375427	
-0.375549	
-0.374207	
-0.374512	
-0.373291	
-0.374695	
-0.375	
-0.373352	
-0.374939	
-0.374084	
-0.375183	
-0.374756	
-0.376404	
-0.374878	
-0.375305	
-0.375549	
-0.374329	
-0.375305	
-0.376038	
-0.375061	
-0.375793	
-0.375854	
-0.376038	
-0.376038	
-0.377441	
-0.376587	
-0.375854	
-0.37616	
-0.375427	
-0.375854	
-0.376404	
-0.376648	
-0.376709	
-0.376831	
-0.377869	
-0.378113	
-0.3797	
-0.379456	
-0.379211	
-0.379517	
-0.379395	
-0.379822	
-0.379578	
-0.379028	
-0.378357	
-0.378235	
-0.378052	
-0.378479	
-0.379028	
-0.377991	
-0.377563	
-0.377319	
-0.377258	
-0.377258	
-0.378052	
-0.377075	
-0.378052	
-0.377014	
-0.376892	
-0.377258	
-0.378113	
-0.376587	
-0.376892	
-0.37561	
-0.376282	
-0.377686	
-0.376831	
-0.376892	
-0.377197	
-0.376648	
-0.377136	
-0.377441	
-0.377808	
-0.377319	
-0.377258	
-0.37616	
-0.376648	
-0.377563	
-0.377014	
-0.377747	
-0.377197	
-0.376526	
-0.376831	
-0.37738	
-0.37793	
-0.377319	
-0.377747	
-0.376526	
-0.37561	
-0.376709	
-0.377258	
-0.377258	
-0.377441	
-0.37677	
-0.377808	
-0.379028	
-0.378906	
-0.378296	
-0.378601	
-0.376587	
-0.377014	
-0.378479	
-0.379272	
-0.378967	
-0.379944	
-0.379517	
-0.37915	
-0.380066	
-0.379089	
-0.380005	
-0.379944	
-0.377625	
-0.377991	
-0.378479	
-0.378784	
-0.378357	
-0.378418	
-0.378235	
-0.378479	
-0.380127	
-0.379211	
-0.379028	
-0.378845	
-0.37793	
-0.37793	
-0.37854	
-0.379822	
-0.378906	
-0.379517	
-0.378235	
-0.379639	
-0.381531	
-0.380066	
-0.379883	
-0.379333	
-0.378723	
-0.378235	
-0.378967	
-0.379333	
-0.379578	
-0.3797	
-0.37915	
-0.380676	
-0.38208	
-0.380859	
-0.380859	
-0.380005	
-0.379944	
-0.379456	
-0.38092	
-0.380737	
-0.38031	
-0.379944	
-0.3797	
-0.380676	
-0.381775	
-0.380249	
-0.38092	
-0.380188	
-0.379944	
-0.378723	
-0.380127	
-0.380371	
-0.380554	
-0.380371	
-0.380005	
-0.380676	
-0.381531	
-0.38147	
-0.38092	
-0.379395	
-0.380554	
-0.380371	
-0.381775	
-0.381104	
-0.381897	
-0.381531	
-0.380981	
-0.38269	
-0.382935	
-0.382813	
-0.382813	
-0.381775	
-0.382874	
-0.381897	
-0.383667	
-0.38385	
-0.383484	
-0.383423	
-0.383301	
-0.384277	
-0.384583	
-0.385376	
-0.383545	
-0.382446	
-0.383728	
-0.382507	
-0.383362	
-0.383545	
-0.383118	
-0.383118	
-0.382568	
-0.384155	
-0.383667	
-0.383728	
-0.382874	
-0.382263	
-0.38269	
-0.383057	
-0.383972	
-0.38385	
-0.383728	
-0.384216	
-0.383667	
-0.384705	
-0.384155	
-0.384399	
-0.383362	
-0.382874	
-0.383118	
-0.382324	
-0.383423	
-0.384033	
-0.382996	
-0.382751	
-0.382935	
-0.38324	
-0.383728	
-0.38385	
-0.382446	
-0.382446	
-0.382813	
-0.382385	
-0.383667	
-0.384583	
-0.383789	
-0.384216	
-0.384399	
-0.383728	
-0.385132	
-0.384216	
-0.38324	
-0.384583	
-0.383545	
-0.38385	
-0.38562	
-0.386902	
-0.385681	
-0.385132	
-0.386169	
-0.386597	
-0.387146	
-0.386047	
-0.386047	
-0.385742	
-0.385132	
-0.385254	
-0.38623	
-0.387573	
-0.386719	
-0.386597	
-0.387146	
-0.386841	
-0.388611	
-0.387268	
-0.386902	
-0.387024	
-0.38739	
-0.387085	
-0.387634	
-0.387817	
-0.38739	
-0.387939	
-0.387756	
-0.38739	
-0.389771	
-0.38916	
-0.388489	
-0.38855	
-0.38739	
-0.388245	
-0.388733	
-0.388794	
-0.389648	
-0.388672	
-0.388	
-0.386475	
-0.388611	
-0.388306	
-0.388489	
-0.387268	
-0.386292	
-0.386719	
-0.387329	
-0.388123	
-0.388123	
-0.387695	
-0.387512	
-0.388062	
-0.389343	
-0.387817	
-0.387085	
-0.387329	
-0.386536	
-0.386841	
-0.387634	
-0.387878	
-0.388367	
-0.387329	
-0.387329	
-0.387024	
-0.388123	
-0.387329	
-0.38739	
-0.387695	
-0.386719	
-0.387573	
-0.388184	
-0.388672	
-0.388733	
-0.388367	
-0.388611	
-0.388367	
-0.388611	
-0.388367	
-0.388367	
-0.387634	
-0.38739	
-0.387939	
-0.388611	
-0.388184	
-0.389099	
-0.388916	
-0.388367	
-0.388062	
-0.389465	
-0.389648	
-0.388733	
-0.388184	
-0.388733	
-0.388855	
-0.388733	
-0.388977	
-0.389893	
-0.389526	
-0.389038	
-0.389038	
-0.389465	
-0.388855	
-0.388916	
-0.388672	
-0.388428	
-0.388306	
-0.389221	
-0.388794	
-0.389526	
-0.389648	
-0.388672	
-0.388916	
-0.389099	
-0.389709	
-0.388489	
-0.388977	
-0.388245	
-0.387512	
-0.388367	
-0.388916	
-0.38855	
-0.388123	
-0.387329	
-0.386841	
-0.38678	
-0.386353	
-0.385925	
-0.38562	
-0.385376	
-0.385925	
-0.387207	
-0.386841	
-0.388672	
-0.389099	
-0.388123	
-0.388062	
-0.389282	
-0.389282	
-0.388489	
-0.388245	
-0.387512	
-0.388245	
-0.388855	
-0.389648	
-0.390381	
-0.390198	
-0.389893	
-0.390015	
-0.390747	
-0.39032	
-0.389832	
-0.390259	
-0.389404	
-0.389404	
-0.390442	
-0.390564	
-0.391235	
-0.391602	
-0.390564	
-0.390503	
-0.391296	
-0.390991	
-0.390015	
-0.390015	
-0.389893	
-0.389709	
-0.39093	
-0.391113	
-0.392395	
-0.392029	
-0.391296	
-0.390747	
-0.391296	
-0.391479	
-0.392029	
-0.391418	
-0.391479	
-0.390869	
-0.392029	
-0.391846	
-0.392273	
-0.392578	
-0.391113	
-0.391479	
-0.391357	
-0.391846	
-0.392029	
-0.391663	
-0.390808	
-0.390625	
-0.390747	
-0.39093	
-0.392334	
-0.391052	
-0.391174	
-0.391113	
-0.390259	
-0.39093	
-0.391357	
-0.392029	
-0.391968	
-0.391541	
-0.391663	
-0.392334	
-0.392822	
-0.3927	
-0.391724	
-0.391907	
-0.392212	
-0.393127	
-0.392029	
-0.391541	
-0.391235	
-0.391052	
-0.391846	
-0.391846	
-0.392456	
-0.3927	
-0.391357	
-0.391479	
-0.391846	
-0.3927	
-0.391968	
-0.391724	
-0.391602	
-0.391235	
-0.391174	
-0.391846	
-0.392029	
-0.392029	
-0.391357	
-0.390686	
-0.391357	
-0.392334	
-0.391479	
-0.390869	
-0.390747	
-0.391663	
-0.391907	
-0.391907	
-0.392578	
-0.393127	
-0.392212	
-0.392212	
-0.392456	
-0.393372	
-0.393127	
-0.392151	
-0.39209	
-0.392212	
-0.392517	
-0.392273	
-0.392456	
-0.393433	
-0.391907	
-0.392456	
-0.392883	
-0.39325	
-0.3927	
-0.391968	
-0.391785	
-0.391907	
-0.391846	
-0.391724	
-0.39209	
-0.392639	
-0.390991	
-0.390991	
-0.390564	
-0.391541	
-0.391541	
-0.39032	
-0.38916	
-0.39032	
-0.390503	
-0.390137	
-0.390625	
-0.391479	
-0.390198	
-0.390137	
-0.391174	
-0.390747	
-0.391602	
-0.391479	
-0.390015	
-0.390686	
-0.391785	
-0.392029	
-0.391663	
-0.393066	
-0.392395	
-0.391785	
-0.391418	
-0.391846	
-0.391296	
-0.391052	
-0.390442	
-0.390198	
-0.390686	
-0.390991	
-0.391724	
-0.392578	
-0.392029	
-0.391968	
-0.392029	
-0.393005	
-0.39209	
-0.392273	
-0.391296	
-0.390625	
-0.3927	
-0.392761	
-0.3927	
-0.393799	
-0.393433	
-0.392578	
-0.392517	
-0.39386	
-0.392761	
-0.3927	
-0.392212	
-0.391113	
-0.392456	
-0.392761	
-0.392395	
-0.39325	
-0.392883	
-0.391846	
-0.39209	
-0.393127	
-0.391418	
-0.391235	
-0.390625	
-0.389343	
-0.390686	
-0.391174	
-0.39093	
-0.391296	
-0.391663	
-0.390503	
-0.390259	
-0.391357	
-0.390564	
-0.390991	
-0.390747	
-0.389099	
-0.391052	
-0.391235	
-0.39093	
-0.391785	
-0.39209	
-0.390991	
-0.390564	
-0.39209	
-0.390076	
-0.390442	
-0.390564	
-0.388855	
-0.390991	
-0.390442	
-0.390991	
-0.391479	
-0.390747	
-0.389893	
-0.390015	
-0.390137	
-0.388916	
-0.389465	
-0.389587	
-0.387512	
-0.389465	
-0.390564	
-0.390869	
-0.391907	
-0.391357	
-0.390442	
-0.390625	
-0.390686	
-0.390137	
-0.390625	
-0.390869	
-0.38916	
-0.391052	
-0.390869	
-0.391357	
-0.391418	
-0.390808	
-0.390137	
-0.391113	
-0.390564	
-0.391174	
-0.391235	
-0.391113	
-0.389648	
-0.391724	
-0.391602	
-0.391785	
-0.392212	
-0.391907	
-0.391113	
-0.390991	
-0.391235	
-0.391113	
-0.390869	
-0.390625	
-0.389648	
-0.390747	
-0.390442	
-0.390808	
-0.391846	
-0.391174	
-0.39093	
-0.391235	
-0.391357	
-0.391602	
-0.391357	
-0.391174	
-0.389893	
-0.391235	
-0.39093	
-0.391113	
-0.391785	
-0.391296	
-0.39093	
-0.391052	
-0.390259	
-0.390686	
-0.390991	
-0.390869	
-0.389343	
-0.389832	
-0.391113	
-0.391663	
-0.391479	
-0.391968	
-0.391663	
-0.391479	
-0.391174	
-0.392029	
-0.391418	
-0.391479	
-0.391052	
-0.390625	
-0.391724	
-0.391602	
-0.391907	
-0.392456	
-0.392212	
-0.392151	
-0.392334	
-0.393188	
-0.392395	
-0.392273	
-0.392273	
-0.392761	
-0.393921	
-0.393738	
-0.394775	
-0.395691	
-0.395691	
-0.394531	
-0.395447	
-0.396362	
-0.394531	
-0.39386	
-0.392639	
-0.3927	
-0.393127	
-0.393311	
-0.392822	
-0.393188	
-0.393372	
-0.392578	
-0.392334	
-0.392456	
-0.392883	
-0.392273	
-0.391663	
-0.390625	
-0.391663	
-0.391724	
-0.391602	
-0.392212	
-0.392395	
-0.392029	
-0.391602	
-0.390991	
-0.391113	
-0.391235	
-0.390991	
-0.390015	
-0.390991	
-0.391174	
-0.391479	
-0.391907	
-0.392334	
-0.391602	
-0.391418	
-0.391602	
-0.391479	
-0.39093	
-0.390137	
-0.390076	
-0.390198	
-0.390869	
-0.390381	
-0.391174	
-0.392334	
-0.390991	
-0.390198	
-0.39093	
-0.391785	
-0.390503	
-0.39032	
-0.390564	
-0.391174	
-0.392456	
-0.391418	
-0.391479	
-0.392822	
-0.392273	
-0.391785	
-0.392883	
-0.393372	
-0.3927	
-0.392273	
-0.391846	
-0.390808	
-0.392578	
-0.392456	
-0.392517	
-0.392883	
-0.392517	
-0.391357	
-0.391724	
-0.392212	
-0.390747	
-0.390564	
-0.391052	
-0.390564	
-0.391479	
-0.391968	
-0.391174	
-0.392212	
-0.391785	
-0.391785	
-0.392151	
-0.391602	
-0.390808	
-0.391479	
-0.39093	
-0.389709	
-0.391174	
-0.391357	
-0.391541	
-0.391663	
-0.391357	
-0.391846	
-0.391968	
-0.390991	
-0.391357	
-0.391479	
-0.390442	
-0.390503	
-0.392151	
-0.391663	
-0.39209	
-0.391968	
-0.392395	
-0.392578	
-0.392029	
-0.391296	
-0.391663	
-0.39093	
-0.389648	
-0.389893	
-0.390442	
-0.390625	
-0.390991	
-0.391296	
-0.391968	
-0.391357	
-0.390808	
-0.390625	
-0.391541	
-0.391235	
-0.389832	
-0.390808	
-0.390137	
-0.390808	
-0.390808	
-0.391418	
-0.391785	
-0.392456	
-0.392029	
-0.392029	
-0.392761	
-0.391724	
-0.391724	
-0.391907	
-0.390686	
-0.392334	
-0.393188	
-0.392944	
-0.393555	
-0.394409	
-0.39325	
-0.393433	
-0.393188	
-0.393066	
-0.392944	
-0.393372	
-0.391479	
-0.392944	
-0.392883	
-0.392822	
-0.392822	
-0.393127	
-0.392761	
-0.392822	
-0.391663	
-0.391846	
-0.391541	
-0.390991	
-0.390503	
-0.392456	
-0.392334	
-0.392456	
-0.3927	
-0.393127	
-0.392456	
-0.393066	
-0.392639	
-0.392456	
-0.392761	
-0.391541	
-0.391785	
-0.391418	
-0.391602	
-0.391785	
-0.391663	
-0.392639	
-0.391785	
-0.392029	
-0.391052	
-0.392273	
-0.391418	
-0.389709	
-0.390747	
-0.390991	
-0.391479	
-0.391296	
-0.391541	
-0.3927	
-0.391724	
-0.391968	
-0.39209	
-0.391663	
-0.391846	
-0.391418	
-0.391968	
-0.391235	
-0.392334	
-0.392578	
-0.392822	
-0.393188	
-0.393372	
-0.393127	
-0.393433	
-0.39325	
-0.393616	
-0.393311	
-0.393433	
-0.391907	
-0.393494	
-0.393677	
-0.393005	
-0.39325	
-0.394653	
-0.393799	
-0.394409	
-0.393921	
-0.394348	
-0.393372	
-0.393616	
-0.392822	
-0.39386	
-0.394714	
-0.39447	
-0.394165	
-0.395386	
-0.39447	
-0.395081	
-0.394165	
-0.394043	
-0.394592	
-0.394653	
-0.394653	
-0.39447	
-0.395203	
-0.39563	
-0.39502	
-0.395874	
-0.395203	
-0.394775	
-0.393921	
-0.393127	
-0.393616	
-0.392944	
-0.393555	
-0.392456	
-0.394165	
-0.393677	
-0.393555	
-0.393555	
-0.394897	
-0.393677	
-0.393555	
-0.394226	
-0.394104	
-0.393494	
-0.393433	
-0.393066	
-0.393066	
-0.393372	
-0.393188	
-0.393066	
-0.394165	
-0.392944	
-0.393677	
-0.393188	
-0.392395	
-0.393188	
-0.393005	
-0.3927	
-0.393005	
-0.393372	
-0.39325	
-0.393433	
-0.393555	
-0.393799	
-0.394775	
-0.393616	
-0.392456	
-0.39325	
-0.392944	
-0.392029	
-0.391846	
-0.393066	
-0.392944	
-0.393005	
-0.393677	
-0.393921	
-0.393982	
-0.393311	
-0.392822	
-0.393616	
-0.392151	
-0.392212	
-0.392639	
-0.393372	
-0.393616	
-0.393127	
-0.394104	
-0.394775	
-0.393616	
-0.393921	
-0.393494	
-0.392273	
-0.3927	
-0.392822	
-0.392578	
-0.392944	
-0.392822	
-0.3927	
-0.392456	
-0.394104	
-0.393005	
-0.393738	
-0.39386	
-0.392944	
-0.392395	
-0.392456	
-0.392517	
-0.392151	
-0.391968	
-0.391968	
-0.391541	
-0.391602	
-0.391663	
-0.391357	
-0.39032	
-0.389404	
-0.389526	
-0.389404	
	
