E:\DOCUMENTS AND SETTINGS\JPOTAS\MEUS DOCUMENTOS\UFRJ\RSCI-BM 12 WK SERIES\070718-RSCI-BM-03\RSCI-BM-03-LEMG\070718-RSCI-BM-03-LEMG-0015.ACQ
0.025000 msec/sample
1 channel
Analog input
Volts
CH1	
2000	
-0.393738	
-0.393494	
-0.394409	
-0.393738	
-0.393616	
-0.392944	
-0.39325	
-0.393311	
-0.393127	
-0.392822	
-0.392212	
-0.393555	
-0.393127	
-0.393494	
-0.393616	
-0.393555	
-0.393005	
-0.3927	
-0.392761	
-0.392822	
-0.392761	
-0.392456	
-0.391907	
-0.393372	
-0.393311	
-0.39325	
-0.392944	
-0.393799	
-0.392944	
-0.392151	
-0.392151	
-0.392273	
-0.392151	
-0.392029	
-0.391724	
-0.392517	
-0.393127	
-0.392761	
-0.392517	
-0.393005	
-0.392517	
-0.391541	
-0.392456	
-0.391968	
-0.392639	
-0.392944	
-0.392883	
-0.393433	
-0.392883	
-0.393066	
-0.3927	
-0.393311	
-0.392517	
-0.391968	
-0.392822	
-0.392822	
-0.392517	
-0.392273	
-0.391541	
-0.392517	
-0.392212	
-0.392517	
-0.392517	
-0.391113	
-0.391907	
-0.391296	
-0.39209	
-0.391785	
-0.392517	
-0.392273	
-0.391846	
-0.392273	
-0.392334	
-0.392639	
-0.392517	
-0.391418	
-0.392761	
-0.391663	
-0.393127	
-0.393066	
-0.393188	
-0.392578	
-0.391602	
-0.392944	
-0.39325	
-0.393433	
-0.392822	
-0.392212	
-0.392944	
-0.392212	
-0.393555	
-0.392578	
-0.392944	
-0.393188	
-0.391968	
-0.3927	
-0.392639	
-0.393372	
-0.392822	
-0.391846	
-0.392578	
-0.391846	
-0.393433	
-0.392761	
-0.392944	
-0.392761	
-0.392395	
-0.392639	
-0.392883	
-0.393555	
-0.393372	
-0.391663	
-0.3927	
-0.392517	
-0.39386	
-0.392944	
-0.392517	
-0.392212	
-0.392639	
-0.393066	
-0.393005	
-0.39325	
-0.392883	
-0.392883	
-0.392761	
-0.393188	
-0.394104	
-0.393127	
-0.393433	
-0.393494	
-0.393616	
-0.393372	
-0.394104	
-0.39447	
-0.394531	
-0.394287	
-0.394165	
-0.39386	
-0.395081	
-0.39447	
-0.394958	
-0.394836	
-0.394836	
-0.394592	
-0.395203	
-0.395691	
-0.395752	
-0.395447	
-0.395508	
-0.394714	
-0.396606	
-0.395691	
-0.395813	
-0.396057	
-0.396423	
-0.396118	
-0.397095	
-0.396912	
-0.396301	
-0.396484	
-0.396362	
-0.394714	
-0.396423	
-0.395264	
-0.394897	
-0.394592	
-0.394104	
-0.393372	
-0.394348	
-0.394409	
-0.394104	
-0.393616	
-0.393372	
-0.392273	
-0.394043	
-0.393494	
-0.393677	
-0.393066	
-0.393005	
-0.392822	
-0.393738	
-0.394104	
-0.394043	
-0.393982	
-0.394531	
-0.39386	
-0.395081	
-0.394653	
-0.394287	
-0.39447	
-0.394775	
-0.394775	
-0.394897	
-0.395386	
-0.395386	
-0.394714	
-0.394897	
-0.201782	
0.0339966	
-0.0546875	
-0.0776367	
-0.0804443	
-0.0737305	
-0.41095	
-0.477295	
-0.383667	
-0.352722	
-0.34021	
-0.334778	
-0.332703	
-0.330322	
-0.329773	
-0.329163	
-0.32959	
-0.329895	
-0.32959	
-0.329956	
-0.329834	
-0.329224	
-0.327881	
-0.328796	
-0.329041	
-0.330505	
-0.330933	
-0.331116	
-0.330933	
-0.331055	
-0.332275	
-0.331543	
-0.331543	
-0.33075	
-0.33075	
-0.330627	
-0.331482	
-0.331055	
-0.331299	
-0.331909	
-0.332336	
-0.332214	
-0.332703	
-0.331787	
-0.331665	
-0.330322	
-0.329834	
-0.330322	
-0.331604	
-0.332397	
-0.333374	
-0.334106	
-0.334534	
-0.337585	
-0.33905	
-0.339478	
-0.342773	
-0.34613	
-0.350098	
-0.354614	
-0.359009	
-0.362976	
-0.366455	
-0.370361	
-0.375	
-0.379333	
-0.384521	
-0.388977	
-0.39447	
-0.403259	
-0.411865	
-0.420349	
-0.429199	
-0.437012	
-0.444763	
-0.450867	
-0.456238	
-0.461182	
-0.464539	
-0.467407	
-0.471497	
-0.475342	
-0.478271	
-0.480774	
-0.482971	
-0.485474	
-0.486877	
-0.487305	
-0.489197	
-0.48877	
-0.487671	
-0.48877	
-0.488159	
-0.488708	
-0.488525	
-0.489197	
-0.489319	
-0.490662	
-0.491577	
-0.490417	
-0.491516	
-0.491272	
-0.492737	
-0.49231	
-0.494873	
-0.496704	
-0.49823	
-0.498718	
-0.499573	
-0.500793	
-0.500061	
-0.499207	
-0.497437	
-0.494263	
-0.493164	
-0.490479	
-0.487671	
-0.483948	
-0.480408	
-0.47699	
-0.473145	
-0.470459	
-0.465454	
-0.461609	
-0.455688	
-0.451782	
-0.448242	
-0.443054	
-0.439941	
-0.434937	
-0.431091	
-0.425781	
-0.420593	
-0.416382	
-0.409729	
-0.404907	
-0.397522	
-0.393127	
-0.387268	
-0.382507	
-0.377136	
-0.371094	
-0.365906	
-0.360352	
-0.355347	
-0.348145	
-0.343018	
-0.336548	
-0.328918	
-0.323669	
-0.317383	
-0.312866	
-0.306335	
-0.300537	
-0.294617	
-0.288818	
-0.283508	
-0.275391	
-0.269165	
-0.262329	
-0.254272	
-0.249756	
-0.243225	
-0.238403	
-0.232849	
-0.228149	
-0.224121	
-0.219238	
-0.216553	
-0.21106	
-0.209595	
-0.2052	
-0.203064	
-0.202332	
-0.202332	
-0.204102	
-0.204285	
-0.206421	
-0.208313	
-0.212341	
-0.214966	
-0.218262	
-0.223022	
-0.22699	
-0.234192	
-0.238831	
-0.246582	
-0.252747	
-0.259521	
-0.266357	
-0.273376	
-0.28009	
-0.28595	
-0.291504	
-0.295593	
-0.302856	
-0.306519	
-0.311707	
-0.315735	
-0.320618	
-0.233765	
0.103943	
0.00860596	
-0.0179443	
-0.0236206	
-0.0221558	
-0.274109	
-0.427063	
-0.332581	
-0.302063	
-0.291504	
-0.28772	
-0.284363	
-0.284241	
-0.28479	
-0.284973	
-0.287231	
-0.288513	
-0.287659	
-0.289063	
-0.288757	
-0.290771	
-0.29126	
-0.292236	
-0.293152	
-0.294006	
-0.294678	
-0.295715	
-0.295105	
-0.295105	
-0.294861	
-0.293945	
-0.2948	
-0.293579	
-0.292908	
-0.291992	
-0.291626	
-0.290649	
-0.289978	
-0.288208	
-0.285889	
-0.283752	
-0.282654	
-0.279236	
-0.278137	
-0.275635	
-0.273987	
-0.272156	
-0.270691	
-0.268677	
-0.267212	
-0.265076	
-0.264893	
-0.265198	
-0.265381	
-0.265808	
-0.267334	
-0.269348	
-0.270996	
-0.272888	
-0.273865	
-0.275757	
-0.277405	
-0.279053	
-0.280762	
-0.282349	
-0.284851	
-0.288513	
-0.292603	
-0.297485	
-0.302856	
-0.3078	
-0.315674	
-0.321716	
-0.33075	
-0.338501	
-0.345703	
-0.353088	
-0.361572	
-0.364624	
-0.370178	
-0.373962	
-0.377869	
-0.381042	
-0.382874	
-0.385742	
-0.388245	
-0.390625	
-0.392212	
-0.394043	
-0.39502	
-0.396912	
-0.396362	
-0.39917	
-0.401123	
-0.401367	
-0.402893	
-0.404419	
-0.406067	
-0.408569	
-0.411133	
-0.411682	
-0.415161	
-0.415222	
-0.417542	
-0.418518	
-0.417542	
-0.418518	
-0.41748	
-0.416382	
-0.414124	
-0.413513	
-0.408875	
-0.408264	
-0.406799	
-0.403381	
-0.4021	
-0.398926	
-0.396545	
-0.393311	
-0.388977	
-0.385681	
-0.38208	
-0.378113	
-0.372986	
-0.367676	
-0.361755	
-0.357605	
-0.352356	
-0.34491	
-0.340149	
-0.334473	
-0.328613	
-0.322449	
-0.315063	
-0.308716	
-0.30188	
-0.294617	
-0.2854	
-0.27887	
-0.269592	
-0.260742	
-0.251709	
-0.243164	
-0.23407	
-0.22522	
-0.217407	
-0.209839	
-0.202881	
-0.195374	
-0.188232	
-0.183044	
-0.176575	
-0.171082	
-0.166992	
-0.16333	
-0.160095	
-0.15686	
-0.154846	
-0.153381	
-0.151611	
-0.149963	
-0.149841	
-0.149963	
-0.150879	
-0.152466	
-0.154236	
-0.157043	
-0.159851	
-0.16217	
-0.165771	
-0.169067	
-0.173706	
-0.177673	
-0.181885	
-0.186096	
-0.190918	
-0.195679	
-0.199463	
-0.203674	
-0.209106	
-0.212708	
-0.216125	
-0.220276	
-0.223999	
-0.227844	
-0.2323	
-0.234192	
-0.239746	
-0.242859	
-0.245117	
-0.250061	
-0.252991	
-0.255615	
-0.258545	
-0.261414	
-0.264526	
-0.267578	
-0.26947	
-0.273132	
-0.275452	
-0.27887	
-0.281311	
-0.283813	
-0.286255	
-0.287048	
-0.288147	
-0.290833	
-0.292053	
-0.29303	
-0.295044	
-0.295471	
-0.297058	
-0.298523	
-0.299561	
-0.298401	
-0.299377	
-0.299683	
-0.299194	
-0.299805	
-0.299011	
-0.299744	
-0.299011	
-0.299377	
-0.299927	
-0.299805	
-0.299377	
-0.299255	
-0.298828	
-0.298584	
-0.298828	
-0.298828	
-0.298462	
-0.299622	
-0.2995	
-0.299255	
-0.299622	
-0.30011	
-0.299438	
-0.300049	
-0.299377	
-0.299988	
-0.300659	
-0.300354	
-0.300842	
-0.301697	
-0.301758	
-0.302124	
-0.303162	
-0.303406	
-0.302917	
-0.303284	
-0.303772	
-0.303528	
-0.304321	
-0.303955	
-0.30426	
-0.305237	
-0.304932	
-0.304993	
-0.306091	
-0.304932	
-0.305115	
-0.30542	
-0.304199	
-0.306213	
-0.305969	
-0.306702	
-0.307007	
-0.306641	
-0.306824	
-0.307861	
-0.306946	
-0.306885	
-0.308044	
-0.306335	
-0.307861	
-0.307983	
-0.307861	
-0.308899	
-0.308899	
-0.30957	
-0.31012	
-0.309998	
-0.309692	
-0.309753	
-0.308411	
-0.310364	
-0.310852	
-0.310669	
-0.312683	
-0.312195	
-0.312378	
-0.313538	
-0.3125	
-0.312988	
-0.313843	
-0.311279	
-0.313843	
-0.31427	
-0.313599	
-0.314636	
-0.314819	
-0.315125	
-0.316345	
-0.315125	
-0.315491	
-0.315979	
-0.315308	
-0.316528	
-0.316711	
-0.316101	
-0.317627	
-0.318054	
-0.317627	
-0.318848	
-0.318054	
-0.31842	
-0.319214	
-0.318665	
-0.319641	
-0.319763	
-0.319214	
-0.320129	
-0.321106	
-0.320374	
-0.32074	
-0.321594	
-0.320618	
-0.321167	
-0.320251	
-0.321106	
-0.321594	
-0.321289	
-0.321594	
-0.322388	
-0.322632	
-0.322754	
-0.323181	
-0.322327	
-0.323364	
-0.322205	
-0.323242	
-0.323364	
-0.323486	
-0.324036	
-0.32428	
-0.324585	
-0.324829	
-0.32666	
-0.324158	
-0.325562	
-0.325134	
-0.32605	
-0.32605	
-0.325806	
-0.326233	
-0.32666	
-0.327759	
-0.327026	
-0.329163	
-0.327637	
-0.327209	
-0.327271	
-0.326843	
-0.327698	
-0.327881	
-0.327087	
-0.328186	
-0.328735	
-0.328613	
-0.330017	
-0.32959	
-0.328125	
-0.328674	
-0.328796	
-0.329529	
-0.32959	
-0.328857	
-0.329956	
-0.329895	
-0.33136	
-0.331482	
-0.330383	
-0.330322	
-0.33075	
-0.329895	
-0.330505	
-0.330933	
-0.330566	
-0.33136	
-0.331848	
-0.332214	
-0.333252	
-0.332764	
-0.332458	
-0.332703	
-0.332642	
-0.332031	
-0.333435	
-0.333313	
-0.334045	
-0.334656	
-0.335388	
-0.335632	
-0.335327	
-0.335327	
-0.334839	
-0.335449	
-0.335022	
-0.336243	
-0.336243	
-0.336365	
-0.336731	
-0.33728	
-0.338318	
-0.337585	
-0.337952	
-0.337036	
-0.338318	
-0.337769	
-0.338501	
-0.338806	
-0.338989	
-0.339661	
-0.339844	
-0.34137	
-0.340332	
-0.34021	
-0.338318	
-0.340454	
-0.339294	
-0.339294	
-0.338867	
-0.338379	
-0.338928	
-0.338562	
-0.339905	
-0.338928	
-0.339661	
-0.337585	
-0.338501	
-0.338501	
-0.339172	
-0.338867	
-0.338501	
-0.339355	
-0.339539	
-0.340454	
-0.339722	
-0.340698	
-0.339233	
-0.340393	
-0.34021	
-0.340576	
-0.340881	
-0.341309	
-0.341248	
-0.341736	
-0.343445	
-0.342407	
-0.341919	
-0.342102	
-0.342529	
-0.342529	
-0.34259	
-0.343079	
-0.342529	
-0.343506	
-0.343079	
-0.344849	
-0.344604	
-0.343872	
-0.343933	
-0.344177	
-0.345154	
-0.343933	
-0.345032	
-0.344604	
-0.345337	
-0.345276	
-0.34613	
-0.346558	
-0.346741	
-0.346924	
-0.345032	
-0.345947	
-0.346619	
-0.348389	
-0.348145	
-0.346741	
-0.347778	
-0.347961	
-0.349548	
-0.348877	
-0.348694	
-0.347229	
-0.347351	
-0.347717	
-0.347351	
-0.347229	
-0.34668	
-0.346619	
-0.347534	
-0.348633	
-0.347351	
-0.346863	
-0.346252	
-0.346741	
-0.347534	
-0.345886	
-0.347656	
-0.348022	
-0.347839	
-0.347839	
-0.34845	
-0.348572	
-0.348633	
-0.348389	
-0.34668	
-0.347961	
-0.348511	
-0.348694	
-0.349243	
-0.348145	
-0.349121	
-0.349609	
-0.349731	
-0.350464	
-0.35083	
-0.347717	
-0.349609	
-0.350891	
-0.349976	
-0.349792	
-0.349854	
-0.350098	
-0.350891	
-0.351501	
-0.350586	
-0.35083	
-0.348633	
-0.349915	
-0.350342	
-0.349915	
-0.349976	
-0.349609	
-0.350037	
-0.35022	
-0.351318	
-0.350769	
-0.350952	
-0.349487	
-0.350891	
-0.35022	
-0.349426	
-0.350769	
-0.350891	
-0.350891	
-0.351257	
-0.352966	
-0.35199	
-0.352112	
-0.351624	
-0.352112	
-0.351196	
-0.351501	
-0.352661	
-0.352783	
-0.35199	
-0.35321	
-0.353943	
-0.353149	
-0.353821	
-0.353943	
-0.352783	
-0.352966	
-0.35376	
-0.353516	
-0.353088	
-0.352661	
-0.353149	
-0.353638	
-0.353333	
-0.353638	
-0.353149	
-0.351624	
-0.352722	
-0.352783	
-0.352234	
-0.352661	
-0.352844	
-0.352905	
-0.353699	
-0.354187	
-0.353882	
-0.353271	
-0.352417	
-0.35376	
-0.353333	
-0.352661	
-0.353455	
-0.353943	
-0.353699	
-0.354492	
-0.355347	
-0.35437	
-0.354065	
-0.35437	
-0.353699	
-0.353394	
-0.354736	
-0.354431	
-0.354675	
-0.353821	
-0.355652	
-0.355896	
-0.355103	
-0.356323	
-0.355835	
-0.35437	
-0.355103	
-0.356018	
-0.355347	
-0.356018	
-0.355957	
-0.356262	
-0.357178	
-0.357605	
-0.357239	
-0.356628	
-0.355286	
-0.356689	
-0.357483	
-0.356384	
-0.357239	
-0.357117	
-0.357605	
-0.357849	
-0.359009	
-0.357727	
-0.357056	
-0.357544	
-0.357788	
-0.358276	
-0.357544	
-0.357971	
-0.35791	
-0.357727	
-0.358398	
-0.360107	
-0.359375	
-0.358765	
-0.359192	
-0.35907	
-0.358643	
-0.359558	
-0.358398	
-0.358887	
-0.357605	
-0.359741	
-0.361145	
-0.360046	
-0.360779	
-0.35968	
-0.359497	
-0.359314	
-0.359985	
-0.359619	
-0.360229	
-0.359314	
-0.360291	
-0.360229	
-0.360046	
-0.360901	
-0.359802	
-0.35907	
-0.360107	
-0.360962	
-0.359802	
-0.359924	
-0.359924	
-0.360291	
-0.360229	
-0.361511	
-0.360474	
-0.359802	
-0.359375	
-0.360474	
-0.360413	
-0.360474	
-0.360168	
-0.360229	
-0.359436	
-0.360168	
-0.362122	
-0.360718	
-0.360657	
-0.360474	
-0.361084	
-0.360168	
-0.362183	
-0.360413	
-0.361267	
-0.360779	
-0.361755	
-0.362061	
-0.36145	
-0.362244	
-0.361389	
-0.361755	
-0.361267	
-0.362793	
-0.361877	
-0.362183	
-0.361694	
-0.362366	
-0.362671	
-0.362427	
-0.36322	
-0.362488	
-0.360901	
-0.362122	
-0.362854	
-0.362183	
-0.36261	
-0.362366	
-0.361206	
-0.362732	
-0.364197	
-0.363037	
-0.362305	
-0.362	
-0.362122	
-0.362	
-0.362488	
-0.361938	
-0.362183	
-0.361511	
-0.362122	
-0.362793	
-0.362183	
-0.362122	
-0.361084	
-0.361694	
-0.360901	
-0.362793	
-0.361694	
-0.361145	
-0.36145	
-0.361267	
-0.362122	
-0.361816	
-0.362122	
-0.361633	
-0.360229	
-0.361084	
-0.361633	
-0.361145	
-0.361511	
-0.361389	
-0.36145	
-0.361938	
-0.363586	
-0.362915	
-0.36261	
-0.362305	
-0.363403	
-0.363525	
-0.363647	
-0.36261	
-0.364014	
-0.362915	
-0.364136	
-0.365112	
-0.36499	
-0.364319	
-0.364441	
-0.364746	
-0.365051	
-0.365479	
-0.364685	
-0.365784	
-0.364868	
-0.365234	
-0.365479	
-0.366455	
-0.365173	
-0.364807	
-0.364258	
-0.363708	
-0.365601	
-0.364563	
-0.364441	
-0.364685	
-0.365051	
-0.364746	
-0.366028	
-0.36499	
-0.364502	
-0.364807	
-0.364136	
-0.365356	
-0.364868	
-0.36438	
-0.365051	
-0.364014	
-0.364685	
-0.364929	
-0.365662	
-0.364136	
-0.364319	
-0.362915	
-0.364197	
-0.364624	
-0.363647	
-0.364136	
-0.363403	
-0.364502	
-0.364685	
-0.365662	
-0.364258	
-0.364197	
-0.363953	
-0.364624	
-0.364563	
-0.36377	
-0.364502	
-0.363892	
-0.364441	
-0.364929	
-0.36615	
-0.364868	
-0.365234	
-0.364563	
-0.364563	
-0.365906	
-0.366028	
-0.365356	
-0.36554	
-0.366089	
-0.366516	
-0.367188	
-0.365723	
-0.36554	
-0.365723	
-0.364441	
-0.366638	
-0.366272	
-0.36499	
-0.366211	
-0.364563	
-0.36615	
-0.367126	
-0.367432	
-0.365662	
-0.365906	
-0.366333	
-0.366882	
-0.367371	
-0.366577	
-0.366211	
-0.36615	
-0.366699	
-0.367004	
-0.367432	
-0.366394	
-0.366638	
-0.36615	
-0.366577	
-0.367126	
-0.366943	
-0.366943	
-0.367188	
-0.367615	
-0.368042	
-0.36908	
-0.368469	
-0.368225	
-0.36792	
-0.367065	
-0.368774	
-0.368896	
-0.368164	
-0.368774	
-0.368225	
-0.369202	
-0.369385	
-0.370605	
-0.368774	
-0.368713	
-0.368286	
-0.36908	
-0.369446	
-0.369446	
-0.369324	
-0.368347	
-0.369507	
-0.369751	
-0.371033	
-0.368713	
-0.369263	
-0.36853	
-0.369263	
-0.369812	
-0.369141	
-0.369019	
-0.369446	
-0.368652	
-0.369629	
-0.371155	
-0.369873	
-0.370178	
-0.3703	
-0.369995	
-0.371216	
-0.372192	
-0.370117	
-0.372131	
-0.371948	
-0.371826	
-0.37262	
-0.372681	
-0.372192	
-0.372314	
-0.369873	
-0.372131	
-0.372986	
-0.371765	
-0.371765	
-0.371704	
-0.372131	
-0.372131	
-0.374146	
-0.371887	
-0.372009	
-0.372009	
-0.37207	
-0.372925	
-0.372681	
-0.372437	
-0.372314	
-0.371399	
-0.372803	
-0.373657	
-0.372314	
-0.371948	
-0.371826	
-0.371765	
-0.372314	
-0.373535	
-0.371521	
-0.372437	
-0.372253	
-0.37323	
-0.373657	
-0.373169	
-0.372437	
-0.372498	
-0.370789	
-0.372559	
-0.372864	
-0.372559	
-0.373291	
-0.372864	
-0.372681	
-0.373169	
-0.374939	
-0.372742	
-0.372437	
-0.371826	
-0.372742	
-0.373413	
-0.373047	
-0.373779	
-0.372986	
-0.371826	
-0.373169	
-0.374634	
-0.373108	
-0.373169	
-0.373596	
-0.373047	
-0.374268	
-0.375122	
-0.373535	
-0.374207	
-0.373535	
-0.373718	
-0.374878	
-0.374878	
-0.374023	
-0.37384	
-0.372131	
-0.373901	
-0.37439	
-0.373535	
-0.374023	
-0.373352	
-0.37384	
-0.374329	
-0.376282	
-0.373901	
-0.373962	
-0.374329	
-0.374146	
-0.373901	
-0.37439	
-0.374268	
-0.374695	
-0.372803	
-0.374451	
-0.375854	
-0.374878	
-0.375	
-0.374573	
-0.373657	
-0.375183	
-0.375854	
-0.374512	
-0.375427	
-0.375122	
-0.375183	
-0.376038	
-0.376831	
-0.375916	
-0.376038	
-0.374817	
-0.375793	
-0.376526	
-0.375549	
-0.375732	
-0.375366	
-0.375854	
-0.376526	
-0.377563	
-0.375977	
-0.376038	
-0.375549	
-0.375732	
-0.376404	
-0.375977	
-0.375977	
-0.376099	
-0.375549	
-0.376465	
-0.377686	
-0.376465	
-0.37616	
-0.376526	
-0.375488	
-0.376953	
-0.377014	
-0.37561	
-0.376221	
-0.376099	
-0.376648	
-0.377258	
-0.378052	
-0.376892	
-0.377319	
-0.376038	
-0.377502	
-0.378174	
-0.377441	
-0.377625	
-0.378723	
-0.378357	
-0.378235	
-0.378967	
-0.378967	
-0.378296	
-0.377502	
-0.378052	
-0.379456	
-0.379944	
-0.379761	
-0.379578	
-0.379211	
-0.38031	
-0.381714	
-0.380981	
-0.380615	
-0.380188	
-0.380188	
-0.380615	
-0.381348	
-0.380188	
-0.381042	
-0.381287	
-0.382263	
-0.383118	
-0.383423	
-0.382019	
-0.381775	
-0.381836	
-0.38208	
-0.382446	
-0.38092	
-0.38147	
-0.380493	
-0.379639	
-0.380798	
-0.381775	
-0.380127	
-0.379883	
-0.380127	
-0.3797	
-0.379822	
-0.380005	
-0.380066	
-0.379822	
-0.379639	
-0.380127	
-0.380676	
-0.38031	
-0.379822	
-0.37915	
-0.37915	
-0.380737	
-0.381653	
-0.380249	
-0.381348	
-0.381348	
-0.381348	
-0.382568	
-0.383118	
-0.381653	
-0.381348	
-0.382568	
-0.382019	
-0.382324	
-0.383057	
-0.38208	
-0.382141	
-0.382141	
-0.383545	
-0.383545	
-0.382507	
-0.383118	
-0.38324	
-0.383484	
-0.383362	
-0.38385	
-0.382629	
-0.384277	
-0.383667	
-0.384521	
-0.385559	
-0.385315	
-0.384644	
-0.385132	
-0.386353	
-0.385864	
-0.385559	
-0.385742	
-0.385986	
-0.385498	
-0.385315	
-0.386536	
-0.386963	
-0.386353	
-0.384521	
-0.384644	
-0.384705	
-0.385437	
-0.38501	
-0.38501	
-0.385071	
-0.38446	
-0.384216	
-0.385071	
-0.38446	
-0.383606	
-0.384033	
-0.383911	
-0.384888	
-0.384827	
-0.384155	
-0.384277	
-0.38446	
-0.384583	
-0.38446	
-0.385437	
-0.384521	
-0.385254	
-0.38446	
-0.38501	
-0.385193	
-0.385742	
-0.384644	
-0.384766	
-0.384827	
-0.384766	
-0.385986	
-0.385254	
-0.384521	
-0.38562	
-0.385315	
-0.385315	
-0.38562	
-0.384827	
-0.385437	
-0.385254	
-0.385071	
-0.385315	
-0.385986	
-0.38446	
-0.384644	
-0.384338	
-0.384399	
-0.384888	
-0.38501	
-0.384521	
-0.384216	
-0.384399	
-0.384583	
-0.385132	
-0.384583	
-0.384644	
-0.384583	
-0.384033	
-0.385071	
-0.385376	
-0.384705	
-0.385254	
-0.384888	
-0.385376	
-0.385681	
-0.386353	
-0.384094	
-0.385559	
-0.385864	
-0.385803	
-0.385742	
-0.38562	
-0.38562	
-0.385681	
-0.386169	
-0.385559	
-0.385803	
-0.385071	
-0.385925	
-0.384644	
-0.385376	
-0.385254	
-0.385986	
-0.385071	
-0.385071	
-0.384766	
-0.384399	
-0.38562	
-0.384338	
-0.383606	
-0.383667	
-0.38385	
-0.384155	
-0.38446	
-0.384399	
-0.384949	
-0.385071	
-0.384644	
-0.385864	
-0.385864	
-0.384583	
-0.384583	
-0.383667	
-0.384766	
-0.384338	
-0.385071	
-0.384216	
-0.384888	
-0.384705	
-0.385193	
-0.385986	
-0.384705	
-0.384705	
-0.385132	
-0.385071	
-0.385498	
-0.386108	
-0.385498	
-0.385193	
-0.385559	
-0.386475	
-0.385986	
-0.386597	
-0.385315	
-0.385864	
-0.385803	
-0.386047	
-0.386353	
-0.38678	
-0.385437	
-0.386292	
-0.385681	
-0.386414	
-0.38678	
-0.386108	
-0.386414	
-0.385681	
-0.388062	
-0.386963	
-0.388306	
-0.387268	
-0.386597	
-0.386475	
-0.386902	
-0.388306	
-0.387329	
-0.385864	
-0.386902	
-0.385864	
-0.386902	
-0.387085	
-0.387268	
-0.386414	
-0.386841	
-0.387695	
-0.388855	
-0.38916	
-0.387878	
-0.387756	
-0.387756	
-0.388794	
-0.388428	
-0.388123	
-0.387878	
-0.389221	
-0.388611	
-0.387939	
-0.388	
-0.387878	
-0.387634	
-0.387451	
-0.388733	
-0.388428	
-0.38855	
-0.387634	
-0.387573	
-0.388	
-0.387695	
-0.388855	
-0.388733	
-0.387817	
-0.387817	
-0.387329	
-0.387512	
-0.388123	
-0.388733	
-0.387573	
-0.387146	
-0.387573	
-0.388184	
-0.388428	
-0.387695	
-0.387268	
-0.386169	
-0.387329	
-0.388062	
-0.387634	
-0.387695	
-0.387146	
-0.387573	
-0.386841	
-0.38855	
-0.388123	
-0.386902	
-0.387268	
-0.387634	
-0.388733	
-0.387695	
-0.388733	
-0.387817	
-0.387146	
-0.388672	
-0.388123	
-0.388489	
-0.388306	
-0.388306	
-0.386719	
-0.388489	
-0.389343	
-0.388672	
-0.388306	
-0.388123	
-0.388245	
-0.38855	
-0.389282	
-0.388123	
-0.387634	
-0.388428	
-0.387085	
-0.388367	
-0.388367	
-0.388062	
-0.387634	
-0.387695	
-0.387939	
-0.388123	
-0.388245	
-0.387512	
-0.38739	
-0.386536	
-0.387146	
-0.388367	
-0.387817	
-0.387207	
-0.386719	
-0.38678	
-0.387085	
-0.387695	
-0.386597	
-0.385132	
-0.38623	
-0.384949	
-0.386414	
-0.386475	
-0.386536	
-0.386047	
-0.385559	
-0.38623	
-0.386292	
-0.386597	
-0.385376	
-0.386047	
-0.384399	
-0.386475	
-0.386536	
-0.38678	
-0.386047	
-0.386841	
-0.386719	
-0.386963	
-0.388794	
-0.387817	
-0.386292	
-0.387146	
-0.387695	
-0.388916	
-0.388367	
-0.388428	
-0.388123	
-0.388123	
-0.388	
-0.388672	
-0.388855	
-0.388489	
-0.388367	
-0.386597	
-0.388672	
-0.388672	
-0.388977	
-0.388184	
-0.387146	
-0.388062	
-0.388916	
-0.389282	
-0.388	
-0.387695	
-0.387695	
-0.387451	
-0.388489	
-0.387451	
-0.38739	
-0.387146	
-0.386719	
-0.387207	
-0.387756	
-0.387451	
-0.386841	
-0.386047	
-0.384888	
-0.386902	
-0.386597	
-0.387695	
-0.387329	
-0.386353	
-0.386597	
-0.387573	
-0.388245	
-0.38623	
-0.385986	
-0.385986	
-0.385986	
-0.386963	
-0.386902	
-0.386475	
-0.385925	
-0.386047	
-0.38678	
-0.387573	
-0.385742	
-0.385925	
-0.385681	
-0.385071	
-0.386536	
-0.387024	
-0.38678	
-0.38623	
-0.385925	
-0.386719	
-0.387939	
-0.388184	
-0.386963	
-0.386719	
-0.386597	
-0.387634	
-0.388489	
-0.387878	
-0.387085	
-0.387695	
-0.387329	
-0.388184	
-0.389099	
-0.387756	
-0.387451	
-0.38739	
-0.385986	
-0.387268	
-0.387878	
-0.387756	
-0.38739	
-0.386719	
-0.386902	
-0.388672	
-0.388611	
-0.38739	
-0.387146	
-0.385315	
-0.387268	
-0.387634	
-0.387512	
-0.38739	
-0.387085	
-0.387512	
-0.388	
-0.390015	
-0.388245	
-0.387878	
-0.387512	
-0.387939	
-0.388733	
-0.388794	
-0.388733	
-0.388733	
-0.388794	
-0.387634	
-0.389832	
-0.39032	
-0.389709	
-0.388794	
-0.387756	
-0.38916	
-0.389771	
-0.389954	
-0.389343	
-0.389099	
-0.388123	
-0.389038	
-0.390747	
-0.38916	
-0.388733	
-0.388672	
-0.387756	
-0.388977	
-0.389832	
-0.388611	
-0.388306	
-0.388245	
-0.388	
-0.389832	
-0.389771	
-0.388855	
-0.388977	
-0.388306	
-0.388855	
-0.389771	
-0.390259	
-0.389709	
-0.389954	
-0.389221	
-0.39032	
-0.392273	
-0.391479	
-0.390625	
-0.390442	
-0.391174	
-0.391235	
-0.392029	
-0.391785	
-0.390503	
-0.390808	
-0.390625	
-0.391418	
-0.390991	
-0.390625	
-0.390808	
-0.389221	
-0.390015	
-0.391052	
-0.391113	
-0.390869	
	
