E:\DOCUMENTS AND SETTINGS\JPOTAS\MEUS DOCUMENTOS\UFRJ\RSCI-BM 12 WK SERIES\070718-RSCI-BM-03\RSCI-BM-03-LEMG\070718-RSCI-BM-03-LEMG-0021.ACQ
0.025000 msec/sample
1 channel
Analog input
Volts
CH1	
2000	
-0.393616	
-0.39502	
-0.394897	
-0.394714	
-0.393738	
-0.394409	
-0.393799	
-0.393005	
-0.394836	
-0.394836	
-0.394043	
-0.392578	
-0.392517	
-0.393188	
-0.393738	
-0.393677	
-0.393799	
-0.393188	
-0.393311	
-0.3927	
-0.394287	
-0.393921	
-0.3927	
-0.391357	
-0.392883	
-0.393433	
-0.393188	
-0.393799	
-0.393188	
-0.393555	
-0.393005	
-0.394043	
-0.394531	
-0.39447	
-0.394165	
-0.393738	
-0.394104	
-0.393982	
-0.394836	
-0.39502	
-0.394775	
-0.39502	
-0.394531	
-0.394958	
-0.396179	
-0.396606	
-0.395508	
-0.395386	
-0.395447	
-0.39624	
-0.396545	
-0.396484	
-0.396484	
-0.395935	
-0.395264	
-0.396545	
-0.396606	
-0.395935	
-0.395874	
-0.394348	
-0.394653	
-0.395386	
-0.396729	
-0.395142	
-0.394348	
-0.394714	
-0.39447	
-0.394836	
-0.394104	
-0.394287	
-0.39325	
-0.392944	
-0.3927	
-0.393799	
-0.39447	
-0.394592	
-0.394714	
-0.394592	
-0.395569	
-0.396667	
-0.396179	
-0.395996	
-0.396118	
-0.396484	
-0.395691	
-0.3974	
-0.397827	
-0.397461	
-0.397766	
-0.397583	
-0.397522	
-0.398926	
-0.397583	
-0.397217	
-0.3974	
-0.397766	
-0.396362	
-0.397888	
-0.397827	
-0.3974	
-0.397217	
-0.396606	
-0.397217	
-0.396729	
-0.3974	
-0.397095	
-0.396423	
-0.396484	
-0.394714	
-0.396423	
-0.396057	
-0.39679	
-0.394836	
-0.394531	
-0.395264	
-0.39502	
-0.395264	
-0.39447	
-0.393372	
-0.394958	
-0.394653	
-0.394653	
-0.394531	
-0.394348	
-0.393677	
-0.393127	
-0.393433	
-0.393555	
-0.393799	
-0.392578	
-0.391052	
-0.392639	
-0.392395	
-0.393066	
-0.392151	
-0.392883	
-0.391724	
-0.391418	
-0.391602	
-0.391235	
-0.392761	
-0.391113	
-0.389832	
-0.391602	
-0.392334	
-0.393005	
-0.392029	
-0.393066	
-0.39209	
-0.392639	
-0.392273	
-0.391724	
-0.392395	
-0.391846	
-0.389465	
-0.391296	
-0.391357	
-0.3927	
-0.39209	
-0.391602	
-0.391663	
-0.39209	
-0.392639	
-0.392029	
-0.392761	
-0.391541	
-0.390259	
-0.392395	
-0.392456	
-0.392517	
-0.391968	
-0.392212	
-0.391663	
-0.391907	
-0.392517	
-0.392944	
-0.393066	
-0.392456	
-0.391602	
-0.392029	
-0.393066	
-0.393433	
-0.39386	
-0.393127	
-0.393433	
-0.393311	
-0.394226	
-0.394836	
-0.394653	
-0.393677	
-0.393982	
-0.394043	
-0.394775	
-0.39447	
-0.394958	
-0.393799	
-0.392761	
-0.222656	
-0.00341797	
-0.415405	
-0.473755	
-0.406372	
-0.384644	
-0.377319	
-0.374939	
-0.372925	
-0.372498	
-0.373047	
-0.373413	
-0.372742	
-0.373169	
-0.373352	
-0.372131	
-0.373474	
-0.37262	
-0.372559	
-0.372498	
-0.372803	
-0.371582	
-0.373291	
-0.372803	
-0.373108	
-0.374329	
-0.373535	
-0.37384	
-0.373962	
-0.374329	
-0.374084	
-0.374023	
-0.374268	
-0.375366	
-0.375366	
-0.375549	
-0.376282	
-0.376587	
-0.375732	
-0.375427	
-0.375061	
-0.375732	
-0.375305	
-0.373474	
-0.373535	
-0.373413	
-0.373779	
-0.373718	
-0.374146	
-0.373291	
-0.373474	
-0.375183	
-0.374084	
-0.374573	
-0.374634	
-0.375793	
-0.377441	
-0.380127	
-0.382629	
-0.38562	
-0.389709	
-0.391602	
-0.396362	
-0.400024	
-0.405273	
-0.410217	
-0.415222	
-0.422058	
-0.429626	
-0.437744	
-0.446594	
-0.457397	
-0.466614	
-0.47644	
-0.484375	
-0.491638	
-0.499329	
-0.504761	
-0.509155	
-0.514709	
-0.520752	
-0.525269	
-0.529724	
-0.533569	
-0.536011	
-0.539246	
-0.540955	
-0.543274	
-0.543701	
-0.543518	
-0.54541	
-0.545166	
-0.5448	
-0.543762	
-0.543823	
-0.541931	
-0.541199	
-0.541809	
-0.539246	
-0.540222	
-0.540466	
-0.540222	
-0.541992	
-0.542847	
-0.544312	
-0.545654	
-0.548218	
-0.547058	
-0.547119	
-0.547668	
-0.548157	
-0.547668	
-0.546082	
-0.545532	
-0.543884	
-0.543823	
-0.54126	
-0.539612	
-0.53656	
-0.532837	
-0.528931	
-0.522888	
-0.520081	
-0.514404	
-0.508606	
-0.5047	
-0.500244	
-0.495728	
-0.491272	
-0.487976	
-0.482422	
-0.477417	
-0.47229	
-0.466064	
-0.460999	
-0.453796	
-0.44751	
-0.441772	
-0.434814	
-0.428284	
-0.421509	
-0.416687	
-0.409241	
-0.401917	
-0.395691	
-0.38739	
-0.381897	
-0.373962	
-0.365723	
-0.359436	
-0.352844	
-0.34613	
-0.338928	
-0.332764	
-0.323914	
-0.316833	
-0.309509	
-0.301208	
-0.293884	
-0.286987	
-0.278992	
-0.273315	
-0.268738	
-0.263306	
-0.258301	
-0.25293	
-0.247681	
-0.243713	
-0.240173	
-0.236511	
-0.233459	
-0.231262	
-0.231201	
-0.230469	
-0.232056	
-0.233398	
-0.236694	
-0.237183	
-0.240906	
-0.245056	
-0.248657	
-0.253723	
-0.258423	
-0.265137	
-0.270264	
-0.277039	
-0.283203	
-0.291443	
-0.296448	
-0.301758	
-0.308105	
-0.314087	
-0.320496	
-0.324524	
-0.330688	
-0.334961	
-0.339722	
-0.34436	
-0.34906	
-0.351257	
-0.354919	
-0.358948	
-0.360352	
-0.362915	
-0.365356	
-0.36853	
-0.369873	
-0.372314	
-0.374268	
-0.376526	
-0.376038	
-0.377136	
-0.379761	
-0.379517	
-0.381165	
-0.381226	
-0.381592	
-0.382446	
-0.382751	
-0.383728	
-0.38501	
-0.38446	
-0.384888	
-0.386047	
-0.385071	
-0.385925	
-0.38562	
-0.384827	
-0.38501	
-0.384216	
-0.384521	
-0.384338	
-0.384827	
-0.382935	
-0.382324	
-0.381714	
-0.379578	
-0.379639	
-0.375732	
-0.374878	
-0.373047	
-0.371948	
-0.369751	
-0.368164	
-0.365845	
-0.36438	
-0.361938	
-0.359253	
-0.358765	
-0.356201	
-0.354065	
-0.351807	
-0.349182	
-0.348633	
-0.348022	
-0.345032	
-0.342224	
-0.340942	
-0.338745	
-0.337097	
-0.336243	
-0.333069	
-0.332458	
-0.331604	
-0.331543	
-0.330933	
-0.330383	
-0.330933	
-0.331665	
-0.33252	
-0.333435	
-0.334778	
-0.335449	
-0.336487	
-0.338318	
-0.338867	
-0.341431	
-0.34375	
-0.343994	
-0.344727	
-0.345093	
-0.346924	
-0.347778	
-0.348389	
-0.348389	
-0.349915	
-0.350159	
-0.352356	
-0.353088	
-0.354614	
-0.354675	
-0.355225	
-0.356018	
-0.357361	
-0.358398	
-0.357727	
-0.3573	
-0.35907	
-0.359924	
-0.360596	
-0.362549	
-0.36145	
-0.362061	
-0.363037	
-0.36377	
-0.363342	
-0.36377	
-0.364136	
-0.36438	
-0.364319	
-0.365723	
-0.366943	
-0.366211	
-0.366089	
-0.366577	
-0.366943	
-0.367371	
-0.368286	
-0.367249	
-0.365967	
-0.366943	
-0.367126	
-0.368164	
-0.368835	
-0.368164	
-0.367737	
-0.366516	
-0.369263	
-0.368408	
-0.368164	
-0.367493	
-0.367981	
-0.367615	
-0.368225	
-0.369812	
-0.368958	
-0.36969	
-0.370178	
-0.368591	
-0.369995	
-0.369507	
-0.369263	
-0.368469	
-0.369202	
-0.367554	
-0.368652	
-0.368958	
-0.368958	
-0.368408	
-0.367737	
-0.367188	
-0.368591	
-0.367249	
-0.367615	
-0.36731	
-0.367065	
-0.366943	
-0.367615	
-0.368103	
-0.36731	
-0.367615	
-0.36554	
-0.367126	
-0.367188	
-0.367432	
-0.366882	
-0.36554	
-0.366821	
-0.36615	
-0.368042	
-0.36792	
-0.367249	
-0.367737	
-0.368469	
-0.368896	
-0.36792	
-0.369141	
-0.368286	
-0.368835	
-0.36969	
-0.369568	
-0.370056	
-0.369812	
-0.370605	
-0.369751	
-0.369934	
-0.370728	
-0.371338	
-0.371155	
-0.370911	
-0.371338	
-0.371338	
-0.37262	
-0.373291	
-0.37323	
-0.372559	
-0.37207	
-0.373474	
-0.372986	
-0.373474	
-0.373352	
-0.373718	
-0.37384	
-0.374573	
-0.375488	
-0.375	
-0.375061	
-0.374329	
-0.374268	
-0.374512	
-0.375488	
-0.374756	
-0.374939	
-0.375244	
-0.375549	
-0.37616	
-0.37677	
-0.377136	
-0.376343	
-0.374878	
-0.377075	
-0.377014	
-0.376526	
-0.375916	
-0.376892	
-0.377319	
-0.377136	
-0.378296	
-0.376892	
-0.376953	
-0.375488	
-0.376404	
-0.376648	
-0.376831	
-0.376038	
-0.37677	
-0.376404	
-0.376892	
-0.37793	
-0.377686	
-0.377502	
-0.377319	
-0.376648	
-0.376892	
-0.37738	
-0.377441	
-0.377319	
-0.376038	
-0.376831	
-0.376953	
-0.377991	
-0.377319	
-0.376343	
-0.376038	
-0.37561	
-0.376465	
-0.375244	
-0.375854	
-0.375366	
-0.375793	
-0.376343	
-0.376587	
-0.375916	
-0.37561	
-0.376587	
-0.375183	
-0.375305	
-0.376343	
-0.375061	
-0.375366	
-0.375	
-0.375854	
-0.375916	
-0.377136	
-0.376831	
-0.375305	
-0.375793	
-0.375244	
-0.376343	
-0.375	
-0.374878	
-0.374512	
-0.375427	
-0.375366	
-0.375793	
-0.376038	
-0.375061	
-0.375183	
-0.374512	
-0.374084	
-0.375488	
-0.374329	
-0.374451	
-0.374695	
-0.374451	
-0.374817	
-0.375671	
-0.375977	
-0.375366	
-0.375549	
-0.37439	
-0.375244	
-0.375244	
-0.374756	
-0.375977	
-0.374756	
-0.37616	
-0.376831	
-0.377563	
-0.37738	
-0.377014	
-0.377441	
-0.377258	
-0.37793	
-0.377441	
-0.378723	
-0.377625	
-0.37793	
-0.378479	
-0.378967	
-0.378601	
-0.378357	
-0.378357	
-0.377686	
-0.378357	
-0.379028	
-0.377808	
-0.378906	
-0.378418	
-0.378418	
-0.378357	
-0.379089	
-0.379272	
-0.376831	
-0.377014	
-0.377625	
-0.378052	
-0.377441	
-0.376892	
-0.376587	
-0.376099	
-0.376831	
-0.377502	
-0.377075	
-0.376709	
-0.377197	
-0.376526	
-0.377319	
-0.378723	
-0.378296	
-0.379089	
-0.379272	
-0.3797	
-0.379883	
-0.380432	
-0.380493	
-0.380066	
-0.380249	
-0.379517	
-0.381042	
-0.380798	
-0.380859	
-0.380493	
-0.37915	
-0.380737	
-0.381531	
-0.381104	
-0.380371	
-0.380981	
-0.379333	
-0.379333	
-0.381042	
-0.380798	
-0.380249	
-0.380615	
-0.380432	
-0.380432	
-0.380371	
-0.38031	
-0.378784	
-0.378174	
-0.378784	
-0.378662	
-0.378662	
-0.378723	
-0.378113	
-0.377258	
-0.378235	
-0.379272	
-0.378723	
-0.378296	
-0.378052	
-0.37738	
-0.377197	
-0.377625	
-0.377014	
-0.376831	
-0.37677	
-0.376648	
-0.376648	
-0.377014	
-0.377075	
-0.375671	
-0.375732	
-0.374756	
-0.374207	
-0.375549	
-0.374878	
-0.375183	
-0.374878	
-0.375671	
-0.375549	
-0.375366	
-0.376282	
-0.375488	
-0.373901	
-0.374634	
-0.376282	
-0.374451	
-0.375	
-0.375	
-0.374939	
-0.375305	
-0.375488	
-0.37616	
-0.375427	
-0.375671	
-0.374207	
-0.374451	
-0.37561	
-0.375244	
-0.375793	
-0.375854	
-0.375916	
-0.376038	
-0.376648	
-0.376709	
-0.375793	
-0.374878	
-0.375122	
-0.374329	
-0.37439	
-0.375549	
-0.375671	
-0.374634	
-0.376038	
-0.376709	
-0.37677	
-0.377258	
-0.377136	
-0.376343	
-0.376099	
-0.377686	
-0.377075	
-0.377319	
-0.377502	
-0.377808	
-0.37854	
-0.378601	
-0.378357	
-0.37854	
-0.378174	
-0.378174	
-0.376648	
-0.37677	
-0.378174	
-0.377991	
-0.377014	
-0.377563	
-0.377625	
-0.377563	
-0.378296	
-0.377625	
-0.376648	
-0.377075	
-0.37854	
-0.37793	
-0.378357	
-0.377869	
-0.377869	
-0.378052	
-0.378296	
-0.378113	
-0.3797	
-0.378784	
-0.377563	
-0.378235	
-0.378235	
-0.378601	
-0.377625	
-0.37793	
-0.37854	
-0.37915	
-0.3797	
-0.380005	
-0.379578	
-0.379211	
-0.379333	
-0.378174	
-0.379395	
-0.379639	
-0.379517	
-0.380188	
-0.380554	
-0.380554	
-0.380005	
-0.380615	
-0.380188	
-0.37793	
-0.379395	
-0.377747	
-0.378357	
-0.377869	
-0.377319	
-0.378235	
-0.378357	
-0.378845	
-0.378174	
-0.379944	
-0.378235	
-0.377625	
-0.378113	
-0.377136	
-0.377502	
-0.377258	
-0.377075	
-0.376648	
-0.377319	
-0.377014	
-0.377502	
-0.377502	
-0.375427	
-0.377686	
-0.376343	
-0.376343	
-0.376892	
-0.376709	
-0.376526	
-0.376648	
-0.377075	
-0.375793	
-0.376648	
-0.37677	
-0.376465	
-0.375977	
-0.373596	
-0.376221	
-0.375854	
-0.375488	
-0.376038	
-0.375488	
-0.375305	
-0.375183	
-0.376221	
-0.374146	
-0.375122	
-0.375244	
-0.373718	
-0.375122	
-0.375061	
-0.375061	
-0.374451	
-0.375427	
-0.375916	
-0.375916	
-0.377441	
-0.374878	
-0.375977	
-0.374695	
-0.375916	
-0.375244	
-0.374817	
-0.375366	
-0.375671	
-0.376526	
-0.375671	
-0.376465	
-0.376587	
-0.375671	
-0.376343	
-0.375061	
-0.376404	
-0.376709	
-0.376892	
-0.377686	
-0.377502	
-0.378052	
-0.377869	
-0.379272	
-0.378418	
-0.378418	
-0.378296	
-0.376404	
-0.37854	
-0.377686	
-0.379089	
-0.378967	
-0.379089	
-0.378601	
-0.378784	
-0.380066	
-0.377747	
-0.379089	
-0.377563	
-0.379211	
-0.378723	
-0.378052	
-0.378967	
-0.379211	
-0.380554	
-0.379761	
-0.379944	
-0.380249	
-0.379822	
-0.379761	
-0.378296	
-0.378967	
-0.379761	
-0.380432	
-0.380493	
-0.380493	
-0.380371	
-0.379883	
-0.381165	
-0.380188	
-0.380493	
-0.380249	
-0.379517	
-0.38092	
-0.379944	
-0.380493	
-0.380066	
-0.380371	
-0.380432	
-0.380127	
-0.380676	
-0.378418	
-0.380432	
-0.378723	
-0.378357	
-0.379456	
-0.379883	
-0.37915	
-0.379089	
-0.379333	
-0.378845	
-0.379089	
-0.378662	
-0.378113	
-0.378052	
-0.377075	
-0.377625	
-0.377075	
-0.377686	
-0.377869	
-0.377686	
-0.37793	
-0.37793	
-0.379272	
-0.378662	
-0.379211	
-0.377808	
-0.377686	
-0.378601	
-0.37854	
-0.378479	
-0.378967	
-0.378967	
-0.37915	
-0.379395	
-0.380859	
-0.37915	
-0.380371	
-0.379333	
-0.379333	
-0.3797	
-0.380127	
-0.379578	
-0.379639	
-0.380676	
-0.379272	
-0.379456	
-0.378906	
-0.378845	
-0.377441	
-0.377075	
-0.376465	
-0.376465	
-0.376831	
-0.377075	
-0.377502	
-0.376953	
-0.376465	
-0.377075	
-0.376892	
-0.376587	
-0.37561	
-0.375549	
-0.376343	
-0.376465	
-0.376587	
-0.376709	
-0.377319	
-0.376892	
-0.377869	
-0.377991	
-0.376587	
-0.377869	
-0.376099	
-0.37677	
-0.377991	
-0.378235	
-0.378296	
-0.378174	
-0.379578	
-0.379028	
-0.379883	
-0.379761	
-0.37915	
-0.379333	
-0.379272	
-0.379028	
-0.379089	
-0.380005	
-0.380615	
-0.379883	
-0.380371	
-0.380981	
-0.380676	
-0.381653	
-0.381653	
-0.380554	
-0.380615	
-0.381531	
-0.382202	
-0.382813	
-0.382935	
-0.383728	
-0.382996	
-0.383972	
-0.383789	
-0.382629	
-0.383972	
-0.383179	
-0.381592	
-0.383057	
-0.383667	
-0.382874	
-0.382874	
-0.383301	
-0.382751	
-0.383545	
-0.384583	
-0.382751	
-0.382935	
-0.382751	
-0.383179	
-0.382507	
-0.383118	
-0.383118	
-0.383606	
-0.383911	
-0.383423	
-0.383301	
-0.383545	
-0.382996	
-0.381897	
-0.381775	
-0.382446	
-0.382629	
-0.382629	
-0.382568	
-0.383179	
-0.383301	
-0.384155	
-0.383179	
-0.382385	
-0.383423	
-0.38269	
-0.380005	
-0.381897	
-0.381897	
-0.381897	
-0.382446	
-0.382385	
-0.382324	
-0.381653	
-0.382813	
-0.380798	
-0.380981	
-0.381592	
-0.381104	
-0.380615	
-0.380859	
-0.381165	
-0.381165	
-0.382141	
-0.381348	
-0.381226	
-0.382446	
-0.381531	
-0.381531	
-0.381897	
-0.382202	
-0.381165	
-0.38208	
-0.38208	
-0.382446	
-0.382202	
-0.382141	
-0.38208	
-0.381104	
-0.381165	
-0.381104	
-0.378967	
-0.380859	
-0.380798	
-0.380981	
-0.380737	
-0.381042	
-0.380981	
-0.380676	
-0.381409	
-0.379639	
-0.381409	
-0.380127	
-0.379517	
-0.380188	
-0.380188	
-0.380554	
-0.380371	
-0.380188	
-0.380371	
-0.379517	
-0.380249	
-0.378479	
-0.379883	
-0.378845	
-0.379761	
-0.379578	
-0.380066	
-0.38031	
-0.380737	
-0.381714	
-0.380798	
-0.381348	
-0.380981	
-0.380432	
-0.380859	
-0.379456	
-0.38147	
-0.38092	
-0.381958	
-0.381775	
-0.382141	
-0.384216	
-0.382507	
-0.383667	
-0.382019	
-0.383362	
-0.38208	
-0.382507	
-0.382996	
-0.383118	
-0.382874	
-0.383179	
-0.383362	
-0.384583	
-0.384216	
-0.383911	
-0.382507	
-0.384521	
-0.383301	
-0.383606	
-0.382935	
-0.383545	
-0.383789	
-0.383606	
-0.384521	
-0.384094	
-0.384583	
-0.384155	
-0.382751	
-0.384705	
-0.382751	
-0.384521	
-0.383301	
-0.38501	
-0.385071	
-0.385315	
-0.386108	
-0.385071	
-0.386475	
-0.384521	
-0.383362	
-0.383301	
-0.384583	
-0.383972	
-0.383972	
-0.38446	
-0.384521	
-0.384766	
-0.386108	
-0.384766	
-0.385193	
-0.384155	
-0.384705	
-0.383789	
-0.384521	
-0.384033	
-0.38501	
-0.384583	
-0.384155	
-0.384766	
-0.385132	
-0.384399	
-0.383362	
-0.382935	
-0.382935	
-0.381287	
-0.383118	
-0.381958	
-0.382629	
-0.382019	
-0.38208	
-0.382568	
-0.382996	
-0.384399	
-0.382202	
-0.381287	
-0.382324	
-0.382446	
-0.382629	
-0.38208	
-0.382263	
-0.381958	
-0.381958	
-0.382568	
-0.381958	
-0.382324	
-0.381287	
-0.381653	
-0.380371	
-0.382202	
-0.381531	
-0.381348	
-0.381348	
-0.381104	
-0.381104	
-0.382996	
-0.382263	
-0.381165	
-0.380859	
-0.381042	
-0.380127	
-0.380676	
-0.379211	
-0.380859	
-0.380615	
-0.380432	
-0.380493	
-0.38147	
-0.382141	
-0.380493	
-0.380005	
-0.380127	
-0.381165	
-0.381104	
-0.380005	
-0.381592	
-0.381531	
-0.381653	
-0.382568	
-0.38269	
-0.382568	
-0.38147	
-0.380737	
-0.381042	
-0.382324	
-0.382507	
-0.382507	
-0.38324	
-0.383667	
-0.383972	
-0.385071	
-0.384155	
-0.383789	
-0.38385	
-0.384583	
-0.382813	
-0.38385	
-0.384033	
-0.383728	
-0.38446	
-0.383972	
-0.383789	
-0.384277	
-0.385071	
-0.383545	
-0.381836	
-0.382813	
-0.382751	
-0.383057	
-0.382446	
-0.382507	
-0.382385	
-0.382751	
-0.383057	
-0.382446	
-0.381714	
-0.381653	
-0.381287	
-0.380798	
-0.383606	
-0.383423	
-0.382935	
-0.384094	
-0.384277	
-0.384888	
-0.386597	
-0.385864	
-0.384583	
-0.385071	
-0.386475	
-0.385498	
-0.385254	
-0.385742	
-0.386658	
-0.386108	
-0.385925	
-0.386475	
-0.387024	
-0.387268	
-0.386353	
-0.384094	
-0.385742	
-0.386047	
-0.385681	
-0.385315	
-0.385925	
-0.386353	
-0.386108	
-0.386719	
-0.38623	
-0.385864	
-0.384705	
-0.384399	
-0.385071	
-0.384094	
-0.384094	
-0.383606	
-0.384094	
-0.384033	
-0.384216	
-0.385559	
-0.384399	
-0.383606	
-0.38269	
-0.383179	
-0.38269	
-0.38324	
-0.382019	
-0.382629	
-0.382874	
-0.382813	
-0.382446	
-0.383789	
-0.381714	
-0.381592	
-0.380798	
-0.380615	
-0.37915	
-0.380432	
-0.379944	
-0.380859	
-0.381104	
-0.381042	
-0.381348	
-0.381226	
-0.381592	
-0.380859	
-0.379028	
-0.380981	
-0.381348	
-0.381592	
-0.381165	
-0.380859	
-0.381104	
-0.381531	
-0.382507	
-0.380859	
-0.381287	
-0.380676	
-0.3797	
-0.380615	
-0.380554	
-0.380676	
-0.381226	
-0.380676	
-0.381653	
-0.381531	
-0.383423	
-0.381165	
-0.381592	
-0.381348	
-0.380432	
-0.380432	
-0.380981	
-0.38147	
-0.38147	
-0.381592	
-0.381592	
-0.381714	
-0.383667	
-0.382507	
-0.381897	
-0.381226	
-0.382263	
-0.381958	
-0.381714	
-0.382935	
-0.383179	
-0.383362	
-0.383728	
-0.384583	
-0.383789	
-0.384644	
-0.384766	
-0.381348	
-0.38385	
-0.383606	
-0.383057	
-0.383423	
-0.384094	
-0.383118	
-0.382996	
-0.385437	
-0.382813	
-0.382446	
-0.382324	
-0.382507	
-0.382385	
-0.382751	
-0.383057	
-0.382874	
-0.38385	
-0.384155	
-0.384155	
-0.385132	
-0.384399	
-0.384399	
-0.382141	
-0.383728	
-0.383606	
-0.384399	
-0.384216	
-0.383972	
-0.384094	
-0.384949	
-0.385986	
-0.385193	
-0.385986	
-0.385315	
-0.383789	
-0.385132	
-0.38562	
-0.385559	
-0.385498	
-0.385742	
-0.385864	
-0.386597	
-0.387329	
-0.385864	
-0.385559	
-0.384583	
-0.384644	
-0.384155	
-0.383301	
-0.384521	
-0.384583	
-0.38446	
-0.384094	
-0.384521	
-0.384766	
-0.384033	
-0.384827	
-0.382568	
-0.382446	
-0.382202	
-0.383545	
-0.383179	
-0.383484	
-0.383179	
-0.382874	
-0.38446	
-0.384277	
-0.383484	
-0.383057	
-0.381653	
-0.383179	
-0.38269	
-0.383667	
-0.383301	
-0.382996	
-0.382019	
-0.382629	
-0.382324	
-0.382751	
-0.383179	
-0.381287	
-0.380981	
-0.381775	
-0.381226	
-0.38208	
-0.381775	
-0.381836	
-0.381714	
-0.381287	
-0.381836	
-0.381348	
-0.381714	
-0.380188	
-0.380005	
-0.38092	
-0.38147	
-0.38147	
-0.381409	
-0.381592	
-0.381226	
-0.382141	
-0.383179	
-0.382507	
-0.382874	
-0.381165	
-0.381836	
-0.380432	
-0.382263	
-0.38147	
-0.381775	
-0.381958	
-0.381958	
-0.382263	
-0.38208	
-0.382263	
-0.38031	
-0.380676	
-0.381958	
-0.382324	
-0.383423	
-0.383423	
-0.383972	
-0.384216	
-0.384827	
-0.384338	
-0.384277	
-0.385742	
-0.385071	
-0.383606	
-0.384033	
-0.38446	
-0.385498	
-0.386169	
-0.385803	
-0.385681	
-0.386658	
-0.386841	
-0.385315	
-0.385803	
-0.384949	
-0.385071	
-0.38446	
-0.386475	
-0.385864	
-0.386047	
-0.386353	
-0.386658	
-0.386658	
-0.386902	
-0.38678	
-0.384399	
-0.385193	
-0.385925	
-0.384888	
-0.386658	
-0.387207	
-0.38739	
-0.387085	
-0.387573	
-0.388184	
-0.387207	
-0.388428	
-0.386536	
-0.386353	
-0.387451	
-0.387573	
-0.387939	
-0.387695	
-0.387756	
-0.387756	
-0.388489	
-0.388794	
-0.387451	
-0.388062	
-0.386169	
-0.386475	
-0.386475	
-0.387268	
-0.387024	
-0.386719	
-0.386597	
-0.386292	
-0.387268	
-0.386963	
-0.386841	
-0.385376	
-0.38385	
-0.385193	
-0.384644	
-0.385498	
-0.384949	
-0.385132	
-0.385376	
-0.385559	
-0.386292	
-0.384949	
-0.385681	
-0.385193	
-0.384399	
-0.384216	
-0.385986	
-0.385742	
-0.385925	
-0.386047	
-0.386292	
-0.386414	
-0.388306	
-0.388062	
-0.387634	
-0.386047	
-0.386963	
-0.387329	
-0.387512	
-0.387634	
-0.387634	
-0.386719	
-0.386475	
-0.387146	
-0.387573	
-0.38623	
-0.385132	
-0.383789	
-0.384521	
-0.383423	
-0.384399	
-0.384033	
-0.38385	
-0.384277	
-0.38446	
-0.385132	
-0.38446	
-0.384521	
-0.382874	
-0.382141	
-0.382629	
-0.383423	
-0.38324	
-0.384155	
-0.384033	
-0.383972	
-0.383911	
-0.386353	
-0.385315	
-0.384644	
-0.383728	
-0.382324	
-0.383728	
-0.384399	
-0.384644	
-0.384216	
-0.384827	
-0.385193	
-0.385864	
-0.387573	
-0.386292	
-0.38562	
-0.385071	
-0.385315	
-0.385193	
-0.38623	
-0.385986	
-0.386597	
-0.386902	
-0.387024	
-0.387329	
-0.387512	
-0.387939	
-0.387634	
-0.384644	
-0.386475	
-0.388	
-0.388672	
-0.388672	
-0.389343	
-0.389526	
-0.389954	
-0.390869	
-0.390991	
-0.390869	
-0.389282	
-0.387756	
-0.389221	
-0.389832	
-0.389893	
-0.390015	
-0.389404	
-0.389343	
-0.38916	
-0.391846	
-0.390564	
-0.389343	
-0.388733	
-0.389099	
-0.388916	
-0.389526	
-0.389648	
-0.389709	
-0.389954	
-0.389893	
-0.390747	
-0.391907	
-0.391174	
-0.389221	
-0.388123	
-0.388916	
-0.389038	
-0.389038	
-0.389771	
-0.389282	
-0.389343	
-0.389771	
-0.390442	
-0.389832	
-0.390259	
-0.389282	
-0.387146	
-0.387817	
-0.388794	
-0.388855	
-0.38916	
-0.388611	
-0.389282	
-0.388611	
-0.389648	
-0.388306	
-0.387817	
-0.386597	
-0.386475	
-0.386658	
-0.387512	
-0.387817	
-0.387756	
-0.388	
-0.387939	
-0.388489	
-0.388977	
-0.388611	
-0.387512	
-0.386902	
-0.387329	
-0.387817	
-0.388611	
-0.388123	
-0.388733	
-0.388672	
-0.388428	
-0.389587	
-0.389282	
-0.388733	
-0.386658	
-0.386108	
-0.386597	
-0.387512	
-0.387878	
-0.387695	
-0.387329	
-0.38678	
-0.387268	
-0.387451	
-0.388184	
-0.387146	
-0.38562	
-0.385986	
-0.385681	
-0.386597	
-0.386597	
-0.386047	
-0.385925	
-0.385986	
-0.386719	
-0.386841	
-0.386536	
-0.385742	
-0.384705	
-0.384583	
-0.384827	
-0.385925	
-0.385986	
-0.385864	
-0.386414	
-0.38623	
-0.387329	
-0.38678	
-0.388	
-0.386475	
-0.386353	
-0.386047	
-0.387146	
-0.387207	
-0.387329	
-0.387451	
-0.387024	
-0.388062	
-0.389404	
-0.38916	
-0.388062	
-0.386658	
-0.387756	
-0.386719	
-0.38855	
-0.388489	
-0.388733	
-0.388428	
-0.388794	
-0.38916	
-0.389282	
-0.389587	
-0.388855	
-0.387817	
-0.38916	
-0.387817	
-0.389282	
-0.389404	
-0.389709	
-0.389404	
-0.388916	
-0.390991	
-0.389587	
-0.391357	
-0.388794	
-0.389343	
-0.388855	
-0.389648	
-0.389526	
-0.390076	
-0.390564	
-0.390503	
-0.39032	
-0.391479	
-0.390381	
-0.391113	
-0.388977	
-0.389404	
-0.388	
-0.389893	
-0.389648	
-0.389832	
-0.389526	
-0.389221	
-0.390076	
-0.389709	
-0.390259	
-0.389771	
-0.387939	
-0.389038	
-0.387634	
-0.389404	
-0.389099	
-0.389282	
-0.389709	
-0.389648	
-0.389893	
-0.388672	
-0.390259	
-0.388123	
-0.386414	
-0.387451	
-0.38739	
-0.387695	
-0.387024	
-0.386963	
-0.386536	
-0.387268	
-0.388367	
-0.387451	
-0.389221	
-0.38678	
-0.386841	
-0.386292	
-0.386902	
-0.386902	
-0.387146	
-0.387207	
-0.386719	
	
