E:\DOCUMENTS AND SETTINGS\JPOTAS\MEUS DOCUMENTOS\UFRJ\RSCI-BM 12 WK SERIES\070718-RSCI-BM-03\RSCI-BM-03-LEMG\070718-RSCI-BM-03-LEMG-0019.ACQ
0.025000 msec/sample
1 channel
Analog input
Volts
CH1	
2000	
-0.39502	
-0.393738	
-0.39325	
-0.394043	
-0.393738	
-0.393555	
-0.395081	
-0.394348	
-0.393799	
-0.393738	
-0.394104	
-0.394592	
-0.394409	
-0.393494	
-0.391113	
-0.392273	
-0.392151	
-0.392334	
-0.392334	
-0.39209	
-0.392029	
-0.391846	
-0.391907	
-0.393372	
-0.392639	
-0.391785	
-0.390991	
-0.393066	
-0.393799	
-0.394043	
-0.394958	
-0.394897	
-0.395203	
-0.39563	
-0.396423	
-0.397705	
-0.396484	
-0.395874	
-0.395447	
-0.395996	
-0.396423	
-0.39624	
-0.396667	
-0.396851	
-0.39679	
-0.396057	
-0.396423	
-0.397461	
-0.396729	
-0.395996	
-0.394836	
-0.394836	
-0.395691	
-0.395752	
-0.396851	
-0.395874	
-0.395569	
-0.395874	
-0.396362	
-0.39624	
-0.395264	
-0.395508	
-0.394592	
-0.395081	
-0.394897	
-0.395264	
-0.396484	
-0.395203	
-0.395447	
-0.395081	
-0.396362	
-0.396606	
-0.395325	
-0.395264	
-0.394226	
-0.393311	
-0.394775	
-0.395081	
-0.394714	
-0.393799	
-0.393982	
-0.393555	
-0.394348	
-0.394348	
-0.39325	
-0.392029	
-0.391113	
-0.391541	
-0.393494	
-0.393494	
-0.393555	
-0.392334	
-0.392517	
-0.392944	
-0.39386	
-0.394531	
-0.393982	
-0.393494	
-0.392334	
-0.392822	
-0.394104	
-0.393982	
-0.394653	
-0.393738	
-0.39386	
-0.394226	
-0.394287	
-0.395508	
-0.393555	
-0.392395	
-0.392761	
-0.393677	
-0.39386	
-0.393921	
-0.394531	
-0.393494	
-0.393799	
-0.393738	
-0.39447	
-0.394897	
-0.393433	
-0.393066	
-0.3927	
-0.3927	
-0.393066	
-0.393372	
-0.393677	
-0.393005	
-0.392944	
-0.393555	
-0.39447	
-0.394348	
-0.393005	
-0.39209	
-0.393372	
-0.393677	
-0.394043	
-0.394226	
-0.395142	
-0.393982	
-0.394348	
-0.394592	
-0.39563	
-0.395508	
-0.394348	
-0.393555	
-0.393799	
-0.393738	
-0.39447	
-0.394897	
-0.395264	
-0.394287	
-0.394226	
-0.394409	
-0.395081	
-0.394897	
-0.393616	
-0.391846	
-0.392944	
-0.393433	
-0.393066	
-0.392883	
-0.394165	
-0.392761	
-0.392212	
-0.393066	
-0.394226	
-0.392822	
-0.392395	
-0.391907	
-0.391724	
-0.392883	
-0.393494	
-0.393372	
-0.395203	
-0.394287	
-0.394348	
-0.395081	
-0.396484	
-0.395325	
-0.395264	
-0.394348	
-0.39502	
-0.396606	
-0.396545	
-0.396851	
-0.397461	
-0.396484	
-0.396667	
-0.396973	
-0.397156	
-0.396667	
-0.396606	
-0.395508	
-0.395691	
-0.39679	
-0.397034	
-0.25415	
0.0118408	
-0.0687256	
-0.0894775	
-0.0897827	
-0.0842896	
-0.376465	
-0.465759	
-0.380249	
-0.351868	
-0.340454	
-0.336487	
-0.333618	
-0.331482	
-0.331177	
-0.330688	
-0.329895	
-0.329712	
-0.330322	
-0.328979	
-0.328369	
-0.328186	
-0.325134	
-0.328369	
-0.328064	
-0.328491	
-0.32843	
-0.328979	
-0.328918	
-0.329529	
-0.330933	
-0.329041	
-0.329529	
-0.32782	
-0.330566	
-0.330872	
-0.330383	
-0.331055	
-0.332031	
-0.33197	
-0.332397	
-0.3349	
-0.332947	
-0.333496	
-0.332825	
-0.332642	
-0.333313	
-0.333435	
-0.334656	
-0.334412	
-0.335083	
-0.336365	
-0.338379	
-0.339111	
-0.340637	
-0.343933	
-0.343628	
-0.350891	
-0.354248	
-0.358093	
-0.362915	
-0.367432	
-0.370911	
-0.375671	
-0.381287	
-0.384521	
-0.390625	
-0.394958	
-0.404114	
-0.411682	
-0.420715	
-0.430725	
-0.440002	
-0.448853	
-0.456482	
-0.466248	
-0.469666	
-0.474915	
-0.478455	
-0.484253	
-0.488342	
-0.491028	
-0.494873	
-0.497925	
-0.499878	
-0.502075	
-0.505066	
-0.504028	
-0.5047	
-0.50531	
-0.503235	
-0.505005	
-0.504395	
-0.503967	
-0.503418	
-0.503479	
-0.504028	
-0.504089	
-0.505432	
-0.503479	
-0.503174	
-0.502869	
-0.504456	
-0.505554	
-0.505554	
-0.508179	
-0.508972	
-0.509644	
-0.509766	
-0.511169	
-0.509888	
-0.508545	
-0.507629	
-0.504578	
-0.504211	
-0.50177	
-0.498108	
-0.496094	
-0.491516	
-0.488281	
-0.484985	
-0.481689	
-0.47522	
-0.471375	
-0.466797	
-0.461182	
-0.45813	
-0.453552	
-0.449097	
-0.444519	
-0.43988	
-0.434814	
-0.430054	
-0.424805	
-0.417969	
-0.411743	
-0.405945	
-0.40033	
-0.394958	
-0.388367	
-0.382507	
-0.37677	
-0.370056	
-0.364075	
-0.358643	
-0.350769	
-0.343811	
-0.336731	
-0.32843	
-0.323364	
-0.316772	
-0.309021	
-0.302551	
-0.295898	
-0.289185	
-0.28186	
-0.275024	
-0.267456	
-0.260254	
-0.252991	
-0.24707	
-0.242432	
-0.236023	
-0.229736	
-0.225037	
-0.219666	
-0.214722	
-0.210999	
-0.208435	
-0.203857	
-0.200806	
-0.199829	
-0.198547	
-0.200195	
-0.201477	
-0.203308	
-0.205444	
-0.209045	
-0.213806	
-0.21875	
-0.222351	
-0.227783	
-0.233521	
-0.238525	
-0.245911	
-0.252136	
-0.259033	
-0.265381	
-0.272095	
-0.279114	
-0.2854	
-0.290344	
-0.296082	
-0.301208	
-0.304993	
-0.311401	
-0.315491	
-0.319641	
-0.323486	
-0.326904	
-0.330627	
-0.33374	
-0.335693	
-0.338318	
-0.340393	
-0.340637	
-0.344971	
-0.346069	
-0.348389	
-0.350342	
-0.351685	
-0.353455	
-0.355286	
-0.356201	
-0.357483	
-0.35791	
-0.358948	
-0.36084	
-0.362122	
-0.363037	
-0.365295	
-0.365112	
-0.366455	
-0.367676	
-0.368347	
-0.367065	
-0.366882	
-0.366821	
-0.36676	
-0.366577	
-0.365479	
-0.365112	
-0.363892	
-0.363525	
-0.363037	
-0.361511	
-0.358459	
-0.356689	
-0.354187	
-0.352661	
-0.35144	
-0.349182	
-0.347595	
-0.345581	
-0.343567	
-0.341736	
-0.339783	
-0.338074	
-0.335083	
-0.332947	
-0.330933	
-0.329346	
-0.327271	
-0.324951	
-0.32312	
-0.321106	
-0.319336	
-0.318787	
-0.31604	
-0.313965	
-0.312744	
-0.310669	
-0.308533	
-0.307861	
-0.307434	
-0.306091	
-0.305664	
-0.305725	
-0.307373	
-0.306091	
-0.306641	
-0.307983	
-0.308716	
-0.309326	
-0.310852	
-0.313293	
-0.314453	
-0.315308	
-0.3172	
-0.319702	
-0.319824	
-0.32135	
-0.322021	
-0.322754	
-0.324036	
-0.324341	
-0.326355	
-0.327271	
-0.328003	
-0.329224	
-0.331726	
-0.331604	
-0.332764	
-0.332825	
-0.333435	
-0.334412	
-0.334717	
-0.335815	
-0.336853	
-0.337402	
-0.338745	
-0.340149	
-0.339905	
-0.340698	
-0.340515	
-0.340454	
-0.340759	
-0.341309	
-0.341736	
-0.341919	
-0.342224	
-0.342834	
-0.343323	
-0.343384	
-0.342896	
-0.342468	
-0.342896	
-0.342773	
-0.342163	
-0.34198	
-0.343689	
-0.343689	
-0.344299	
-0.344482	
-0.344971	
-0.345398	
-0.344971	
-0.344788	
-0.344299	
-0.344238	
-0.344482	
-0.344543	
-0.344421	
-0.345276	
-0.345459	
-0.345032	
-0.345398	
-0.346252	
-0.345703	
-0.345459	
-0.345154	
-0.34491	
-0.346069	
-0.345154	
-0.345581	
-0.345703	
-0.34613	
-0.346069	
-0.345703	
-0.345764	
-0.346619	
-0.346558	
-0.346985	
-0.346069	
-0.347046	
-0.348022	
-0.347778	
-0.347778	
-0.3479	
-0.348633	
-0.34845	
-0.347839	
-0.348083	
-0.34729	
-0.348145	
-0.348145	
-0.348328	
-0.348999	
-0.349426	
-0.349426	
-0.349731	
-0.350037	
-0.349609	
-0.349365	
-0.349365	
-0.349365	
-0.348938	
-0.349121	
-0.348389	
-0.34967	
-0.35022	
-0.350159	
-0.349915	
-0.350281	
-0.350891	
-0.349487	
-0.350586	
-0.349976	
-0.349426	
-0.350098	
-0.350403	
-0.350281	
-0.351624	
-0.351379	
-0.351685	
-0.351379	
-0.352234	
-0.351929	
-0.351318	
-0.350769	
-0.351746	
-0.35144	
-0.352478	
-0.352722	
-0.352112	
-0.352539	
-0.353027	
-0.351685	
-0.353027	
-0.352417	
-0.35144	
-0.352295	
-0.352722	
-0.353455	
-0.353943	
-0.353943	
-0.353821	
-0.354004	
-0.352356	
-0.354614	
-0.35437	
-0.354004	
-0.353638	
-0.354004	
-0.354553	
-0.355042	
-0.355286	
-0.355103	
-0.356689	
-0.354675	
-0.356445	
-0.356018	
-0.35437	
-0.355835	
-0.355896	
-0.356384	
-0.356689	
-0.356628	
-0.356567	
-0.357361	
-0.35614	
-0.357483	
-0.357849	
-0.356201	
-0.357056	
-0.3573	
-0.357849	
-0.358337	
-0.35907	
-0.358521	
-0.358887	
-0.359985	
-0.359131	
-0.359314	
-0.357727	
-0.359192	
-0.358521	
-0.359375	
-0.360107	
-0.361084	
-0.360229	
-0.360901	
-0.362122	
-0.36084	
-0.361511	
-0.360718	
-0.36084	
-0.361084	
-0.360352	
-0.360962	
-0.361511	
-0.360779	
-0.361328	
-0.361389	
-0.360168	
-0.361938	
-0.361816	
-0.360474	
-0.361328	
-0.360718	
-0.360962	
-0.361572	
-0.361572	
-0.360657	
-0.361023	
-0.36145	
-0.359863	
-0.360535	
-0.359619	
-0.359863	
-0.359192	
-0.35968	
-0.360657	
-0.360596	
-0.360107	
-0.360901	
-0.361816	
-0.360657	
-0.362366	
-0.36322	
-0.360962	
-0.363342	
-0.363098	
-0.364441	
-0.364563	
-0.365784	
-0.365234	
-0.365356	
-0.366943	
-0.365295	
-0.365845	
-0.364868	
-0.365845	
-0.365051	
-0.364319	
-0.365601	
-0.365662	
-0.366089	
-0.365601	
-0.365845	
-0.364807	
-0.365906	
-0.366394	
-0.36438	
-0.36499	
-0.364929	
-0.365784	
-0.36554	
-0.366821	
-0.366089	
-0.365967	
-0.36615	
-0.365662	
-0.365967	
-0.36438	
-0.36554	
-0.365784	
-0.365051	
-0.365845	
-0.366272	
-0.365906	
-0.366211	
-0.367126	
-0.364441	
-0.365723	
-0.365051	
-0.364624	
-0.364929	
-0.364075	
-0.364502	
-0.364502	
-0.365295	
-0.364075	
-0.365173	
-0.364258	
-0.363892	
-0.365417	
-0.363159	
-0.363342	
-0.363464	
-0.363647	
-0.363831	
-0.364929	
-0.364807	
-0.365051	
-0.36554	
-0.365051	
-0.365295	
-0.364868	
-0.36499	
-0.365845	
-0.363403	
-0.365662	
-0.365295	
-0.365479	
-0.365173	
-0.365479	
-0.364441	
-0.365723	
-0.36615	
-0.36438	
-0.365417	
-0.364563	
-0.365234	
-0.365417	
-0.36615	
-0.365662	
-0.366516	
-0.366394	
-0.36554	
-0.366028	
-0.364807	
-0.36499	
-0.364746	
-0.364197	
-0.365356	
-0.365479	
-0.365051	
-0.365906	
-0.365723	
-0.36438	
-0.365906	
-0.366211	
-0.365173	
-0.365906	
-0.365601	
-0.366699	
-0.367065	
-0.367798	
-0.367126	
-0.368164	
-0.367798	
-0.367676	
-0.367554	
-0.367065	
-0.367432	
-0.366577	
-0.365662	
-0.367737	
-0.367249	
-0.366821	
-0.367798	
-0.367004	
-0.366089	
-0.366882	
-0.367432	
-0.36554	
-0.366577	
-0.366577	
-0.366577	
-0.366333	
-0.367249	
-0.366455	
-0.36676	
-0.367432	
-0.365845	
-0.365662	
-0.366028	
-0.366455	
-0.365967	
-0.365845	
-0.36676	
-0.367432	
-0.36731	
-0.367554	
-0.367798	
-0.366821	
-0.36853	
-0.368958	
-0.368164	
-0.369141	
-0.369568	
-0.369141	
-0.370422	
-0.370911	
-0.369812	
-0.371277	
-0.371155	
-0.370667	
-0.370239	
-0.370911	
-0.370239	
-0.370544	
-0.37085	
-0.37085	
-0.371826	
-0.371094	
-0.371643	
-0.371704	
-0.370605	
-0.371216	
-0.370728	
-0.370911	
-0.371765	
-0.370239	
-0.370361	
-0.372192	
-0.372437	
-0.37207	
-0.37262	
-0.371826	
-0.371948	
-0.372314	
-0.371399	
-0.371399	
-0.370605	
-0.3703	
-0.370667	
-0.370605	
-0.371521	
-0.371033	
-0.370728	
-0.369446	
-0.370544	
-0.369812	
-0.370361	
-0.369934	
-0.369507	
-0.369263	
-0.370239	
-0.371033	
-0.370728	
-0.370667	
-0.371094	
-0.370911	
-0.371277	
-0.371399	
-0.371521	
-0.371033	
-0.372009	
-0.372742	
-0.373047	
-0.373413	
-0.373962	
-0.374023	
-0.373169	
-0.373474	
-0.373108	
-0.373596	
-0.372742	
-0.373352	
-0.373413	
-0.373657	
-0.374268	
-0.373596	
-0.373535	
-0.373718	
-0.372253	
-0.372803	
-0.373657	
-0.373474	
-0.372803	
-0.373901	
-0.372742	
-0.373657	
-0.375	
-0.375366	
-0.374878	
-0.374207	
-0.374695	
-0.374512	
-0.375122	
-0.374573	
-0.375122	
-0.375	
-0.374939	
-0.374634	
-0.375061	
-0.375305	
-0.375427	
-0.374756	
-0.374207	
-0.373718	
-0.374756	
-0.373474	
-0.374451	
-0.374084	
-0.374573	
-0.375061	
-0.37561	
-0.375488	
-0.374512	
-0.374146	
-0.374878	
-0.375549	
-0.374512	
-0.374573	
-0.374329	
-0.374451	
-0.374817	
-0.375488	
-0.374756	
-0.374634	
-0.374695	
-0.373413	
-0.373352	
-0.375244	
-0.373047	
-0.374023	
-0.374023	
-0.374512	
-0.374329	
-0.375183	
-0.374939	
-0.374573	
-0.37384	
-0.373779	
-0.374512	
-0.373474	
-0.374084	
-0.373779	
-0.372437	
-0.373413	
-0.375122	
-0.373474	
-0.373413	
-0.373718	
-0.373352	
-0.372131	
-0.374268	
-0.37262	
-0.373291	
-0.373413	
-0.373962	
-0.37439	
-0.375	
-0.374939	
-0.37439	
-0.373901	
-0.374268	
-0.37439	
-0.37384	
-0.374512	
-0.374451	
-0.373901	
-0.375366	
-0.376465	
-0.375732	
-0.376648	
-0.37677	
-0.376282	
-0.37616	
-0.37738	
-0.376587	
-0.376831	
-0.376709	
-0.376892	
-0.376892	
-0.377319	
-0.376953	
-0.376038	
-0.374939	
-0.37439	
-0.374695	
-0.373718	
-0.374023	
-0.372925	
-0.37207	
-0.373352	
-0.373901	
-0.373108	
-0.372925	
-0.373047	
-0.373047	
-0.372742	
-0.373474	
-0.372864	
-0.37323	
-0.372986	
-0.373108	
-0.373657	
-0.37439	
-0.374207	
-0.373535	
-0.372131	
-0.373901	
-0.373535	
-0.373108	
-0.37384	
-0.374512	
-0.37323	
-0.373901	
-0.37561	
-0.374451	
-0.375488	
-0.374939	
-0.374634	
-0.374329	
-0.374817	
-0.374329	
-0.37439	
-0.374817	
-0.374023	
-0.375122	
-0.37561	
-0.375916	
-0.375793	
-0.374634	
-0.375793	
-0.376282	
-0.375427	
-0.375916	
-0.377075	
-0.37616	
-0.37738	
-0.378784	
-0.378601	
-0.379395	
-0.378906	
-0.378052	
-0.37854	
-0.379456	
-0.378662	
-0.378723	
-0.377808	
-0.377991	
-0.378174	
-0.3797	
-0.377991	
-0.377991	
-0.377319	
-0.376831	
-0.376343	
-0.376465	
-0.377197	
-0.377136	
-0.377319	
-0.377625	
-0.378479	
-0.377625	
-0.378662	
-0.378296	
-0.376648	
-0.377686	
-0.378052	
-0.378357	
-0.377625	
-0.377869	
-0.377075	
-0.378235	
-0.378845	
-0.378296	
-0.377747	
-0.377075	
-0.378479	
-0.377563	
-0.378662	
-0.378174	
-0.378174	
-0.378723	
-0.379272	
-0.379456	
-0.378601	
-0.379333	
-0.379272	
-0.378113	
-0.378235	
-0.378357	
-0.378174	
-0.377747	
-0.377563	
-0.377319	
-0.377869	
-0.377869	
-0.377991	
-0.377747	
-0.376343	
-0.376953	
-0.377502	
-0.377502	
-0.378174	
-0.377563	
-0.377563	
-0.378052	
-0.378601	
-0.37854	
-0.379395	
-0.379456	
-0.377502	
-0.378479	
-0.378357	
-0.378967	
-0.378967	
-0.379211	
-0.377869	
-0.379639	
-0.380981	
-0.379333	
-0.380066	
-0.379578	
-0.379822	
-0.378662	
-0.380676	
-0.379944	
-0.379211	
-0.378906	
-0.379211	
-0.379272	
-0.378784	
-0.379944	
-0.378601	
-0.377014	
-0.377319	
-0.377258	
-0.376404	
-0.376648	
-0.376892	
-0.375183	
-0.376953	
-0.377625	
-0.377075	
-0.376709	
-0.375671	
-0.376465	
-0.375061	
-0.375732	
-0.376282	
-0.376343	
-0.375854	
-0.37616	
-0.376404	
-0.376221	
-0.376526	
-0.376953	
-0.374756	
-0.375732	
-0.375854	
-0.376099	
-0.376099	
-0.375366	
-0.374939	
-0.37616	
-0.377747	
-0.376709	
-0.377075	
-0.375854	
-0.376831	
-0.376709	
-0.377014	
-0.377197	
-0.377319	
-0.377563	
-0.377502	
-0.378296	
-0.378479	
-0.378967	
-0.379028	
-0.377808	
-0.378723	
-0.378052	
-0.378479	
-0.378418	
-0.378235	
-0.377258	
-0.378418	
-0.379272	
-0.378601	
-0.379089	
-0.377319	
-0.377808	
-0.377441	
-0.377563	
-0.377563	
-0.377136	
-0.377441	
-0.377625	
-0.379028	
-0.37793	
-0.377441	
-0.378052	
-0.375732	
-0.376953	
-0.376709	
-0.376587	
-0.377075	
-0.376892	
-0.376648	
-0.377075	
-0.378113	
-0.377258	
-0.377625	
-0.376038	
-0.377075	
-0.37677	
-0.376709	
-0.377197	
-0.376648	
-0.376343	
-0.376587	
-0.377747	
-0.376648	
-0.376587	
-0.378052	
-0.375732	
-0.376953	
-0.376038	
-0.376404	
-0.376343	
-0.376404	
-0.376221	
-0.377258	
-0.377014	
-0.37677	
-0.377258	
-0.375916	
-0.377014	
-0.376831	
-0.376404	
-0.37677	
-0.377197	
-0.376953	
-0.377441	
-0.378479	
-0.377625	
-0.377075	
-0.378296	
-0.376709	
-0.377136	
-0.377197	
-0.377869	
-0.377808	
-0.377319	
-0.376465	
-0.378479	
-0.378174	
-0.377625	
-0.378357	
-0.377869	
-0.378418	
-0.377686	
-0.37854	
-0.378418	
-0.378723	
-0.378479	
-0.378723	
-0.379578	
-0.379456	
-0.37915	
-0.380005	
-0.378235	
-0.379456	
-0.379333	
-0.3797	
-0.379761	
-0.380005	
-0.37915	
-0.380249	
-0.381042	
-0.380432	
-0.380859	
-0.380066	
-0.380066	
-0.380493	
-0.380615	
-0.380859	
-0.380615	
-0.380188	
-0.380554	
-0.381836	
-0.380737	
-0.380371	
-0.381592	
-0.3797	
-0.380005	
-0.380371	
-0.380737	
-0.379761	
-0.380371	
-0.379395	
-0.379578	
-0.380005	
-0.37915	
-0.378601	
-0.378723	
-0.37854	
-0.378052	
-0.377136	
-0.37854	
-0.37854	
-0.378052	
-0.378174	
-0.379517	
-0.379456	
-0.379761	
-0.381104	
-0.380066	
-0.38092	
-0.381104	
-0.382446	
-0.382202	
-0.382568	
-0.382813	
-0.383179	
-0.384338	
-0.383667	
-0.383484	
-0.384155	
-0.382751	
-0.383789	
-0.38269	
-0.383972	
-0.383423	
-0.383545	
-0.383667	
-0.383911	
-0.384216	
-0.383728	
-0.384827	
-0.381836	
-0.383057	
-0.383057	
-0.382629	
-0.38269	
-0.383484	
-0.383118	
-0.382507	
-0.384399	
-0.382935	
-0.383545	
-0.383911	
-0.383423	
-0.38324	
-0.383423	
-0.383789	
-0.383057	
-0.383301	
-0.383179	
-0.383484	
-0.384033	
-0.383362	
-0.383118	
-0.382019	
-0.382813	
-0.38269	
-0.380737	
-0.382813	
-0.382507	
-0.381409	
-0.380127	
-0.381714	
-0.381409	
-0.380981	
-0.382141	
-0.3797	
-0.380737	
-0.380249	
-0.38092	
-0.381287	
-0.381165	
-0.380249	
-0.381226	
-0.382385	
-0.381653	
-0.382568	
-0.381348	
-0.382202	
-0.382202	
-0.381714	
-0.382568	
-0.381958	
-0.382324	
-0.381897	
-0.382996	
-0.381958	
-0.382141	
-0.382202	
-0.381287	
-0.381958	
-0.381836	
-0.382019	
-0.382019	
-0.382507	
-0.382019	
-0.381348	
-0.382141	
-0.381653	
-0.38208	
-0.381775	
-0.38147	
-0.381531	
-0.380737	
-0.38269	
-0.38147	
-0.38147	
-0.381836	
-0.382385	
-0.382019	
-0.381653	
-0.382629	
-0.381836	
-0.382019	
-0.382202	
-0.382446	
-0.382996	
-0.382568	
-0.383179	
-0.382568	
-0.383362	
-0.383057	
-0.383545	
-0.383484	
-0.381836	
-0.382935	
-0.381714	
-0.383911	
-0.382996	
-0.383362	
-0.383118	
-0.384094	
-0.383667	
-0.38324	
-0.383789	
-0.382446	
-0.382568	
-0.382324	
-0.382446	
-0.382263	
-0.382263	
-0.382141	
-0.381592	
-0.382324	
-0.381592	
-0.381409	
-0.381409	
-0.381042	
-0.381714	
-0.380676	
-0.382629	
-0.382385	
-0.382935	
-0.382996	
-0.383972	
-0.383911	
-0.384338	
-0.384888	
-0.384094	
-0.38446	
-0.384766	
-0.384521	
-0.386169	
-0.385803	
-0.385803	
-0.385559	
-0.385864	
-0.386536	
-0.385681	
-0.385559	
-0.385437	
-0.385925	
-0.384888	
-0.385986	
-0.386536	
-0.386536	
-0.386719	
-0.38678	
-0.387207	
-0.386292	
-0.387573	
-0.386719	
-0.386658	
-0.386536	
-0.386292	
-0.38739	
-0.386963	
-0.387024	
-0.38678	
-0.386841	
-0.387878	
-0.387207	
-0.387512	
-0.386536	
-0.386597	
-0.385681	
-0.386108	
-0.386536	
-0.385986	
-0.385376	
-0.385986	
-0.385376	
-0.385742	
-0.38562	
-0.384827	
-0.384583	
-0.384766	
-0.383972	
-0.385376	
-0.385498	
-0.384949	
-0.384827	
-0.385376	
-0.385803	
-0.386169	
-0.38739	
-0.385925	
-0.385742	
-0.386108	
-0.386841	
-0.388245	
-0.387634	
-0.387512	
-0.387451	
-0.387573	
-0.388794	
-0.388428	
-0.386963	
-0.388062	
-0.387756	
-0.386963	
-0.388428	
-0.388611	
-0.388367	
-0.388184	
-0.388428	
-0.38739	
-0.388367	
-0.388794	
-0.387878	
-0.387817	
-0.386963	
-0.388245	
-0.388672	
-0.388916	
-0.388	
-0.389099	
-0.387878	
-0.38916	
-0.389587	
-0.388184	
-0.389221	
-0.387573	
-0.388855	
-0.389404	
-0.390442	
-0.388916	
-0.389587	
-0.389771	
-0.388794	
-0.389893	
-0.389771	
-0.389648	
-0.389404	
-0.38855	
-0.388	
-0.388611	
-0.389404	
-0.388855	
-0.389771	
-0.388916	
-0.388733	
-0.390198	
-0.389465	
-0.388489	
-0.387756	
-0.387878	
-0.389099	
-0.389404	
-0.389038	
-0.388977	
-0.389404	
-0.387939	
-0.388428	
-0.389282	
-0.388733	
-0.38855	
-0.387207	
-0.387695	
-0.38855	
-0.388855	
-0.388306	
-0.388489	
-0.387939	
-0.388062	
-0.388733	
-0.388123	
-0.387634	
-0.387573	
-0.385742	
-0.387634	
-0.388123	
-0.387817	
-0.38739	
-0.388428	
-0.386719	
-0.38739	
-0.388672	
-0.387268	
-0.386841	
-0.386963	
-0.387329	
-0.387207	
-0.388184	
-0.387634	
-0.387756	
-0.388	
-0.388	
-0.388428	
-0.388855	
-0.387573	
-0.388062	
-0.38678	
-0.387756	
-0.388855	
-0.389587	
-0.389221	
-0.389709	
-0.389893	
-0.390259	
-0.391052	
-0.389771	
-0.390198	
-0.389587	
-0.388977	
-0.39032	
-0.390198	
-0.390259	
-0.389893	
-0.390442	
-0.388245	
-0.388977	
-0.389893	
-0.388123	
-0.387207	
-0.386047	
-0.386414	
-0.38623	
-0.387573	
-0.38623	
-0.386169	
-0.385925	
-0.386047	
-0.386475	
-0.385437	
-0.38562	
-0.38562	
-0.384094	
-0.385925	
-0.386597	
-0.386292	
-0.38623	
-0.387329	
-0.385437	
-0.387268	
-0.388184	
-0.38678	
-0.386414	
-0.386658	
-0.385803	
-0.386536	
-0.38739	
-0.387451	
-0.386841	
-0.387146	
-0.387329	
-0.387146	
-0.387817	
-0.38678	
-0.387024	
-0.38501	
-0.387085	
-0.387817	
-0.387695	
-0.387573	
-0.388	
-0.387573	
-0.388184	
-0.389771	
-0.387329	
-0.388367	
-0.388123	
-0.388916	
-0.389465	
-0.390381	
-0.390198	
-0.390015	
-0.390198	
-0.390503	
-0.391418	
-0.391541	
-0.39032	
-0.390259	
-0.389221	
-0.38916	
-0.39093	
-0.390869	
-0.389893	
-0.390198	
-0.389465	
-0.389282	
-0.390076	
-0.389893	
-0.389221	
-0.388733	
-0.387756	
-0.388977	
-0.389221	
-0.389771	
-0.389709	
-0.390015	
-0.388916	
-0.389526	
-0.390747	
-0.389954	
-0.389099	
-0.387939	
-0.389465	
-0.389771	
-0.390869	
-0.390076	
-0.389526	
-0.390015	
-0.389709	
-0.390991	
-0.390564	
-0.389893	
-0.389709	
-0.389709	
-0.389832	
-0.390381	
-0.390442	
-0.39032	
-0.390564	
-0.390381	
-0.390198	
-0.390198	
-0.390259	
-0.389587	
-0.387939	
-0.389099	
-0.388916	
-0.389648	
-0.388733	
-0.389526	
-0.389221	
-0.388	
-0.390137	
-0.390015	
-0.388794	
-0.388855	
-0.389465	
-0.388672	
-0.389465	
-0.390442	
-0.389893	
-0.389709	
-0.39093	
-0.39093	
-0.39093	
-0.389771	
-0.390381	
-0.389954	
-0.389038	
-0.389282	
-0.391052	
-0.391052	
-0.391052	
-0.391357	
-0.390137	
-0.391541	
-0.392029	
-0.390747	
-0.390869	
-0.389526	
-0.390503	
-0.389771	
-0.390625	
-0.389832	
-0.389404	
-0.389648	
-0.389282	
-0.390076	
-0.38855	
-0.388916	
-0.387817	
-0.387451	
-0.387207	
-0.387939	
-0.387878	
-0.387756	
-0.387756	
-0.386902	
-0.387329	
-0.388306	
-0.387085	
-0.387573	
-0.386414	
-0.386475	
-0.386536	
-0.38739	
-0.386963	
-0.387085	
-0.387634	
-0.386841	
-0.387146	
-0.387695	
-0.387207	
-0.387207	
-0.385986	
-0.387329	
-0.38739	
-0.387512	
-0.387207	
-0.387329	
-0.387085	
-0.387207	
-0.38855	
-0.387146	
-0.387939	
-0.388184	
-0.387512	
-0.388367	
-0.388367	
-0.389709	
-0.389282	
-0.389893	
-0.388428	
-0.389709	
-0.389709	
-0.389465	
-0.389648	
-0.388184	
-0.388794	
-0.389526	
-0.389343	
-0.389221	
-0.389343	
-0.388306	
-0.388855	
-0.388977	
-0.388184	
-0.387939	
-0.388794	
-0.388489	
-0.388733	
-0.389038	
-0.387939	
-0.388123	
-0.388489	
-0.387573	
-0.387512	
-0.388733	
-0.387756	
-0.387695	
-0.388245	
-0.385986	
-0.387512	
-0.388062	
-0.388428	
-0.388062	
-0.388245	
-0.387451	
-0.387329	
-0.388367	
-0.387756	
-0.387146	
-0.386169	
-0.387634	
-0.387512	
-0.386475	
-0.386658	
-0.386902	
-0.385498	
-0.387024	
-0.387939	
-0.387268	
-0.387085	
-0.387207	
-0.38623	
-0.386536	
-0.387512	
-0.385986	
-0.386963	
-0.386963	
-0.387024	
-0.388062	
-0.388611	
-0.387756	
-0.38739	
-0.387695	
-0.387207	
-0.388	
-0.387939	
-0.38739	
-0.387573	
-0.387451	
-0.388062	
-0.388306	
-0.387085	
-0.387268	
-0.387939	
-0.388245	
-0.387756	
-0.388062	
-0.387939	
-0.38855	
-0.388977	
-0.387146	
-0.388123	
-0.389404	
-0.388489	
-0.388306	
-0.388489	
-0.388977	
-0.388855	
-0.389954	
-0.388733	
-0.389343	
-0.38916	
-0.389343	
-0.389709	
-0.389526	
-0.389832	
-0.389648	
-0.389282	
-0.390381	
-0.390137	
-0.389893	
-0.390686	
-0.390991	
-0.389221	
-0.390564	
-0.391113	
-0.389709	
-0.390137	
	
