E:\DOCUMENTS AND SETTINGS\JPOTAS\MEUS DOCUMENTOS\UFRJ\RSCI-BM 12 WK SERIES\070718-RSCI-BM-03\RSCI-BM-03-LEMG\070718-RSCI-BM-03-LEMG-0004.ACQ
0.025000 msec/sample
1 channel
Analog input
Volts
CH1	
2000	
-0.397278	
-0.397644	
-0.396179	
-0.396301	
-0.39563	
-0.395813	
-0.395325	
-0.395264	
-0.395874	
-0.394653	
-0.394653	
-0.395081	
-0.394226	
-0.393616	
-0.394287	
-0.392639	
-0.394348	
-0.393127	
-0.393555	
-0.39325	
-0.394104	
-0.39386	
-0.394348	
-0.395386	
-0.39386	
-0.39386	
-0.39386	
-0.394836	
-0.39502	
-0.39502	
-0.395386	
-0.395203	
-0.395813	
-0.396912	
-0.396118	
-0.396606	
-0.39679	
-0.396484	
-0.396179	
-0.396057	
-0.395508	
-0.396362	
-0.39624	
-0.395996	
-0.396179	
-0.396484	
-0.395447	
-0.395081	
-0.395935	
-0.39502	
-0.394775	
-0.394592	
-0.395081	
-0.395447	
-0.394226	
-0.393372	
-0.393616	
-0.392944	
-0.393738	
-0.393738	
-0.394043	
-0.392639	
-0.393738	
-0.39325	
-0.391968	
-0.391479	
-0.393494	
-0.392578	
-0.391785	
-0.392639	
-0.393372	
-0.393066	
-0.393433	
-0.394043	
-0.393921	
-0.393433	
-0.393188	
-0.393188	
-0.394287	
-0.393311	
-0.392822	
-0.393555	
-0.392883	
-0.393677	
-0.39386	
-0.394409	
-0.394104	
-0.39325	
-0.39325	
-0.393677	
-0.393677	
-0.393311	
-0.39325	
-0.393921	
-0.393494	
-0.395447	
-0.39447	
-0.394714	
-0.395081	
-0.394714	
-0.394775	
-0.395142	
-0.394653	
-0.39624	
-0.395691	
-0.394287	
-0.394958	
-0.395142	
-0.395691	
-0.395752	
-0.396362	
-0.394836	
-0.395508	
-0.39502	
-0.394958	
-0.395813	
-0.395264	
-0.394714	
-0.395325	
-0.394531	
-0.394409	
-0.393372	
-0.393616	
-0.393188	
-0.3927	
-0.3927	
-0.391663	
-0.392212	
-0.392883	
-0.391785	
-0.390381	
-0.391602	
-0.392395	
-0.391235	
-0.391479	
-0.392456	
-0.391785	
-0.392273	
-0.392517	
-0.392151	
-0.393616	
-0.392883	
-0.39325	
-0.392761	
-0.392334	
-0.393433	
-0.392822	
-0.393433	
-0.393066	
-0.393494	
-0.393799	
-0.392761	
-0.393555	
-0.393616	
-0.393982	
-0.392517	
-0.39386	
-0.394653	
-0.393616	
-0.393921	
-0.394653	
-0.39386	
-0.393799	
-0.394287	
-0.394287	
-0.395569	
-0.39447	
-0.394348	
-0.394653	
-0.395691	
-0.394775	
-0.394287	
-0.394775	
-0.393188	
-0.39502	
-0.394958	
-0.394226	
-0.394775	
-0.394592	
-0.394531	
-0.393005	
-0.392822	
-0.392822	
-0.392822	
-0.393555	
-0.393738	
-0.392395	
-0.391724	
-0.390991	
-0.391479	
-0.391296	
-0.390686	
-0.389465	
-0.389954	
-0.391357	
-0.391235	
-0.390564	
-0.214233	
0.132935	
0.00311279	
-0.0316772	
-0.0386353	
-0.0366211	
-0.402283	
-0.528931	
-0.399658	
-0.359192	
-0.342224	
-0.334045	
-0.0767822	
0.191895	
0.0652466	
0.0325928	
0.0262451	
0.02948	
-0.180786	
-0.47522	
-0.336853	
-0.291565	
-0.273743	
-0.266724	
-0.262634	
-0.260193	
-0.258179	
-0.257263	
-0.257568	
-0.25647	
-0.256775	
-0.25531	
-0.255249	
-0.255188	
-0.251282	
-0.255493	
-0.255676	
-0.256226	
-0.256226	
-0.25708	
-0.256775	
-0.257507	
-0.260498	
-0.257751	
-0.257385	
-0.256714	
-0.257935	
-0.258362	
-0.258667	
-0.25946	
-0.260559	
-0.261169	
-0.262024	
-0.265564	
-0.266296	
-0.268005	
-0.270447	
-0.270874	
-0.27771	
-0.280945	
-0.284485	
-0.287537	
-0.289917	
-0.29303	
-0.296692	
-0.300232	
-0.301575	
-0.304749	
-0.308777	
-0.316406	
-0.32196	
-0.328369	
-0.335876	
-0.342712	
-0.347656	
-0.353333	
-0.358704	
-0.359619	
-0.362488	
-0.36499	
-0.365906	
-0.369812	
-0.372192	
-0.373291	
-0.375	
-0.376404	
-0.377686	
-0.378662	
-0.381775	
-0.378845	
-0.378174	
-0.378052	
-0.377869	
-0.378418	
-0.379272	
-0.379578	
-0.380005	
-0.380493	
-0.381592	
-0.382019	
-0.384155	
-0.38269	
-0.383301	
-0.383484	
-0.385742	
-0.388245	
-0.389465	
-0.390564	
-0.392212	
-0.392883	
-0.394409	
-0.395752	
-0.393127	
-0.391907	
-0.390808	
-0.387756	
-0.387756	
-0.385925	
-0.383362	
-0.381287	
-0.379456	
-0.378174	
-0.376892	
-0.374268	
-0.370178	
-0.366516	
-0.36322	
-0.360901	
-0.357849	
-0.354553	
-0.351501	
-0.347839	
-0.343628	
-0.340515	
-0.335449	
-0.330627	
-0.324524	
-0.317078	
-0.313232	
-0.308777	
-0.303162	
-0.297607	
-0.292053	
-0.286804	
-0.281982	
-0.278259	
-0.272583	
-0.267151	
-0.260498	
-0.254883	
-0.252075	
-0.247864	
-0.243042	
-0.238464	
-0.234558	
-0.230286	
-0.225586	
-0.220398	
-0.214294	
-0.209717	
-0.203613	
-0.19751	
-0.1922	
-0.187317	
-0.181274	
-0.176575	
-0.170837	
-0.166077	
-0.161865	
-0.158142	
-0.153992	
-0.150818	
-0.145813	
-0.143005	
-0.141235	
-0.140259	
-0.140503	
-0.141418	
-0.142395	
-0.144409	
-0.148132	
-0.152344	
-0.157166	
-0.161377	
-0.168274	
-0.174072	
-0.179993	
-0.1875	
-0.193542	
-0.199768	
-0.206848	
-0.213013	
-0.219055	
-0.225037	
-0.230774	
-0.235413	
-0.23999	
-0.246704	
-0.251648	
-0.255554	
-0.260864	
-0.265564	
-0.268921	
-0.273926	
-0.276367	
-0.280396	
-0.282349	
-0.2854	
-0.28772	
-0.290161	
-0.292175	
-0.294556	
-0.296265	
-0.298035	
-0.298706	
-0.298523	
-0.302856	
-0.303894	
-0.304626	
-0.304504	
-0.306641	
-0.308594	
-0.309265	
-0.310425	
-0.310303	
-0.310547	
-0.311218	
-0.311829	
-0.311768	
-0.311096	
-0.31073	
-0.310364	
-0.310242	
-0.310181	
-0.309937	
-0.307556	
-0.306335	
-0.305237	
-0.302917	
-0.303345	
-0.302429	
-0.299561	
-0.297729	
-0.296387	
-0.295349	
-0.292297	
-0.291138	
-0.289001	
-0.286499	
-0.285034	
-0.282227	
-0.281433	
-0.279053	
-0.277405	
-0.274231	
-0.272888	
-0.272217	
-0.270325	
-0.268311	
-0.264343	
-0.263916	
-0.261108	
-0.259338	
-0.257996	
-0.256042	
-0.253906	
-0.251892	
-0.251953	
-0.250854	
-0.250122	
-0.250305	
-0.248047	
-0.249084	
-0.249268	
-0.250061	
-0.25061	
-0.251587	
-0.252625	
-0.253784	
-0.255493	
-0.257935	
-0.259399	
-0.261841	
-0.263184	
-0.265564	
-0.266846	
-0.270081	
-0.272095	
-0.273132	
-0.274475	
-0.275635	
-0.276978	
-0.278259	
-0.279053	
-0.280151	
-0.280334	
-0.282043	
-0.283508	
-0.285278	
-0.284973	
-0.285645	
-0.286133	
-0.287048	
-0.288574	
-0.289063	
-0.290588	
-0.289246	
-0.292053	
-0.292603	
-0.293335	
-0.293884	
-0.294067	
-0.294678	
-0.29657	
-0.298279	
-0.296753	
-0.29834	
-0.299255	
-0.299866	
-0.301331	
-0.302856	
-0.303528	
-0.303284	
-0.304565	
-0.305786	
-0.307129	
-0.3078	
-0.307434	
-0.308838	
-0.308167	
-0.309631	
-0.309937	
-0.309631	
-0.310913	
-0.310974	
-0.310181	
-0.31073	
-0.312134	
-0.311951	
-0.312073	
-0.311768	
-0.311218	
-0.31189	
-0.312622	
-0.311523	
-0.311768	
-0.311218	
-0.31189	
-0.3125	
-0.312805	
-0.313477	
-0.313477	
-0.313538	
-0.313171	
-0.31427	
-0.314575	
-0.313843	
-0.314514	
-0.31427	
-0.314575	
-0.315857	
-0.316345	
-0.315918	
-0.31604	
-0.316956	
-0.31604	
-0.317627	
-0.317871	
-0.316223	
-0.317444	
-0.317627	
-0.317566	
-0.31781	
-0.318726	
-0.318604	
-0.317993	
-0.318665	
-0.316284	
-0.31897	
-0.318115	
-0.317932	
-0.316528	
-0.31781	
-0.317871	
-0.318176	
-0.319458	
-0.317566	
-0.31781	
-0.317505	
-0.318359	
-0.317383	
-0.317261	
-0.317261	
-0.316895	
-0.318542	
-0.317932	
-0.318726	
-0.318787	
-0.318909	
-0.31958	
-0.319031	
-0.319702	
-0.318848	
-0.319031	
-0.319824	
-0.320313	
-0.320129	
-0.320496	
-0.322632	
-0.320923	
-0.321289	
-0.321045	
-0.320801	
-0.320618	
-0.319763	
-0.320251	
-0.320862	
-0.32135	
-0.321411	
-0.321899	
-0.322083	
-0.322144	
-0.322388	
-0.32019	
-0.322144	
-0.322266	
-0.321472	
-0.323059	
-0.322693	
-0.323425	
-0.32428	
-0.326294	
-0.325195	
-0.326965	
-0.32605	
-0.327026	
-0.327148	
-0.327087	
-0.327393	
-0.328491	
-0.328918	
-0.329041	
-0.330444	
-0.329224	
-0.330017	
-0.330444	
-0.328552	
-0.3302	
-0.328369	
-0.330627	
-0.331177	
-0.331299	
-0.331238	
-0.331787	
-0.332947	
-0.332336	
-0.333008	
-0.332397	
-0.332458	
-0.332397	
-0.332153	
-0.333191	
-0.333374	
-0.333618	
-0.333679	
-0.335022	
-0.334106	
-0.334412	
-0.334534	
-0.331787	
-0.334229	
-0.333984	
-0.333313	
-0.333923	
-0.333435	
-0.334167	
-0.333557	
-0.334595	
-0.333008	
-0.333496	
-0.332825	
-0.332397	
-0.33197	
-0.332336	
-0.332092	
-0.332092	
-0.332397	
-0.332703	
-0.333191	
-0.334167	
-0.334106	
-0.334106	
-0.334045	
-0.333984	
-0.333191	
-0.334534	
-0.335266	
-0.334961	
-0.335754	
-0.336487	
-0.33783	
-0.337463	
-0.338989	
-0.338074	
-0.33606	
-0.337402	
-0.337891	
-0.338196	
-0.339355	
-0.338989	
-0.338745	
-0.338806	
-0.341003	
-0.340149	
-0.339417	
-0.339722	
-0.338806	
-0.337219	
-0.338135	
-0.338501	
-0.338074	
-0.33844	
-0.338806	
-0.338928	
-0.338623	
-0.3396	
-0.338257	
-0.336792	
-0.337646	
-0.337402	
-0.336731	
-0.338318	
-0.338318	
-0.338074	
-0.338257	
-0.339844	
-0.339539	
-0.339111	
-0.338928	
-0.338623	
-0.338196	
-0.339294	
-0.339417	
-0.339966	
-0.339966	
-0.340271	
-0.340942	
-0.340881	
-0.341858	
-0.341858	
-0.338745	
-0.340332	
-0.341187	
-0.341797	
-0.34137	
-0.341248	
-0.34198	
-0.34198	
-0.342529	
-0.342957	
-0.342346	
-0.341553	
-0.342041	
-0.342651	
-0.341736	
-0.343201	
-0.344116	
-0.344482	
-0.344299	
-0.345154	
-0.345276	
-0.345032	
-0.345703	
-0.344116	
-0.343079	
-0.345154	
-0.346008	
-0.345886	
-0.34613	
-0.346313	
-0.346252	
-0.347229	
-0.347229	
-0.34613	
-0.345398	
-0.345703	
-0.346375	
-0.345825	
-0.346375	
-0.346313	
-0.345337	
-0.345215	
-0.345764	
-0.346436	
-0.34436	
-0.344727	
-0.343201	
-0.342285	
-0.343567	
-0.344238	
-0.344299	
-0.343811	
-0.34491	
-0.344971	
-0.345642	
-0.345886	
-0.345154	
-0.34491	
-0.343933	
-0.346069	
-0.346069	
-0.346497	
-0.346985	
-0.347107	
-0.34729	
-0.347717	
-0.348999	
-0.347656	
-0.3479	
-0.346497	
-0.346924	
-0.347595	
-0.348328	
-0.34845	
-0.348633	
-0.348755	
-0.348572	
-0.349548	
-0.351013	
-0.349182	
-0.348267	
-0.348083	
-0.349854	
-0.350464	
-0.349915	
-0.350403	
-0.350159	
-0.349915	
-0.35083	
-0.352539	
-0.351807	
-0.351501	
-0.350342	
-0.349731	
-0.35083	
-0.350708	
-0.350769	
-0.351196	
-0.351746	
-0.351196	
-0.352295	
-0.351929	
-0.35083	
-0.350159	
-0.348389	
-0.349121	
-0.349243	
-0.34906	
-0.34906	
-0.349121	
-0.348755	
-0.348877	
-0.349365	
-0.349365	
-0.34906	
-0.347656	
-0.348022	
-0.348206	
-0.349548	
-0.349548	
-0.349792	
-0.350403	
-0.350525	
-0.3526	
-0.352661	
-0.353333	
-0.351624	
-0.35199	
-0.351135	
-0.352722	
-0.353455	
-0.35321	
-0.353027	
-0.353271	
-0.354065	
-0.354248	
-0.354614	
-0.353882	
-0.352295	
-0.353638	
-0.35321	
-0.353943	
-0.353394	
-0.353638	
-0.35376	
-0.353577	
-0.355469	
-0.354431	
-0.354309	
-0.353149	
-0.352844	
-0.352173	
-0.353333	
-0.352783	
-0.352844	
-0.353516	
-0.35321	
-0.353027	
-0.35437	
-0.353882	
-0.35376	
-0.351685	
-0.353394	
-0.353027	
-0.354797	
-0.355164	
-0.354797	
-0.354675	
-0.355286	
-0.3573	
-0.356262	
-0.357056	
-0.355103	
-0.354492	
-0.355286	
-0.356018	
-0.355591	
-0.355286	
-0.355591	
-0.355774	
-0.356201	
-0.356812	
-0.356079	
-0.355286	
-0.354126	
-0.355225	
-0.353821	
-0.355835	
-0.356018	
-0.356201	
-0.355652	
-0.355835	
-0.357971	
-0.357422	
-0.358704	
-0.356689	
-0.355591	
-0.357178	
-0.358154	
-0.358887	
-0.358826	
-0.359131	
-0.358765	
-0.359741	
-0.361023	
-0.360474	
-0.360413	
-0.358887	
-0.358337	
-0.358704	
-0.36084	
-0.360291	
-0.360474	
-0.360718	
-0.360291	
-0.360962	
-0.360413	
-0.360535	
-0.359253	
-0.357361	
-0.357727	
-0.357727	
-0.358643	
-0.358276	
-0.358337	
-0.358704	
-0.358459	
-0.360413	
-0.359924	
-0.358948	
-0.358276	
-0.358215	
-0.357849	
-0.358398	
-0.358643	
-0.358765	
-0.359436	
-0.35907	
-0.358765	
-0.358887	
-0.360229	
-0.358887	
-0.357239	
-0.357666	
-0.357605	
-0.359131	
-0.35907	
-0.359253	
-0.359314	
-0.359558	
-0.361511	
-0.361816	
-0.361084	
-0.35968	
-0.35968	
-0.360046	
-0.361267	
-0.361084	
-0.361084	
-0.361267	
-0.361816	
-0.362732	
-0.364624	
-0.364746	
-0.363831	
-0.36261	
-0.363281	
-0.364197	
-0.364868	
-0.365234	
-0.365051	
-0.364563	
-0.365051	
-0.366394	
-0.36615	
-0.365967	
-0.364746	
-0.363586	
-0.363037	
-0.36322	
-0.364075	
-0.364197	
-0.364258	
-0.363159	
-0.363403	
-0.36438	
-0.364807	
-0.363708	
-0.362244	
-0.362671	
-0.362671	
-0.363098	
-0.363342	
-0.363098	
-0.36377	
-0.363831	
-0.365479	
-0.364929	
-0.364502	
-0.364441	
-0.363647	
-0.364136	
-0.364258	
-0.365784	
-0.366028	
-0.365845	
-0.36615	
-0.366455	
-0.367798	
-0.367981	
-0.367676	
-0.366455	
-0.367249	
-0.367126	
-0.367859	
-0.368408	
-0.368469	
-0.368774	
-0.36908	
-0.369751	
-0.368896	
-0.370605	
-0.369507	
-0.368225	
-0.367981	
-0.368286	
-0.368347	
-0.368896	
-0.368347	
-0.368347	
-0.369019	
-0.369873	
-0.368835	
-0.36908	
-0.368591	
-0.368042	
-0.366272	
-0.368103	
-0.369263	
-0.369019	
-0.369385	
-0.369812	
-0.370056	
-0.370422	
-0.371155	
-0.370117	
-0.367798	
-0.369263	
-0.368958	
-0.36853	
-0.368347	
-0.368896	
-0.368408	
-0.368469	
-0.36969	
-0.368835	
-0.368896	
-0.368713	
-0.36792	
-0.367371	
-0.367676	
-0.369263	
-0.369202	
-0.369263	
-0.369385	
-0.369568	
-0.3703	
-0.370361	
-0.370239	
-0.368469	
-0.369629	
-0.369019	
-0.370422	
-0.371338	
-0.372009	
-0.372314	
-0.372192	
-0.373474	
-0.374207	
-0.374756	
-0.373657	
-0.373169	
-0.372925	
-0.373108	
-0.37384	
-0.373901	
-0.373657	
-0.374329	
-0.374451	
-0.375305	
-0.374634	
-0.37384	
-0.37323	
-0.372681	
-0.37207	
-0.37207	
-0.372559	
-0.372986	
-0.373535	
-0.374023	
-0.373474	
-0.374207	
-0.374939	
-0.374084	
-0.371765	
-0.372742	
-0.373718	
-0.373657	
-0.373901	
-0.373779	
-0.373474	
-0.373718	
-0.375	
-0.374634	
-0.37384	
-0.372925	
-0.372314	
-0.371277	
-0.371887	
-0.373291	
-0.37384	
-0.37323	
-0.372986	
-0.373291	
-0.373901	
-0.374939	
-0.374084	
-0.372986	
-0.37262	
-0.37384	
-0.374207	
-0.373901	
-0.374329	
-0.374878	
-0.375305	
-0.375366	
-0.376648	
-0.376404	
-0.376526	
-0.375366	
-0.375793	
-0.376831	
-0.377747	
-0.377563	
-0.378113	
-0.378845	
-0.379089	
-0.380066	
-0.381165	
-0.379822	
-0.378601	
-0.378113	
-0.377747	
-0.378906	
-0.378418	
-0.377991	
-0.37793	
-0.377686	
-0.377197	
-0.377136	
-0.378357	
-0.377258	
-0.375244	
-0.374451	
-0.376099	
-0.376465	
-0.376587	
-0.376038	
-0.37616	
-0.377136	
-0.377258	
-0.377197	
-0.376465	
-0.376526	
-0.376038	
-0.374268	
-0.375916	
-0.377625	
-0.377991	
-0.378052	
-0.378174	
-0.378113	
-0.379517	
-0.381104	
-0.378967	
-0.378723	
-0.378296	
-0.378784	
-0.37915	
-0.379883	
-0.379456	
-0.379456	
-0.379944	
-0.379761	
-0.379944	
-0.38031	
-0.380066	
-0.377747	
-0.376465	
-0.378479	
-0.379028	
-0.37854	
-0.378723	
-0.378357	
-0.378906	
-0.380005	
-0.380615	
-0.379761	
-0.378906	
-0.379089	
-0.378113	
-0.378357	
-0.379211	
-0.379517	
-0.379578	
-0.380066	
-0.379944	
-0.380066	
-0.382019	
-0.380859	
-0.378967	
-0.379822	
-0.380188	
-0.380737	
-0.381042	
-0.381104	
-0.380615	
-0.380188	
-0.380737	
-0.38031	
-0.380432	
-0.3797	
-0.378723	
-0.376099	
-0.378174	
-0.378784	
-0.378296	
-0.37854	
-0.37854	
-0.378296	
-0.378784	
-0.380371	
-0.378296	
-0.377747	
-0.37738	
-0.377319	
-0.37793	
-0.379089	
-0.379639	
-0.379883	
-0.380493	
-0.381226	
-0.381287	
-0.382202	
-0.381592	
-0.381775	
-0.380432	
-0.381714	
-0.380493	
-0.382324	
-0.382629	
-0.382324	
-0.382507	
-0.382874	
-0.382568	
-0.382935	
-0.382813	
-0.382141	
-0.380432	
-0.382324	
-0.382568	
-0.383179	
-0.383301	
-0.382874	
-0.38269	
-0.383301	
-0.385071	
-0.383301	
-0.382874	
-0.382996	
-0.382263	
-0.383545	
-0.384094	
-0.383789	
-0.383972	
-0.383545	
-0.384521	
-0.384277	
-0.384766	
-0.382935	
-0.382996	
-0.38208	
-0.382996	
-0.381592	
-0.382019	
-0.381775	
-0.381287	
-0.381287	
-0.38147	
-0.38208	
-0.381042	
-0.380615	
-0.380005	
-0.379272	
-0.380859	
-0.380432	
-0.380859	
-0.381165	
-0.381165	
-0.381348	
-0.381836	
-0.382385	
-0.382141	
-0.382324	
-0.381287	
-0.379944	
-0.382935	
-0.383179	
-0.383423	
-0.383606	
-0.384399	
-0.385376	
-0.385437	
-0.385681	
-0.384094	
-0.384766	
-0.384033	
-0.384827	
-0.384094	
-0.384216	
-0.384094	
-0.384399	
-0.384277	
-0.384644	
-0.384827	
-0.384705	
-0.383179	
-0.383179	
-0.382446	
-0.382019	
-0.381287	
-0.38269	
-0.382629	
-0.381958	
-0.381775	
-0.38208	
-0.381836	
-0.381836	
-0.382019	
-0.38092	
-0.379395	
-0.381348	
-0.381592	
-0.381348	
-0.381897	
-0.381653	
-0.382202	
-0.383179	
-0.383911	
-0.382141	
-0.382385	
-0.38208	
-0.382629	
-0.382385	
-0.38208	
-0.382446	
-0.38269	
-0.38324	
-0.382813	
-0.38385	
-0.384827	
-0.382263	
-0.382629	
-0.382996	
-0.382813	
-0.381958	
-0.383362	
-0.383118	
-0.383972	
-0.384521	
-0.383667	
-0.384094	
-0.384644	
-0.384766	
-0.383301	
-0.382935	
-0.385132	
-0.383667	
-0.384583	
-0.385376	
-0.385498	
-0.384949	
-0.386169	
-0.386963	
-0.384827	
-0.386047	
-0.385315	
-0.385498	
-0.385498	
-0.385193	
-0.385864	
-0.385315	
-0.386597	
-0.38623	
-0.386353	
-0.386108	
-0.38446	
-0.38446	
-0.383423	
-0.383728	
-0.383301	
-0.382813	
-0.382507	
-0.383545	
-0.38324	
-0.382507	
-0.383118	
-0.382813	
-0.383118	
-0.381531	
-0.380615	
-0.38208	
-0.382019	
-0.383484	
-0.383728	
-0.384033	
-0.384216	
-0.384827	
-0.385559	
-0.38385	
-0.384949	
-0.383301	
-0.383972	
-0.384644	
-0.384155	
-0.384827	
-0.385193	
-0.386292	
-0.38562	
-0.386536	
-0.386597	
-0.385803	
-0.385132	
-0.384949	
-0.385193	
-0.385193	
-0.38446	
-0.385986	
-0.386902	
-0.386475	
-0.386536	
-0.386963	
-0.385986	
-0.386963	
-0.386353	
-0.385376	
-0.386536	
-0.386353	
-0.385925	
-0.386841	
-0.38739	
-0.386597	
-0.387817	
-0.388062	
-0.386963	
-0.385803	
-0.386047	
-0.384888	
-0.385925	
-0.385803	
-0.384644	
-0.38562	
-0.385681	
-0.38446	
-0.38501	
-0.384949	
-0.383301	
-0.382874	
-0.383179	
-0.383301	
-0.383728	
-0.383179	
-0.382751	
-0.383484	
-0.38385	
-0.384705	
-0.385132	
-0.383362	
-0.384583	
-0.383606	
-0.384399	
-0.38562	
-0.38623	
-0.38623	
-0.386902	
-0.387207	
-0.387207	
-0.387756	
-0.387756	
-0.386719	
-0.387268	
-0.386597	
-0.386292	
-0.386841	
-0.387329	
-0.387146	
-0.387207	
-0.387878	
-0.387268	
-0.388306	
-0.388428	
-0.387024	
-0.385803	
-0.386169	
-0.386047	
-0.386292	
-0.385864	
-0.38446	
-0.386169	
-0.386353	
-0.38623	
-0.38623	
-0.385742	
-0.384827	
-0.38446	
-0.384766	
-0.385376	
-0.386047	
-0.385681	
-0.385742	
-0.386963	
-0.387085	
-0.387451	
-0.387756	
-0.386414	
-0.38739	
-0.387207	
-0.386414	
-0.387024	
-0.387024	
-0.387146	
-0.387512	
-0.387573	
-0.387024	
-0.388489	
-0.388245	
-0.386719	
-0.387085	
-0.386597	
-0.38739	
-0.387573	
-0.387268	
-0.386719	
-0.387085	
-0.388	
-0.387146	
-0.387085	
-0.387878	
-0.386353	
-0.386536	
-0.386658	
-0.387939	
-0.388	
-0.388733	
-0.388123	
-0.389282	
-0.390442	
-0.389709	
-0.390015	
-0.389893	
-0.389954	
-0.389282	
-0.389771	
-0.390259	
-0.390442	
-0.39093	
-0.389832	
-0.391174	
-0.391296	
-0.391113	
-0.391235	
-0.388977	
-0.389771	
-0.388489	
-0.388733	
-0.388977	
-0.388672	
-0.388611	
-0.388245	
-0.388306	
-0.388184	
-0.389038	
-0.389038	
-0.38678	
-0.387268	
-0.38739	
-0.388489	
-0.388	
-0.387573	
-0.387939	
-0.387512	
-0.388794	
-0.387939	
-0.388428	
-0.388184	
-0.387146	
-0.387329	
-0.386719	
-0.387268	
-0.387024	
-0.387573	
-0.387085	
-0.388184	
-0.388489	
-0.387878	
-0.388977	
-0.388	
-0.388184	
-0.387329	
-0.38678	
-0.38855	
-0.389099	
-0.388184	
-0.38855	
-0.389709	
-0.389954	
-0.390076	
-0.391907	
-0.389954	
-0.390686	
-0.390686	
-0.391296	
-0.391968	
-0.391663	
-0.391602	
-0.391541	
-0.392822	
-0.392517	
-0.392761	
-0.393677	
-0.390686	
-0.392395	
-0.391357	
-0.392761	
-0.391357	
-0.391663	
-0.390747	
-0.391418	
-0.391541	
-0.390686	
-0.390503	
-0.391235	
-0.389709	
-0.389221	
-0.38739	
-0.389099	
-0.389709	
-0.389954	
-0.389099	
-0.389587	
-0.390198	
-0.389526	
-0.390442	
-0.389526	
-0.389893	
-0.389526	
-0.386658	
-0.390991	
-0.390686	
-0.391052	
-0.390198	
-0.391052	
-0.392395	
-0.392517	
-0.393433	
-0.391907	
-0.392273	
-0.392456	
-0.392456	
-0.393188	
-0.392944	
-0.392944	
-0.392273	
-0.393799	
-0.393555	
-0.394104	
-0.396362	
-0.393311	
-0.393372	
-0.393677	
-0.393677	
-0.393066	
-0.393066	
-0.393127	
-0.392029	
-0.393311	
-0.392944	
-0.393494	
-0.395264	
-0.392334	
-0.392578	
-0.391968	
-0.393799	
-0.393188	
-0.393005	
-0.392883	
-0.392456	
-0.39325	
-0.393921	
-0.393616	
-0.393799	
-0.392578	
-0.392761	
-0.391357	
-0.393372	
-0.392517	
-0.392212	
-0.391724	
-0.392151	
-0.391968	
-0.391785	
-0.392273	
-0.392639	
-0.390808	
-0.391357	
-0.389099	
-0.392334	
-0.391296	
-0.391968	
-0.391602	
-0.391724	
-0.392029	
-0.391663	
-0.392456	
-0.392273	
-0.39093	
-0.391418	
-0.390442	
-0.393738	
-0.39325	
-0.393311	
-0.393799	
-0.394287	
-0.394897	
-0.394714	
-0.396179	
-0.394592	
-0.393677	
-0.395142	
-0.394226	
-0.395935	
-0.39502	
-0.395386	
-0.395569	
-0.395508	
-0.39624	
-0.395813	
-0.396545	
-0.394775	
-0.394165	
-0.393494	
-0.393799	
-0.394714	
-0.394165	
-0.394409	
-0.393677	
-0.394226	
-0.39447	
-0.394348	
-0.396423	
-0.393982	
-0.393799	
-0.393311	
-0.394409	
-0.394592	
-0.394104	
-0.393433	
-0.393188	
-0.393921	
-0.394836	
-0.394104	
-0.394714	
-0.392944	
-0.393433	
-0.391846	
-0.393005	
-0.392334	
-0.392395	
-0.3927	
-0.391907	
-0.393799	
-0.393677	
-0.393066	
-0.393433	
-0.393188	
-0.393005	
-0.392273	
-0.393982	
-0.393799	
-0.394226	
-0.394104	
-0.393616	
-0.394409	
-0.395752	
-0.395691	
-0.396118	
-0.395386	
-0.396301	
-0.39502	
-0.398071	
-0.396973	
-0.39679	
-0.396729	
-0.396973	
-0.3974	
-0.397949	
-0.398743	
-0.398315	
-0.397339	
-0.396057	
-0.394043	
-0.396973	
-0.396057	
-0.395813	
-0.395264	
-0.395264	
-0.394714	
-0.395569	
-0.393982	
-0.394409	
-0.393738	
-0.394104	
-0.392273	
-0.394348	
-0.393921	
-0.394104	
-0.394104	
-0.393677	
-0.393921	
-0.395264	
-0.394897	
-0.394958	
-0.393677	
-0.393616	
-0.393005	
-0.395325	
-0.394897	
-0.395203	
-0.394958	
-0.395508	
-0.396118	
-0.397095	
-0.396912	
-0.396423	
-0.395386	
-0.395508	
-0.394836	
-0.396606	
-0.395874	
-0.396179	
-0.395752	
-0.396118	
-0.395569	
-0.396179	
-0.39624	
-0.395935	
-0.394348	
-0.394043	
-0.393555	
-0.394714	
-0.394348	
-0.394958	
-0.393799	
-0.394531	
-0.394958	
-0.396057	
-0.396606	
-0.395142	
-0.394226	
-0.394531	
-0.394775	
-0.39502	
-0.395691	
-0.395081	
-0.393616	
-0.395569	
-0.395874	
-0.395569	
-0.397278	
-0.396179	
-0.395264	
-0.395081	
-0.395386	
-0.394958	
-0.394775	
-0.394897	
-0.393433	
-0.39447	
-0.394104	
-0.39386	
-0.394958	
-0.394226	
-0.392212	
-0.392456	
-0.392883	
-0.392639	
-0.392517	
-0.391968	
-0.391479	
-0.392212	
-0.392761	
-0.392578	
-0.394104	
-0.393982	
-0.392212	
-0.392456	
-0.394043	
-0.394165	
-0.393982	
-0.394348	
-0.394775	
-0.395264	
-0.395386	
-0.395691	
-0.396729	
-0.396362	
-0.39447	
-0.395508	
-0.395386	
-0.395447	
-0.395935	
-0.395996	
-0.39502	
-0.395081	
-0.395386	
-0.395508	
-0.396423	
-0.396606	
-0.394836	
-0.394958	
-0.39563	
-0.396606	
-0.395996	
-0.39624	
-0.394897	
-0.395874	
-0.396057	
-0.396057	
-0.397156	
-0.395691	
-0.394287	
-0.394775	
-0.396179	
	
