E:\DOCUMENTS AND SETTINGS\JPOTAS\MEUS DOCUMENTOS\UFRJ\RSCI-BM 12 WK SERIES\070718-RSCI-BM-03\RSCI-BM-03-LEMG\070718-RSCI-BM-03-LEMG-0005.ACQ
0.025000 msec/sample
1 channel
Analog input
Volts
CH1	
2000	
-0.394165	
-0.395996	
-0.394226	
-0.39447	
-0.394897	
-0.395142	
-0.395386	
-0.39563	
-0.395447	
-0.394775	
-0.395325	
-0.395996	
-0.394104	
-0.395508	
-0.394836	
-0.394714	
-0.39563	
-0.394653	
-0.395996	
-0.396423	
-0.396057	
-0.396545	
-0.395752	
-0.395569	
-0.39624	
-0.395935	
-0.39624	
-0.393982	
-0.395447	
-0.394836	
-0.395081	
-0.394409	
-0.394043	
-0.395142	
-0.393982	
-0.394165	
-0.394165	
-0.3927	
-0.394836	
-0.393616	
-0.393677	
-0.394287	
-0.393311	
-0.394653	
-0.395081	
-0.394043	
-0.394653	
-0.394531	
-0.395081	
-0.39386	
-0.394592	
-0.394836	
-0.393677	
-0.395874	
-0.39563	
-0.395203	
-0.396057	
-0.395752	
-0.395813	
-0.394836	
-0.39447	
-0.394348	
-0.393311	
-0.394043	
-0.392212	
-0.392639	
-0.392639	
-0.392822	
-0.3927	
-0.391907	
-0.392334	
-0.391541	
-0.391663	
-0.391785	
-0.391968	
-0.391174	
-0.389709	
-0.390869	
-0.391113	
-0.390381	
-0.391174	
-0.39209	
-0.391357	
-0.392883	
-0.391663	
-0.392334	
-0.391479	
-0.391541	
-0.391479	
-0.390686	
-0.391541	
-0.392151	
-0.392395	
-0.392578	
-0.392761	
-0.393066	
-0.393188	
-0.391724	
-0.392273	
-0.391663	
-0.392883	
-0.391785	
-0.393188	
-0.392578	
-0.392883	
-0.393494	
-0.393311	
-0.393311	
-0.394653	
-0.393433	
-0.393494	
-0.393799	
-0.394836	
-0.392639	
-0.394531	
-0.394897	
-0.393555	
-0.394592	
-0.395935	
-0.395691	
-0.396423	
-0.395569	
-0.396912	
-0.396057	
-0.395935	
-0.39624	
-0.395691	
-0.39624	
-0.395813	
-0.396362	
-0.396667	
-0.397034	
-0.396912	
-0.397034	
-0.396057	
-0.396606	
-0.396484	
-0.397461	
-0.394897	
-0.397034	
-0.397156	
-0.396545	
-0.39679	
-0.39624	
-0.396484	
-0.396667	
-0.396179	
-0.397095	
-0.395752	
-0.396912	
-0.395569	
-0.395386	
-0.395203	
-0.396057	
-0.395691	
-0.39624	
-0.395264	
-0.395935	
-0.395569	
-0.396301	
-0.395935	
-0.394897	
-0.394592	
-0.393005	
-0.394592	
-0.393005	
-0.393738	
-0.394348	
-0.394104	
-0.394043	
-0.393616	
-0.3927	
-0.393799	
-0.393433	
-0.393311	
-0.392395	
-0.392334	
-0.392334	
-0.392822	
-0.392883	
-0.393433	
-0.393982	
-0.394165	
-0.393311	
-0.395569	
-0.393982	
-0.393188	
-0.39325	
-0.393677	
-0.393616	
-0.394897	
-0.395325	
-0.395569	
-0.394897	
-0.395569	
-0.395569	
-0.395264	
-0.186951	
0.107727	
-0.0119629	
-0.0446167	
-0.0494385	
-0.0448608	
-0.425171	
-0.516907	
-0.39679	
-0.355347	
-0.340088	
-0.331299	
-0.327576	
-0.325867	
-0.324707	
-0.323547	
-0.0488281	
0.17572	
0.0587158	
0.0275879	
0.0222778	
0.0238037	
-0.399353	
-0.443909	
-0.324219	
-0.286011	
-0.270691	
-0.263245	
-0.26123	
-0.259644	
-0.258057	
-0.256897	
-0.257019	
-0.257324	
-0.25885	
-0.259033	
-0.257202	
-0.257385	
-0.256226	
-0.258789	
-0.25885	
-0.259155	
-0.260132	
-0.260193	
-0.260132	
-0.26062	
-0.26355	
-0.260925	
-0.260376	
-0.260742	
-0.261108	
-0.262695	
-0.264343	
-0.265564	
-0.267761	
-0.270752	
-0.274231	
-0.278687	
-0.281738	
-0.285217	
-0.288635	
-0.290649	
-0.296082	
-0.298828	
-0.301208	
-0.305115	
-0.309204	
-0.313599	
-0.31897	
-0.325745	
-0.331482	
-0.338074	
-0.343811	
-0.352051	
-0.358582	
-0.363647	
-0.367737	
-0.371704	
-0.373962	
-0.378662	
-0.382141	
-0.383118	
-0.38324	
-0.384827	
-0.385681	
-0.388672	
-0.389343	
-0.390686	
-0.391235	
-0.391785	
-0.392517	
-0.392517	
-0.39325	
-0.39209	
-0.391785	
-0.391663	
-0.392273	
-0.393555	
-0.394531	
-0.395264	
-0.395996	
-0.397217	
-0.397583	
-0.400085	
-0.401123	
-0.401123	
-0.402527	
-0.402771	
-0.40509	
-0.405884	
-0.405945	
-0.405884	
-0.40564	
-0.404114	
-0.403687	
-0.402954	
-0.399048	
-0.396912	
-0.393921	
-0.392212	
-0.390808	
-0.387695	
-0.384155	
-0.381531	
-0.379395	
-0.376831	
-0.373535	
-0.369995	
-0.366272	
-0.362549	
-0.357239	
-0.354431	
-0.350342	
-0.34613	
-0.340698	
-0.336487	
-0.332092	
-0.325745	
-0.320801	
-0.312683	
-0.307861	
-0.30127	
-0.294739	
-0.2901	
-0.28479	
-0.279114	
-0.27356	
-0.268555	
-0.26355	
-0.25769	
-0.253601	
-0.247314	
-0.242676	
-0.237427	
-0.231445	
-0.227356	
-0.222595	
-0.21637	
-0.210999	
-0.206238	
-0.200134	
-0.19574	
-0.190491	
-0.184631	
-0.178833	
-0.174316	
-0.168457	
-0.164551	
-0.160645	
-0.156494	
-0.153381	
-0.149292	
-0.146423	
-0.144653	
-0.143433	
-0.141296	
-0.141113	
-0.141479	
-0.143005	
-0.144714	
-0.14856	
-0.152649	
-0.158142	
-0.16217	
-0.166931	
-0.174316	
-0.180054	
-0.185852	
-0.190674	
-0.196716	
-0.203796	
-0.210449	
-0.216614	
-0.222168	
-0.228455	
-0.234436	
-0.239868	
-0.245361	
-0.249939	
-0.253784	
-0.258667	
-0.262939	
-0.267578	
-0.271423	
-0.275085	
-0.278992	
-0.282104	
-0.284607	
-0.286133	
-0.288879	
-0.291504	
-0.293213	
-0.295044	
-0.297119	
-0.299255	
-0.300842	
-0.303345	
-0.303589	
-0.303467	
-0.305786	
-0.305542	
-0.30603	
-0.307251	
-0.307678	
-0.308411	
-0.309265	
-0.31012	
-0.31012	
-0.309753	
-0.309326	
-0.309326	
-0.309082	
-0.307861	
-0.307251	
-0.306091	
-0.305237	
-0.30426	
-0.302673	
-0.300598	
-0.299561	
-0.298218	
-0.294739	
-0.292969	
-0.2901	
-0.286804	
-0.284485	
-0.28302	
-0.280273	
-0.277893	
-0.276245	
-0.272461	
-0.270264	
-0.268738	
-0.265564	
-0.26239	
-0.259033	
-0.256592	
-0.255005	
-0.251892	
-0.247986	
-0.246399	
-0.24353	
-0.241089	
-0.240662	
-0.238342	
-0.235718	
-0.235229	
-0.232178	
-0.232727	
-0.232178	
-0.232239	
-0.232239	
-0.233521	
-0.233337	
-0.234863	
-0.237	
-0.237366	
-0.240479	
-0.243286	
-0.245789	
-0.249329	
-0.251953	
-0.254517	
-0.258057	
-0.26239	
-0.264648	
-0.266235	
-0.27002	
-0.27124	
-0.273132	
-0.27533	
-0.276978	
-0.27887	
-0.280701	
-0.282959	
-0.284241	
-0.285706	
-0.287231	
-0.289368	
-0.289551	
-0.29126	
-0.293579	
-0.293701	
-0.295349	
-0.296448	
-0.297913	
-0.298889	
-0.300415	
-0.300476	
-0.300903	
-0.302185	
-0.301941	
-0.303711	
-0.303162	
-0.30365	
-0.303894	
-0.30481	
-0.304932	
-0.305359	
-0.306152	
-0.305359	
-0.307068	
-0.30719	
-0.308105	
-0.307312	
-0.3078	
-0.308594	
-0.308411	
-0.308777	
-0.309509	
-0.309082	
-0.308289	
-0.310425	
-0.310669	
-0.309509	
-0.31012	
-0.310059	
-0.309998	
-0.311279	
-0.311707	
-0.311584	
-0.312073	
-0.312805	
-0.312073	
-0.312927	
-0.314026	
-0.312805	
-0.312683	
-0.312866	
-0.31366	
-0.314453	
-0.31366	
-0.31427	
-0.313904	
-0.313416	
-0.313354	
-0.313721	
-0.313538	
-0.313538	
-0.311951	
-0.312317	
-0.313721	
-0.314026	
-0.313721	
-0.313721	
-0.313599	
-0.314575	
-0.314209	
-0.314392	
-0.313293	
-0.314636	
-0.313843	
-0.313232	
-0.314575	
-0.315063	
-0.314819	
-0.315002	
-0.315125	
-0.315796	
-0.317261	
-0.316589	
-0.315125	
-0.31543	
-0.315247	
-0.317017	
-0.317444	
-0.316833	
-0.316772	
-0.316162	
-0.317993	
-0.318176	
-0.31897	
-0.317139	
-0.317139	
-0.316956	
-0.318237	
-0.31842	
-0.317627	
-0.317749	
-0.317505	
-0.317993	
-0.318848	
-0.319458	
-0.318298	
-0.317627	
-0.3172	
-0.319031	
-0.319885	
-0.319519	
-0.319031	
-0.319641	
-0.319214	
-0.320435	
-0.32074	
-0.320313	
-0.321167	
-0.320801	
-0.319336	
-0.320923	
-0.322144	
-0.322571	
-0.322021	
-0.321533	
-0.32312	
-0.324158	
-0.323364	
-0.323242	
-0.323181	
-0.322327	
-0.324097	
-0.325134	
-0.324646	
-0.324829	
-0.324951	
-0.325134	
-0.32666	
-0.327576	
-0.325623	
-0.325745	
-0.325867	
-0.327332	
-0.327332	
-0.327698	
-0.328247	
-0.328918	
-0.327942	
-0.329956	
-0.33075	
-0.329651	
-0.330139	
-0.329895	
-0.330078	
-0.331116	
-0.33197	
-0.33136	
-0.332458	
-0.333374	
-0.334106	
-0.333984	
-0.334106	
-0.332397	
-0.332275	
-0.331909	
-0.333069	
-0.333618	
-0.333862	
-0.333435	
-0.33313	
-0.333313	
-0.334473	
-0.334595	
-0.333679	
-0.333069	
-0.332947	
-0.333496	
-0.334778	
-0.334595	
-0.334717	
-0.334717	
-0.335388	
-0.336487	
-0.336731	
-0.337219	
-0.336426	
-0.335754	
-0.336365	
-0.33728	
-0.33783	
-0.337402	
-0.337891	
-0.338135	
-0.338562	
-0.34021	
-0.339294	
-0.339417	
-0.338074	
-0.337646	
-0.338806	
-0.338928	
-0.338745	
-0.338684	
-0.338806	
-0.338074	
-0.339111	
-0.3396	
-0.339355	
-0.338257	
-0.336487	
-0.337463	
-0.337952	
-0.338806	
-0.338806	
-0.338623	
-0.338501	
-0.33844	
-0.34082	
-0.33905	
-0.338806	
-0.338623	
-0.338867	
-0.338196	
-0.340027	
-0.340454	
-0.339722	
-0.339844	
-0.339966	
-0.341858	
-0.340515	
-0.340759	
-0.339722	
-0.337646	
-0.339417	
-0.338867	
-0.339478	
-0.33905	
-0.338684	
-0.338379	
-0.338806	
-0.339783	
-0.338562	
-0.338318	
-0.336365	
-0.33844	
-0.33844	
-0.338379	
-0.338135	
-0.338196	
-0.338501	
-0.337524	
-0.34082	
-0.338928	
-0.339844	
-0.33905	
-0.338806	
-0.33905	
-0.339844	
-0.340637	
-0.340088	
-0.339844	
-0.340027	
-0.341675	
-0.340881	
-0.341309	
-0.340393	
-0.339844	
-0.341187	
-0.342041	
-0.342773	
-0.342529	
-0.342407	
-0.34259	
-0.343384	
-0.344238	
-0.343384	
-0.342957	
-0.342224	
-0.343689	
-0.343567	
-0.344421	
-0.344238	
-0.344604	
-0.344971	
-0.344666	
-0.347534	
-0.346252	
-0.346313	
-0.345276	
-0.346741	
-0.34668	
-0.347046	
-0.347839	
-0.348083	
-0.347839	
-0.348145	
-0.349365	
-0.350403	
-0.349854	
-0.349487	
-0.34729	
-0.348938	
-0.348206	
-0.349609	
-0.349915	
-0.349731	
-0.350037	
-0.349915	
-0.352173	
-0.350708	
-0.351868	
-0.350647	
-0.34967	
-0.350708	
-0.350769	
-0.351807	
-0.350647	
-0.350464	
-0.350403	
-0.35144	
-0.351929	
-0.350769	
-0.35144	
-0.349548	
-0.351074	
-0.350403	
-0.35083	
-0.351563	
-0.351013	
-0.35083	
-0.351624	
-0.352905	
-0.350891	
-0.351074	
-0.350891	
-0.349792	
-0.350403	
-0.349792	
-0.351135	
-0.35083	
-0.350159	
-0.350037	
-0.350098	
-0.351807	
-0.35022	
-0.350464	
-0.348572	
-0.34967	
-0.350037	
-0.350342	
-0.35144	
-0.351257	
-0.351929	
-0.350647	
-0.352722	
-0.351379	
-0.351868	
-0.351257	
-0.350891	
-0.352112	
-0.351868	
-0.353394	
-0.353394	
-0.353455	
-0.354065	
-0.353577	
-0.355286	
-0.354126	
-0.354492	
-0.352722	
-0.353516	
-0.353699	
-0.354187	
-0.354065	
-0.353149	
-0.352356	
-0.352173	
-0.353333	
-0.35199	
-0.3526	
-0.350891	
-0.349915	
-0.35144	
-0.351135	
-0.351501	
-0.351563	
-0.350891	
-0.351318	
-0.351807	
-0.353333	
-0.352051	
-0.351563	
-0.351807	
-0.352478	
-0.351257	
-0.352356	
-0.353882	
-0.353088	
-0.352661	
-0.353271	
-0.354614	
-0.354126	
-0.354797	
-0.353149	
-0.353394	
-0.354675	
-0.35553	
-0.356201	
-0.355591	
-0.355408	
-0.355774	
-0.355896	
-0.357239	
-0.356262	
-0.355957	
-0.355408	
-0.357239	
-0.356262	
-0.356567	
-0.357727	
-0.357666	
-0.357483	
-0.35791	
-0.359131	
-0.358215	
-0.358765	
-0.357666	
-0.357666	
-0.359192	
-0.360107	
-0.360413	
-0.360535	
-0.361084	
-0.361816	
-0.362122	
-0.362305	
-0.361389	
-0.361938	
-0.361389	
-0.361755	
-0.361206	
-0.362061	
-0.362122	
-0.361206	
-0.362	
-0.362793	
-0.362854	
-0.363037	
-0.362976	
-0.361389	
-0.362305	
-0.362122	
-0.362793	
-0.36261	
-0.363464	
-0.363342	
-0.363342	
-0.363831	
-0.363586	
-0.363525	
-0.363037	
-0.362366	
-0.363098	
-0.362671	
-0.363281	
-0.364197	
-0.364014	
-0.363953	
-0.364258	
-0.36377	
-0.364624	
-0.36438	
-0.362244	
-0.363403	
-0.363342	
-0.363525	
-0.363281	
-0.364075	
-0.362976	
-0.36261	
-0.362976	
-0.362549	
-0.362854	
-0.361633	
-0.360657	
-0.361267	
-0.361206	
-0.362366	
-0.362427	
-0.36145	
-0.360901	
-0.361389	
-0.360962	
-0.361633	
-0.361816	
-0.360718	
-0.360962	
-0.36145	
-0.361816	
-0.361877	
-0.362976	
-0.361938	
-0.362915	
-0.363708	
-0.362183	
-0.362976	
-0.362549	
-0.362549	
-0.362671	
-0.362	
-0.363525	
-0.36377	
-0.363586	
-0.363586	
-0.364319	
-0.363953	
-0.364136	
-0.364441	
-0.363098	
-0.363342	
-0.363464	
-0.363647	
-0.363647	
-0.364563	
-0.363403	
-0.363403	
-0.364197	
-0.363464	
-0.364319	
-0.362854	
-0.362671	
-0.36322	
-0.363586	
-0.364136	
-0.364441	
-0.364624	
-0.365479	
-0.365662	
-0.365356	
-0.366516	
-0.36676	
-0.365234	
-0.365723	
-0.364929	
-0.367188	
-0.367371	
-0.367432	
-0.366821	
-0.367249	
-0.368286	
-0.36731	
-0.368408	
-0.366577	
-0.366516	
-0.367004	
-0.366638	
-0.367126	
-0.367065	
-0.36676	
-0.366882	
-0.366699	
-0.365967	
-0.366394	
-0.367859	
-0.365784	
-0.367554	
-0.366821	
-0.368103	
-0.36908	
-0.369995	
-0.369141	
-0.369324	
-0.371338	
-0.370483	
-0.371277	
-0.370117	
-0.370239	
-0.370972	
-0.370239	
-0.371521	
-0.372192	
-0.372314	
-0.372009	
-0.372131	
-0.372314	
-0.372375	
-0.373352	
-0.369568	
-0.37207	
-0.372192	
-0.371826	
-0.371765	
-0.372681	
-0.371948	
-0.371826	
-0.372681	
-0.371948	
-0.372009	
-0.371643	
-0.371155	
-0.37146	
-0.369446	
-0.372131	
-0.372009	
-0.37146	
-0.371643	
-0.371704	
-0.371643	
-0.372009	
-0.372864	
-0.370239	
-0.371338	
-0.371094	
-0.371277	
-0.370972	
-0.371643	
-0.371033	
-0.371033	
-0.371826	
-0.370911	
-0.371399	
-0.371948	
-0.370728	
-0.370605	
-0.369934	
-0.371155	
-0.370728	
-0.3703	
-0.369812	
-0.369629	
-0.370483	
-0.369995	
-0.369934	
-0.36908	
-0.369934	
-0.369446	
-0.36853	
-0.369507	
-0.369995	
-0.370117	
-0.369812	
-0.369812	
-0.369263	
-0.370178	
-0.370605	
-0.369507	
-0.369751	
-0.369263	
-0.369812	
-0.370422	
-0.371216	
-0.370605	
-0.371094	
-0.3703	
-0.371216	
-0.372009	
-0.370605	
-0.371582	
-0.371643	
-0.371521	
-0.372192	
-0.372742	
-0.371887	
-0.372192	
-0.373108	
-0.372314	
-0.372681	
-0.372925	
-0.372192	
-0.372803	
-0.37262	
-0.372314	
-0.373596	
-0.374329	
-0.374512	
-0.375305	
-0.375061	
-0.374878	
-0.375	
-0.374939	
-0.375671	
-0.375549	
-0.374939	
-0.375732	
-0.376648	
-0.37616	
-0.376099	
-0.376648	
-0.37561	
-0.375732	
-0.375671	
-0.375916	
-0.375549	
-0.375549	
-0.37439	
-0.374939	
-0.374939	
-0.374512	
-0.37439	
-0.374756	
-0.374817	
-0.374939	
-0.373657	
-0.37439	
-0.375061	
-0.374329	
-0.375	
-0.37738	
-0.377014	
-0.377197	
-0.378235	
-0.377686	
-0.378296	
-0.379028	
-0.378967	
-0.378235	
-0.379028	
-0.379395	
-0.379333	
-0.380249	
-0.380005	
-0.380188	
-0.379944	
-0.380127	
-0.379822	
-0.379028	
-0.380066	
-0.379211	
-0.378906	
-0.379333	
-0.380249	
-0.379272	
-0.379211	
-0.380005	
-0.378845	
-0.379211	
-0.378479	
-0.378601	
-0.378662	
-0.377747	
-0.377747	
-0.377441	
-0.378845	
-0.377991	
-0.378357	
-0.379089	
-0.37854	
-0.378845	
-0.378418	
-0.378845	
-0.378418	
-0.377625	
-0.377747	
-0.378296	
-0.377991	
-0.377808	
-0.37793	
-0.377502	
-0.377502	
-0.37793	
-0.376465	
-0.378052	
-0.376831	
-0.376465	
-0.376343	
-0.376709	
-0.376221	
-0.376465	
-0.377136	
-0.375671	
-0.376343	
-0.376221	
-0.376099	
-0.37561	
-0.375732	
-0.375977	
-0.375977	
-0.375854	
-0.376038	
-0.376282	
-0.374939	
-0.375671	
-0.376587	
-0.37561	
-0.377136	
-0.376282	
-0.376038	
-0.375854	
-0.377014	
-0.376404	
-0.376587	
-0.377808	
-0.377014	
-0.376709	
-0.377136	
-0.377197	
-0.376953	
-0.376526	
-0.37561	
-0.375671	
-0.377625	
-0.376831	
-0.377563	
-0.37677	
-0.377502	
-0.377625	
-0.377075	
-0.378723	
-0.378418	
-0.37854	
-0.378784	
-0.380005	
-0.379578	
-0.380066	
-0.381592	
-0.380127	
-0.380981	
-0.381165	
-0.382263	
-0.38147	
-0.381226	
-0.381592	
-0.381775	
-0.383057	
-0.383423	
-0.382996	
-0.382629	
-0.383118	
-0.383057	
-0.38147	
-0.383789	
-0.38208	
-0.381958	
-0.381653	
-0.382385	
-0.382202	
-0.38269	
-0.383789	
-0.382629	
-0.382141	
-0.381897	
-0.382507	
-0.38324	
-0.382446	
-0.382568	
-0.382019	
-0.383057	
-0.382751	
-0.382507	
-0.382874	
-0.382263	
-0.38269	
-0.381836	
-0.384521	
-0.383606	
-0.38324	
-0.38324	
-0.383667	
-0.383789	
-0.384155	
-0.385376	
-0.383362	
-0.384277	
-0.383545	
-0.384277	
-0.384888	
-0.384705	
-0.383606	
-0.382996	
-0.382996	
-0.383118	
-0.383423	
-0.383667	
-0.382568	
-0.382385	
-0.381531	
-0.382629	
-0.383118	
-0.382324	
-0.382996	
-0.382629	
-0.384521	
-0.383728	
-0.384094	
-0.383484	
-0.384277	
-0.383484	
-0.382263	
-0.384949	
-0.384583	
-0.384338	
-0.384277	
-0.384644	
-0.385071	
-0.385498	
-0.385986	
-0.383667	
-0.384949	
-0.383301	
-0.383911	
-0.384521	
-0.383362	
-0.382813	
-0.38269	
-0.383423	
-0.382874	
-0.383362	
-0.383301	
-0.382263	
-0.38208	
-0.382141	
-0.38208	
-0.38269	
-0.38147	
-0.381042	
-0.381226	
-0.382507	
-0.38147	
-0.382507	
-0.382629	
-0.38208	
-0.381897	
-0.381592	
-0.38324	
-0.382935	
-0.382568	
-0.382446	
-0.382324	
-0.382935	
-0.383179	
-0.383179	
-0.381836	
-0.383301	
-0.383789	
-0.383118	
-0.384338	
-0.383789	
-0.384033	
-0.382629	
-0.385071	
-0.384399	
-0.384216	
-0.38501	
-0.385193	
-0.384521	
-0.384827	
-0.385681	
-0.385681	
-0.385437	
-0.385193	
-0.384888	
-0.386902	
-0.386169	
-0.385803	
-0.386902	
-0.38623	
-0.385498	
-0.386536	
-0.387756	
-0.387634	
-0.388489	
-0.387573	
-0.38739	
-0.388916	
-0.389587	
-0.388428	
-0.388123	
-0.388916	
-0.388733	
-0.388794	
-0.389709	
-0.389099	
-0.388794	
-0.388123	
-0.39032	
-0.389587	
-0.390198	
-0.388977	
-0.389465	
-0.389099	
-0.389343	
-0.389526	
-0.389465	
-0.388916	
-0.389282	
-0.388977	
-0.389648	
-0.389282	
-0.388672	
-0.388611	
-0.388245	
-0.387573	
-0.388916	
-0.389771	
-0.388733	
-0.389526	
-0.388184	
-0.38855	
-0.388428	
-0.389404	
-0.388794	
-0.389221	
-0.387939	
-0.387756	
-0.388367	
-0.388245	
-0.387512	
-0.386719	
-0.385437	
-0.387695	
-0.387085	
-0.387024	
-0.386414	
-0.386841	
-0.386597	
-0.387146	
-0.387451	
-0.387939	
-0.386841	
-0.386597	
-0.386841	
-0.388123	
-0.387817	
-0.387939	
-0.387817	
-0.38855	
-0.387329	
-0.388123	
-0.389954	
-0.389526	
-0.389404	
-0.388977	
-0.389343	
-0.389709	
-0.39032	
-0.389282	
-0.389465	
-0.389526	
-0.389282	
-0.389038	
-0.388123	
-0.387573	
-0.387451	
-0.38562	
-0.387268	
-0.387024	
-0.386963	
-0.386902	
-0.385559	
-0.385498	
-0.386169	
-0.385986	
-0.385376	
-0.385437	
-0.38562	
-0.385376	
-0.386902	
-0.385803	
-0.386719	
-0.38623	
-0.385925	
-0.385315	
-0.38678	
-0.387512	
-0.386108	
-0.386963	
-0.386963	
-0.388062	
-0.38855	
-0.388672	
-0.388123	
-0.388977	
-0.388367	
-0.388611	
-0.389038	
-0.38916	
-0.388733	
-0.388489	
-0.387207	
-0.38916	
-0.389832	
-0.390442	
-0.390015	
-0.388916	
-0.389282	
-0.390015	
-0.390137	
-0.390015	
-0.39032	
-0.389832	
-0.389771	
-0.391052	
-0.390808	
-0.390442	
-0.391663	
-0.39093	
-0.391602	
-0.392517	
-0.39386	
-0.393738	
-0.393738	
-0.392273	
-0.393372	
-0.394409	
-0.39447	
-0.393311	
-0.394653	
-0.393127	
-0.393372	
-0.393738	
-0.394226	
-0.393982	
-0.393188	
-0.392456	
-0.393372	
-0.39447	
-0.393555	
-0.393799	
-0.393738	
-0.392822	
-0.39386	
-0.393494	
-0.394592	
-0.39386	
-0.393616	
-0.39325	
-0.394409	
-0.395325	
-0.394348	
-0.394958	
-0.393921	
-0.393555	
-0.39447	
-0.394775	
-0.393738	
-0.394165	
-0.39386	
-0.3927	
-0.39386	
-0.394958	
-0.393555	
-0.393799	
-0.392212	
-0.392639	
-0.393127	
-0.393066	
-0.391846	
-0.39209	
-0.390808	
-0.390381	
-0.391174	
-0.391724	
-0.391602	
-0.391541	
-0.389832	
-0.390625	
-0.390503	
-0.391663	
-0.390198	
-0.389954	
-0.389709	
-0.389648	
-0.390747	
-0.390686	
-0.391418	
-0.390381	
-0.388794	
-0.390747	
-0.390991	
-0.391846	
-0.390747	
-0.390991	
-0.391602	
-0.391541	
-0.3927	
-0.391357	
-0.392212	
-0.391113	
-0.390991	
-0.391479	
-0.391724	
-0.392578	
-0.391357	
-0.390442	
-0.390991	
-0.391357	
-0.392517	
-0.391113	
-0.391663	
-0.391113	
-0.390747	
-0.391113	
-0.39093	
-0.390747	
-0.390686	
-0.390747	
-0.389954	
-0.39093	
-0.391663	
-0.391479	
-0.390808	
-0.390503	
-0.391907	
-0.391785	
-0.392456	
-0.392334	
-0.392151	
-0.392578	
-0.391479	
-0.393799	
-0.393799	
-0.393188	
-0.393005	
-0.392334	
-0.392944	
-0.392822	
-0.394043	
-0.392822	
-0.392517	
-0.392883	
-0.392395	
-0.394226	
-0.393372	
-0.393372	
-0.391602	
-0.391663	
-0.392212	
-0.391296	
-0.391663	
-0.391663	
-0.390625	
-0.392639	
-0.392578	
-0.393677	
-0.394104	
-0.393921	
-0.393372	
-0.39325	
-0.394287	
-0.395142	
-0.395508	
-0.393738	
-0.394775	
-0.395386	
-0.395447	
-0.395813	
-0.39624	
-0.396484	
-0.394714	
-0.394592	
-0.396057	
-0.396667	
-0.395935	
-0.395264	
-0.395813	
-0.39563	
-0.396118	
-0.396057	
-0.396729	
-0.394958	
-0.395264	
-0.395081	
-0.396301	
-0.395752	
-0.396362	
-0.394836	
-0.394958	
-0.395203	
-0.39624	
-0.395813	
-0.395447	
-0.394897	
-0.394653	
-0.394836	
-0.395569	
-0.394836	
-0.394104	
-0.393738	
-0.394287	
-0.393799	
-0.394043	
-0.394958	
-0.393494	
-0.393555	
-0.394043	
-0.392822	
-0.393005	
-0.393677	
-0.393616	
-0.392273	
-0.392944	
-0.393127	
-0.39325	
-0.394531	
-0.391968	
-0.391541	
-0.391663	
-0.392212	
-0.391357	
-0.391235	
-0.391541	
-0.390747	
-0.391357	
-0.391052	
-0.391968	
-0.392212	
-0.391357	
-0.389526	
-0.390015	
-0.391479	
-0.390381	
-0.391296	
-0.39093	
-0.390625	
-0.391052	
-0.391052	
-0.392273	
-0.392151	
-0.391357	
-0.39093	
-0.390747	
-0.393494	
-0.392395	
-0.392578	
-0.39209	
-0.392456	
-0.392456	
-0.391663	
-0.394287	
-0.392578	
-0.392944	
-0.392334	
-0.39325	
-0.393555	
-0.392761	
-0.393127	
-0.392761	
-0.393555	
-0.394104	
-0.394104	
-0.396118	
-0.394714	
-0.39447	
-0.394165	
-0.395081	
-0.39563	
-0.395447	
-0.395447	
-0.394348	
-0.395752	
-0.395752	
-0.395447	
-0.396118	
-0.395325	
-0.395203	
-0.394104	
-0.394836	
-0.394775	
-0.394714	
-0.394836	
-0.393677	
-0.394531	
-0.394348	
-0.393677	
-0.393799	
-0.393799	
-0.393005	
-0.391846	
-0.393616	
-0.39386	
-0.394226	
-0.394531	
-0.393738	
-0.394897	
-0.395874	
-0.395203	
-0.39563	
-0.39563	
-0.395447	
-0.395203	
-0.397339	
-0.396851	
-0.397827	
-0.398193	
-0.397461	
-0.39801	
-0.398315	
-0.39856	
-0.397766	
-0.397949	
-0.39624	
-0.396057	
-0.398193	
-0.3974	
-0.397705	
-0.397644	
-0.397339	
-0.396912	
-0.397522	
-0.397217	
-0.396423	
-0.395874	
-0.396179	
-0.39502	
-0.396667	
-0.39563	
-0.395752	
-0.396179	
-0.395386	
-0.39563	
-0.396057	
-0.396057	
-0.395569	
-0.394836	
-0.394043	
-0.393799	
-0.395813	
-0.394226	
-0.394226	
-0.395386	
-0.39447	
-0.39447	
-0.394043	
-0.395081	
-0.394592	
-0.392883	
-0.393677	
-0.392822	
-0.394348	
-0.393188	
-0.392578	
-0.393127	
-0.392944	
-0.393127	
-0.391968	
-0.392761	
-0.391541	
-0.391174	
-0.390625	
-0.390686	
-0.392578	
-0.391785	
-0.391968	
-0.392151	
-0.391663	
-0.392822	
-0.391907	
-0.392517	
-0.391602	
-0.391785	
-0.390869	
-0.391479	
-0.392029	
-0.391602	
-0.391235	
-0.392273	
-0.392212	
-0.3927	
-0.391357	
-0.392822	
-0.391663	
-0.391418	
-0.390076	
-0.391724	
-0.392578	
-0.391846	
-0.391724	
-0.391724	
-0.39209	
-0.392151	
-0.39209	
-0.391907	
-0.391296	
-0.391968	
-0.391296	
-0.392578	
-0.393799	
-0.393616	
-0.393494	
-0.393494	
-0.394226	
-0.394531	
-0.39502	
-0.395264	
-0.394043	
-0.394714	
-0.39502	
-0.395569	
-0.396851	
-0.396423	
-0.39624	
-0.396118	
-0.397034	
-0.397217	
-0.397156	
-0.396667	
-0.394958	
-0.395325	
-0.395264	
-0.396118	
-0.396973	
-0.396057	
-0.395508	
-0.395264	
-0.395508	
	
