E:\DOCUMENTS AND SETTINGS\JPOTAS\MEUS DOCUMENTOS\UFRJ\RSCI-BM 12 WK SERIES\070718-RSCI-BM-03\RSCI-BM-03-LEMG\070718-RSCI-BM-03-LEMG-0016.ACQ
0.025000 msec/sample
1 channel
Analog input
Volts
CH1	
2000	
-0.392212	
-0.393188	
-0.392822	
-0.393005	
-0.394104	
-0.39502	
-0.395203	
-0.394409	
-0.39502	
-0.395325	
-0.392944	
-0.395691	
-0.395081	
-0.395569	
-0.395935	
-0.396729	
-0.396545	
-0.397034	
-0.397217	
-0.396057	
-0.395935	
-0.395752	
-0.393921	
-0.395874	
-0.394775	
-0.396484	
-0.395691	
-0.395264	
-0.395691	
-0.395691	
-0.396057	
-0.395386	
-0.395386	
-0.394104	
-0.393005	
-0.39447	
-0.393188	
-0.395081	
-0.394043	
-0.394653	
-0.395203	
-0.394958	
-0.395081	
-0.394897	
-0.394714	
-0.39325	
-0.392151	
-0.394287	
-0.392212	
-0.39386	
-0.393372	
-0.393677	
-0.393311	
-0.393311	
-0.393738	
-0.393311	
-0.393066	
-0.391235	
-0.390686	
-0.392029	
-0.390259	
-0.392151	
-0.392029	
-0.391846	
-0.392395	
-0.392456	
-0.392517	
-0.392212	
-0.392761	
-0.391907	
-0.39032	
-0.392151	
-0.39093	
-0.3927	
-0.393311	
-0.393188	
-0.393616	
-0.39386	
-0.394836	
-0.394043	
-0.394836	
-0.393677	
-0.392761	
-0.39447	
-0.392761	
-0.394836	
-0.394287	
-0.394897	
-0.394714	
-0.393433	
-0.394043	
-0.393982	
-0.393921	
-0.391968	
-0.391174	
-0.391785	
-0.390259	
-0.391724	
-0.391541	
-0.390747	
-0.390869	
-0.391357	
-0.391541	
-0.390747	
-0.391113	
-0.389648	
-0.389038	
-0.390137	
-0.388733	
-0.390381	
-0.390869	
-0.390381	
-0.390686	
-0.391418	
-0.392029	
-0.391724	
-0.392883	
-0.390869	
-0.390259	
-0.391724	
-0.391602	
-0.392273	
-0.392334	
-0.392395	
-0.391968	
-0.392517	
-0.392883	
-0.392822	
-0.393127	
-0.391418	
-0.39093	
-0.392761	
-0.391357	
-0.393127	
-0.392151	
-0.3927	
-0.393433	
-0.393616	
-0.393494	
-0.393311	
-0.394226	
-0.391663	
-0.392456	
-0.393555	
-0.392822	
-0.394348	
-0.395508	
-0.395325	
-0.395508	
-0.39624	
-0.396912	
-0.396423	
-0.3974	
-0.39502	
-0.395569	
-0.396606	
-0.395691	
-0.397034	
-0.396729	
-0.396423	
-0.396912	
-0.396729	
-0.396545	
-0.39679	
-0.397522	
-0.394592	
-0.394714	
-0.395569	
-0.395874	
-0.396118	
-0.395508	
-0.395264	
-0.395447	
-0.39624	
-0.396423	
-0.396301	
-0.3974	
-0.395569	
-0.395691	
-0.395874	
-0.395874	
-0.396118	
-0.396301	
-0.396606	
-0.396301	
-0.39624	
-0.396545	
-0.3974	
-0.396729	
-0.39447	
-0.394104	
-0.395081	
-0.395325	
-0.395142	
-0.394653	
-0.394653	
-0.394714	
-0.223816	
0.0366211	
-0.0505371	
-0.0738525	
-0.0750122	
-0.071167	
-0.389832	
-0.471863	
-0.379883	
-0.34967	
-0.335266	
-0.330933	
-0.327942	
-0.322693	
-0.324341	
-0.323486	
-0.323303	
-0.323303	
-0.324585	
-0.323181	
-0.323669	
-0.325562	
-0.323792	
-0.323608	
-0.323792	
-0.324341	
-0.325134	
-0.325195	
-0.325684	
-0.326416	
-0.325989	
-0.326233	
-0.326904	
-0.325928	
-0.326904	
-0.327271	
-0.325134	
-0.327637	
-0.32782	
-0.328369	
-0.328552	
-0.327576	
-0.327881	
-0.327637	
-0.327759	
-0.327271	
-0.327209	
-0.326294	
-0.327332	
-0.328125	
-0.328613	
-0.329529	
-0.332092	
-0.332947	
-0.334717	
-0.338379	
-0.340759	
-0.344604	
-0.348267	
-0.352234	
-0.356812	
-0.36084	
-0.364868	
-0.369629	
-0.372253	
-0.376953	
-0.382568	
-0.389221	
-0.394409	
-0.402222	
-0.408936	
-0.4198	
-0.428345	
-0.436768	
-0.443665	
-0.450317	
-0.456482	
-0.460205	
-0.463562	
-0.46759	
-0.471375	
-0.472656	
-0.478638	
-0.481201	
-0.483215	
-0.486328	
-0.48822	
-0.488525	
-0.490417	
-0.491333	
-0.490906	
-0.491333	
-0.491272	
-0.490173	
-0.490784	
-0.49176	
-0.49231	
-0.493958	
-0.492737	
-0.492676	
-0.494385	
-0.495422	
-0.49585	
-0.497131	
-0.497498	
-0.5	
-0.501404	
-0.502747	
-0.503418	
-0.502808	
-0.502441	
-0.502075	
-0.50061	
-0.499451	
-0.497009	
-0.494507	
-0.490967	
-0.488342	
-0.484131	
-0.480408	
-0.477722	
-0.473816	
-0.468689	
-0.464355	
-0.461365	
-0.456543	
-0.450989	
-0.446411	
-0.440491	
-0.437195	
-0.432739	
-0.427734	
-0.42218	
-0.416748	
-0.410278	
-0.404663	
-0.39978	
-0.393372	
-0.387573	
-0.38147	
-0.374878	
-0.369629	
-0.364136	
-0.358276	
-0.351807	
-0.344971	
-0.338196	
-0.331665	
-0.326538	
-0.319519	
-0.3125	
-0.304199	
-0.297852	
-0.293152	
-0.286072	
-0.279724	
-0.273193	
-0.266296	
-0.259644	
-0.252869	
-0.247437	
-0.241516	
-0.236267	
-0.229309	
-0.225098	
-0.220459	
-0.216309	
-0.213074	
-0.209656	
-0.20575	
-0.203186	
-0.202759	
-0.201172	
-0.199768	
-0.19989	
-0.200928	
-0.203186	
-0.206421	
-0.2099	
-0.213074	
-0.216919	
-0.221069	
-0.226685	
-0.232788	
-0.238647	
-0.244141	
-0.250183	
-0.257874	
-0.264465	
-0.271362	
-0.2771	
-0.283264	
-0.289612	
-0.296021	
-0.300964	
-0.306274	
-0.311096	
-0.315247	
-0.319763	
-0.323669	
-0.327393	
-0.330017	
-0.333313	
-0.335693	
-0.338745	
-0.340332	
-0.341675	
-0.343811	
-0.34436	
-0.346252	
-0.347656	
-0.349915	
-0.350037	
-0.350281	
-0.351074	
-0.353088	
-0.35437	
-0.355103	
-0.356201	
-0.355957	
-0.35675	
-0.358704	
-0.359558	
-0.360352	
-0.360535	
-0.361511	
-0.361023	
-0.364014	
-0.364075	
-0.362305	
-0.362061	
-0.362366	
-0.362	
-0.361389	
-0.361633	
-0.359924	
-0.358704	
-0.356445	
-0.357483	
-0.355286	
-0.352905	
-0.351013	
-0.348267	
-0.347107	
-0.346252	
-0.343628	
-0.341187	
-0.339233	
-0.33728	
-0.3349	
-0.334106	
-0.330872	
-0.327698	
-0.325134	
-0.323059	
-0.321838	
-0.319031	
-0.316772	
-0.314026	
-0.312134	
-0.309143	
-0.309265	
-0.306641	
-0.30542	
-0.303467	
-0.302002	
-0.301575	
-0.301208	
-0.301147	
-0.300842	
-0.301392	
-0.301208	
-0.303223	
-0.304504	
-0.30542	
-0.306274	
-0.30719	
-0.308655	
-0.310669	
-0.312378	
-0.290771	
0.108398	
0.0157471	
-0.00866699	
-0.0131226	
-0.0102539	
-0.184082	
-0.404297	
-0.310974	
-0.279419	
-0.26593	
-0.263184	
-0.260315	
-0.260193	
-0.259766	
-0.259705	
-0.260132	
-0.260986	
-0.262268	
-0.261414	
-0.261597	
-0.262268	
-0.263123	
-0.263489	
-0.265015	
-0.26593	
-0.266479	
-0.267517	
-0.267822	
-0.269104	
-0.268188	
-0.270142	
-0.268982	
-0.269897	
-0.270874	
-0.271851	
-0.272522	
-0.273438	
-0.274658	
-0.274536	
-0.275391	
-0.275818	
-0.275696	
-0.275208	
-0.275513	
-0.276611	
-0.275879	
-0.276855	
-0.278076	
-0.279175	
-0.280396	
-0.281372	
-0.283752	
-0.285461	
-0.288208	
-0.291321	
-0.294312	
-0.30011	
-0.305298	
-0.309937	
-0.315063	
-0.320496	
-0.322998	
-0.327271	
-0.331726	
-0.337219	
-0.34198	
-0.346619	
-0.353455	
-0.360352	
-0.367371	
-0.375854	
-0.383118	
-0.391541	
-0.398987	
-0.406616	
-0.411926	
-0.415405	
-0.418335	
-0.422791	
-0.426086	
-0.428833	
-0.431274	
-0.432068	
-0.432861	
-0.433716	
-0.435303	
-0.43457	
-0.434143	
-0.432861	
-0.434082	
-0.434448	
-0.435181	
-0.434753	
-0.435059	
-0.434937	
-0.436157	
-0.436951	
-0.438293	
-0.439697	
-0.440796	
-0.442749	
-0.443848	
-0.445618	
-0.446655	
-0.44751	
-0.445068	
-0.445923	
-0.445679	
-0.443176	
-0.441345	
-0.438843	
-0.435303	
-0.432983	
-0.430664	
-0.427673	
-0.424438	
-0.420654	
-0.416443	
-0.412842	
-0.409729	
-0.405334	
-0.401123	
-0.395081	
-0.391113	
-0.385864	
-0.380066	
-0.374451	
-0.367432	
-0.361816	
-0.355896	
-0.349426	
-0.341003	
-0.333374	
-0.325378	
-0.316711	
-0.311218	
-0.302917	
-0.294861	
-0.286743	
-0.280029	
-0.270813	
-0.262634	
-0.254639	
-0.244019	
-0.234192	
-0.2229	
-0.213806	
-0.205566	
-0.197388	
-0.189514	
-0.181763	
-0.176697	
-0.169373	
-0.16394	
-0.159058	
-0.152954	
-0.148743	
-0.14502	
-0.142761	
-0.139832	
-0.139282	
-0.13855	
-0.139282	
-0.141479	
-0.143921	
-0.148621	
-0.150574	
-0.156433	
-0.160461	
-0.16687	
-0.174011	
-0.180664	
-0.186462	
-0.191956	
-0.198669	
-0.204102	
-0.210327	
-0.213745	
-0.219604	
-0.224426	
-0.228882	
-0.234497	
-0.239136	
-0.24292	
-0.247375	
-0.251587	
-0.255432	
-0.259888	
-0.263062	
-0.265991	
-0.268433	
-0.272156	
-0.276489	
-0.277832	
-0.280823	
-0.283203	
-0.286682	
-0.289734	
-0.293518	
-0.295471	
-0.297913	
-0.299377	
-0.301941	
-0.304321	
-0.307129	
-0.309692	
-0.311035	
-0.312927	
-0.314575	
-0.316772	
-0.317139	
-0.316895	
-0.316223	
-0.318054	
-0.318665	
-0.319641	
-0.319641	
-0.319031	
-0.319214	
-0.319336	
-0.318604	
-0.318298	
-0.315979	
-0.317261	
-0.315186	
-0.315979	
-0.316162	
-0.315063	
-0.314392	
-0.314087	
-0.31488	
-0.312866	
-0.313538	
-0.311707	
-0.312256	
-0.311096	
-0.309998	
-0.310852	
-0.310425	
-0.309326	
-0.309631	
-0.30896	
-0.308716	
-0.308594	
-0.307373	
-0.30719	
-0.306885	
-0.305969	
-0.30603	
-0.306641	
-0.305481	
-0.306824	
-0.306152	
-0.305908	
-0.305237	
-0.307068	
-0.305664	
-0.305359	
-0.304504	
-0.304871	
-0.304932	
-0.305298	
-0.305237	
-0.304321	
-0.304993	
-0.304993	
-0.305786	
-0.303589	
-0.303894	
-0.303528	
-0.303894	
-0.304565	
-0.30481	
-0.304626	
-0.304871	
-0.305237	
-0.305054	
-0.305847	
-0.305725	
-0.305054	
-0.304443	
-0.305908	
-0.306274	
-0.307068	
-0.307373	
-0.307129	
-0.308838	
-0.30835	
-0.309021	
-0.30835	
-0.308533	
-0.309326	
-0.309082	
-0.309937	
-0.311096	
-0.31073	
-0.311218	
-0.312317	
-0.311462	
-0.313232	
-0.313354	
-0.313049	
-0.314331	
-0.315247	
-0.316223	
-0.316833	
-0.317383	
-0.317566	
-0.317932	
-0.317322	
-0.319092	
-0.318176	
-0.319031	
-0.319153	
-0.320007	
-0.319763	
-0.320313	
-0.32074	
-0.32135	
-0.322693	
-0.32019	
-0.321899	
-0.321655	
-0.32312	
-0.32312	
-0.322693	
-0.323425	
-0.324097	
-0.325806	
-0.32489	
-0.325684	
-0.323975	
-0.325806	
-0.325684	
-0.326233	
-0.326965	
-0.326355	
-0.328491	
-0.328674	
-0.329468	
-0.329163	
-0.330078	
-0.329712	
-0.327087	
-0.330322	
-0.329834	
-0.330505	
-0.330261	
-0.330566	
-0.330994	
-0.330994	
-0.333008	
-0.331482	
-0.332153	
-0.330811	
-0.330872	
-0.330994	
-0.331726	
-0.33136	
-0.331543	
-0.332214	
-0.332153	
-0.332764	
-0.33374	
-0.33429	
-0.332642	
-0.332764	
-0.333496	
-0.332825	
-0.333496	
-0.333801	
-0.33313	
-0.333984	
-0.334839	
-0.335693	
-0.334961	
-0.334595	
-0.334595	
-0.333984	
-0.334534	
-0.334534	
-0.334778	
-0.334167	
-0.334351	
-0.334351	
-0.334595	
-0.335022	
-0.334717	
-0.33429	
-0.332764	
-0.333923	
-0.334045	
-0.334167	
-0.334229	
-0.333923	
-0.333984	
-0.333923	
-0.334839	
-0.334106	
-0.333313	
-0.332886	
-0.333679	
-0.334961	
-0.335022	
-0.334839	
-0.334778	
-0.335266	
-0.33606	
-0.337585	
-0.337402	
-0.336365	
-0.335632	
-0.335938	
-0.336548	
-0.33728	
-0.337341	
-0.337097	
-0.337402	
-0.338318	
-0.339722	
-0.338623	
-0.337952	
-0.337219	
-0.337769	
-0.338013	
-0.338379	
-0.338562	
-0.33844	
-0.338501	
-0.338501	
-0.340149	
-0.339172	
-0.338257	
-0.337952	
-0.338318	
-0.338928	
-0.33905	
-0.3396	
-0.339172	
-0.339844	
-0.340759	
-0.342224	
-0.341858	
-0.341858	
-0.341003	
-0.34137	
-0.342163	
-0.342102	
-0.342407	
-0.342651	
-0.343018	
-0.342773	
-0.344666	
-0.34436	
-0.343445	
-0.342896	
-0.343323	
-0.34314	
-0.343262	
-0.343384	
-0.34314	
-0.342834	
-0.342651	
-0.344177	
-0.343872	
-0.342529	
-0.342468	
-0.342285	
-0.341614	
-0.34259	
-0.342651	
-0.342773	
-0.344116	
-0.344299	
-0.345215	
-0.345825	
-0.346619	
-0.346436	
-0.34491	
-0.345642	
-0.347412	
-0.347656	
-0.346741	
-0.348694	
-0.348755	
-0.348877	
-0.350708	
-0.350769	
-0.34906	
-0.348816	
-0.350342	
-0.349915	
-0.349976	
-0.349426	
-0.349609	
-0.350098	
-0.349976	
-0.350769	
-0.350708	
-0.350159	
-0.34967	
-0.349182	
-0.348816	
-0.350098	
-0.349915	
-0.350464	
-0.350098	
-0.350525	
-0.350891	
-0.35144	
-0.351257	
-0.350159	
-0.349121	
-0.34906	
-0.350769	
-0.350464	
-0.349426	
-0.350464	
-0.35022	
-0.350525	
-0.352051	
-0.351196	
-0.350037	
-0.34967	
-0.349976	
-0.349487	
-0.349976	
-0.34906	
-0.349304	
-0.349609	
-0.349609	
-0.35083	
-0.349976	
-0.348755	
-0.348389	
-0.348816	
-0.347717	
-0.347595	
-0.348022	
-0.348938	
-0.348572	
-0.348694	
-0.350098	
-0.350098	
-0.349854	
-0.348694	
-0.348999	
-0.348145	
-0.349365	
-0.349915	
-0.349976	
-0.349792	
-0.350159	
-0.351318	
-0.35144	
-0.350769	
-0.350525	
-0.349915	
-0.351013	
-0.351196	
-0.351501	
-0.351501	
-0.351624	
-0.351624	
-0.352173	
-0.352539	
-0.352966	
-0.352356	
-0.350769	
-0.35321	
-0.35321	
-0.352966	
-0.353638	
-0.35321	
-0.353394	
-0.353943	
-0.355835	
-0.354919	
-0.35437	
-0.353516	
-0.354553	
-0.355591	
-0.355652	
-0.354614	
-0.355652	
-0.356384	
-0.356628	
-0.358643	
-0.356628	
-0.356384	
-0.356567	
-0.356018	
-0.356018	
-0.356445	
-0.356018	
-0.356262	
-0.356323	
-0.356262	
-0.356384	
-0.356079	
-0.355835	
-0.354553	
-0.354248	
-0.354126	
-0.354492	
-0.354858	
-0.355408	
-0.355286	
-0.355591	
-0.356079	
-0.357239	
-0.356873	
-0.355713	
-0.355164	
-0.356567	
-0.357849	
-0.358337	
-0.357666	
-0.359009	
-0.358826	
-0.359619	
-0.360291	
-0.360352	
-0.359924	
-0.35968	
-0.359985	
-0.360657	
-0.36084	
-0.360718	
-0.361267	
-0.361755	
-0.361389	
-0.362305	
-0.361694	
-0.360535	
-0.360474	
-0.359802	
-0.359253	
-0.359863	
-0.360168	
-0.360352	
-0.359924	
-0.359558	
-0.361084	
-0.362061	
-0.360168	
-0.359985	
-0.359802	
-0.359192	
-0.360168	
-0.359619	
-0.359497	
-0.359497	
-0.359985	
-0.360229	
-0.361084	
-0.360168	
-0.359802	
-0.359558	
-0.359253	
-0.359558	
-0.359497	
-0.359497	
-0.359863	
-0.359436	
-0.35968	
-0.35968	
-0.359253	
-0.358398	
-0.3573	
-0.356628	
-0.356934	
-0.357605	
-0.357117	
-0.357666	
-0.357666	
-0.357239	
-0.358276	
-0.358582	
-0.357239	
-0.357178	
-0.358276	
-0.357544	
-0.358032	
-0.357727	
-0.358459	
-0.358582	
-0.358276	
-0.360535	
-0.360229	
-0.359619	
-0.359009	
-0.359802	
-0.358521	
-0.358582	
-0.35907	
-0.358826	
-0.359741	
-0.359558	
-0.359924	
-0.359863	
-0.360168	
-0.359558	
-0.359985	
-0.357788	
-0.35907	
-0.359741	
-0.359802	
-0.360657	
-0.36084	
-0.361145	
-0.360596	
-0.362183	
-0.361389	
-0.360474	
-0.360657	
-0.361267	
-0.362	
-0.360901	
-0.362488	
-0.362854	
-0.364319	
-0.364563	
-0.365295	
-0.364441	
-0.364136	
-0.36499	
-0.364929	
-0.365234	
-0.364563	
-0.365662	
-0.366211	
-0.367065	
-0.367554	
-0.366699	
-0.366028	
-0.36554	
-0.365479	
-0.363525	
-0.364807	
-0.365173	
-0.366089	
-0.365601	
-0.365662	
-0.365662	
-0.365662	
-0.366699	
-0.365845	
-0.365417	
-0.363892	
-0.364868	
-0.365173	
-0.365234	
-0.364685	
-0.365967	
-0.365967	
-0.366089	
-0.367249	
-0.36676	
-0.365295	
-0.36554	
-0.366028	
-0.365967	
-0.365784	
-0.366089	
-0.366638	
-0.36676	
-0.367615	
-0.367676	
-0.367676	
-0.367004	
-0.367065	
-0.365601	
-0.365479	
-0.36615	
-0.365601	
-0.365417	
-0.365479	
-0.365906	
-0.366089	
-0.366577	
-0.365967	
-0.364868	
-0.365051	
-0.365051	
-0.365601	
-0.366089	
-0.366333	
-0.366272	
-0.366821	
-0.367676	
-0.367981	
-0.367493	
-0.36615	
-0.365967	
-0.366577	
-0.367859	
-0.367004	
-0.36853	
-0.368591	
-0.368713	
-0.369019	
-0.369873	
-0.369263	
-0.368591	
-0.367676	
-0.367615	
-0.368042	
-0.366028	
-0.36676	
-0.366272	
-0.366272	
-0.366699	
-0.367004	
-0.366028	
-0.365234	
-0.365417	
-0.364502	
-0.363831	
-0.364136	
-0.364746	
-0.364624	
-0.364746	
-0.364685	
-0.365723	
-0.366394	
-0.365723	
-0.365601	
-0.364807	
-0.364197	
-0.365295	
-0.365112	
-0.365845	
-0.365967	
-0.366333	
-0.367065	
-0.36676	
-0.367188	
-0.36731	
-0.365112	
-0.366272	
-0.36676	
-0.367004	
-0.367004	
-0.367004	
-0.367065	
-0.368286	
-0.368713	
-0.368958	
-0.368225	
-0.367432	
-0.367981	
-0.368042	
-0.368347	
-0.368469	
-0.369324	
-0.369507	
-0.369995	
-0.370483	
-0.370178	
-0.370361	
-0.369507	
-0.370728	
-0.370605	
-0.370789	
-0.372314	
-0.372742	
-0.372864	
-0.373047	
-0.373962	
-0.37384	
-0.37439	
-0.373108	
-0.372314	
-0.372375	
-0.372498	
-0.372925	
-0.372803	
-0.372986	
-0.373047	
-0.373718	
-0.374084	
-0.375122	
-0.373352	
-0.373169	
-0.373169	
-0.372314	
-0.372314	
-0.372925	
-0.373108	
-0.373596	
-0.373047	
-0.373108	
-0.373718	
-0.373535	
-0.371582	
-0.371948	
-0.371094	
-0.372742	
-0.372681	
-0.372498	
-0.37262	
-0.373047	
-0.373779	
-0.373718	
-0.374084	
-0.371948	
-0.371643	
-0.370728	
-0.371948	
-0.371521	
-0.371826	
-0.371887	
-0.372192	
-0.372375	
-0.372253	
-0.372498	
-0.371155	
-0.371643	
-0.371277	
-0.370605	
-0.371399	
-0.371155	
-0.371521	
-0.372314	
-0.371704	
-0.373291	
-0.373413	
-0.372742	
-0.37146	
-0.372925	
-0.371155	
-0.373779	
-0.37384	
-0.374084	
-0.37439	
-0.373779	
-0.375427	
-0.375305	
-0.376282	
-0.374573	
-0.373413	
-0.373718	
-0.374756	
-0.374573	
-0.373901	
-0.374146	
-0.374084	
-0.374023	
-0.373901	
-0.374634	
-0.372559	
-0.371582	
-0.370667	
-0.372375	
-0.372314	
-0.371826	
-0.371948	
-0.371521	
-0.371704	
-0.372559	
-0.372864	
-0.37146	
-0.370239	
-0.371155	
-0.370483	
-0.371521	
-0.371277	
-0.372375	
-0.372375	
-0.37384	
-0.374146	
-0.374207	
-0.374329	
-0.373535	
-0.372864	
-0.372681	
-0.374146	
-0.373779	
-0.374817	
-0.374084	
-0.374023	
-0.374817	
-0.375793	
-0.375977	
-0.37439	
-0.372925	
-0.37323	
-0.375183	
-0.375061	
-0.375366	
-0.375061	
-0.37616	
-0.376282	
-0.37738	
-0.377075	
-0.375427	
-0.375244	
-0.37561	
-0.376648	
-0.376709	
-0.37738	
-0.377869	
-0.378113	
-0.378906	
-0.379761	
-0.380981	
-0.379272	
-0.379517	
-0.376526	
-0.378601	
-0.380127	
-0.380188	
-0.379211	
-0.3797	
-0.379944	
-0.380371	
-0.382263	
-0.380615	
-0.379517	
-0.378845	
-0.37793	
-0.379028	
-0.378967	
-0.379272	
-0.380188	
-0.379517	
-0.379944	
-0.380737	
-0.381592	
-0.379639	
-0.379028	
-0.378052	
-0.380127	
-0.38031	
-0.380493	
-0.380676	
-0.380554	
-0.380859	
-0.380371	
-0.382385	
-0.380554	
-0.380249	
-0.378113	
-0.37854	
-0.379761	
-0.379456	
-0.379761	
-0.379883	
-0.379578	
-0.379822	
-0.381836	
-0.379822	
-0.378174	
-0.377319	
-0.377014	
-0.378052	
-0.377747	
-0.378235	
-0.377502	
-0.378479	
-0.377625	
-0.378479	
-0.378174	
-0.376648	
-0.376587	
-0.373901	
-0.37616	
-0.376831	
-0.377014	
-0.37738	
-0.377869	
-0.377686	
-0.378174	
-0.380859	
-0.378601	
-0.377991	
-0.376404	
-0.377747	
-0.378357	
-0.378479	
-0.378662	
-0.378723	
-0.378784	
-0.37915	
-0.380188	
-0.379028	
-0.378784	
-0.377563	
-0.37677	
-0.37915	
-0.378967	
-0.378845	
-0.378723	
-0.378357	
-0.378479	
-0.379517	
-0.380066	
-0.37854	
-0.377441	
-0.376953	
-0.377136	
-0.378113	
-0.378052	
-0.378662	
-0.379089	
-0.379272	
-0.380798	
-0.381348	
-0.380859	
-0.380127	
-0.380371	
-0.37915	
-0.380615	
-0.381042	
-0.381226	
-0.381165	
-0.380981	
-0.381653	
-0.381897	
-0.382996	
-0.380737	
-0.380493	
-0.379456	
-0.381348	
-0.380615	
-0.380676	
-0.380798	
-0.38092	
-0.380493	
-0.380371	
-0.380981	
-0.379211	
-0.378662	
-0.378052	
-0.377502	
-0.380066	
-0.379944	
-0.379883	
-0.380676	
-0.381104	
-0.381226	
-0.383179	
-0.383362	
-0.381836	
-0.382019	
-0.38269	
-0.382935	
-0.383423	
-0.382629	
-0.383606	
-0.384583	
-0.385254	
-0.385193	
-0.385986	
-0.384766	
-0.384583	
-0.382751	
-0.383667	
-0.385071	
-0.385132	
-0.385071	
-0.385559	
-0.38501	
-0.384827	
-0.386169	
-0.385559	
-0.384888	
-0.383972	
-0.38324	
-0.384583	
-0.384338	
-0.384399	
-0.38385	
-0.384155	
-0.38501	
-0.385071	
-0.38562	
-0.383301	
-0.384155	
-0.381897	
-0.384094	
-0.384216	
-0.383545	
-0.384277	
-0.383728	
-0.384644	
-0.383301	
-0.38501	
-0.382629	
-0.383179	
-0.382813	
-0.382324	
-0.382874	
-0.382263	
-0.382202	
-0.38208	
-0.381958	
-0.381653	
-0.381836	
-0.382202	
-0.380188	
-0.380798	
-0.378296	
-0.381348	
-0.380737	
-0.380737	
-0.380127	
-0.380737	
-0.381775	
-0.381836	
-0.383484	
-0.380432	
-0.38092	
-0.380676	
-0.380859	
-0.38092	
-0.381531	
-0.38147	
-0.381531	
-0.382385	
-0.382141	
-0.383362	
-0.382324	
-0.382202	
-0.381714	
-0.38031	
-0.382324	
-0.383179	
-0.382935	
-0.383057	
-0.383179	
-0.383728	
-0.383667	
-0.386108	
-0.381653	
-0.383301	
-0.382874	
-0.383606	
-0.384033	
-0.384033	
-0.384094	
-0.384033	
-0.385071	
-0.384888	
-0.386963	
-0.384766	
-0.38501	
-0.385254	
-0.384705	
-0.38623	
-0.385864	
-0.385986	
-0.386475	
-0.386475	
-0.38623	
-0.387024	
-0.388245	
-0.385132	
-0.385498	
-0.382996	
-0.38623	
-0.386169	
-0.38501	
-0.384888	
-0.384583	
-0.384644	
-0.384277	
-0.386536	
-0.384094	
-0.384399	
-0.383545	
-0.383728	
-0.38385	
-0.383728	
-0.383484	
-0.384033	
-0.384644	
-0.38562	
-0.386292	
-0.386292	
-0.384888	
-0.386047	
-0.383179	
-0.386475	
-0.387085	
-0.387207	
-0.388062	
-0.388184	
-0.388794	
-0.38855	
-0.391602	
-0.388367	
-0.388733	
-0.388184	
-0.389099	
-0.389343	
-0.388855	
-0.38916	
-0.388916	
-0.389587	
-0.388916	
-0.389648	
-0.388428	
-0.387512	
-0.387634	
-0.384583	
-0.38739	
-0.387512	
-0.387878	
-0.387268	
-0.387817	
-0.387268	
-0.387451	
-0.390259	
-0.386475	
-0.387207	
-0.385498	
-0.38739	
-0.38678	
-0.386963	
-0.386963	
-0.387024	
-0.388062	
-0.386719	
-0.388062	
-0.38678	
-0.386658	
-0.386108	
-0.38324	
-0.386292	
-0.386597	
-0.385864	
-0.38562	
-0.38562	
-0.385559	
-0.385437	
-0.386719	
-0.384644	
-0.384155	
-0.383606	
-0.383911	
-0.383972	
-0.383606	
-0.383545	
-0.383667	
-0.383789	
-0.384094	
-0.385071	
-0.38269	
-0.383606	
-0.382874	
-0.382446	
-0.384094	
-0.384216	
-0.38446	
-0.384521	
-0.385193	
-0.384766	
-0.385315	
-0.38678	
-0.384155	
-0.384583	
-0.383789	
-0.384827	
-0.384583	
-0.384216	
-0.384583	
-0.385254	
-0.384644	
-0.384583	
-0.385437	
-0.384583	
-0.384949	
-0.383179	
-0.382507	
-0.384949	
-0.385132	
-0.38501	
-0.385376	
-0.385559	
-0.385925	
-0.386597	
-0.38678	
-0.386292	
-0.385986	
-0.385559	
-0.386597	
-0.387268	
-0.387756	
-0.388062	
-0.388245	
-0.388306	
-0.388672	
-0.389343	
-0.390015	
-0.389282	
-0.388794	
-0.388	
-0.389465	
-0.389832	
-0.389709	
-0.390137	
-0.389038	
-0.389587	
-0.389648	
-0.389893	
-0.387695	
-0.387634	
-0.387024	
-0.388489	
-0.388977	
-0.388489	
-0.388489	
-0.388184	
-0.388062	
-0.387939	
-0.388977	
-0.388977	
-0.388245	
-0.387878	
-0.387146	
-0.388306	
-0.38855	
-0.38855	
-0.38916	
-0.388489	
-0.388916	
-0.38916	
-0.390564	
-0.389526	
-0.388794	
-0.38739	
-0.388245	
-0.389465	
-0.388977	
-0.390015	
-0.389038	
-0.388855	
-0.388489	
-0.390137	
-0.388977	
-0.388062	
-0.386292	
-0.386597	
-0.387878	
-0.387207	
-0.387207	
-0.387756	
-0.387756	
-0.388062	
-0.387512	
-0.388611	
-0.388	
-0.387451	
-0.386719	
-0.387268	
-0.388245	
-0.388184	
-0.389648	
-0.388733	
-0.388794	
-0.388306	
-0.390503	
-0.390564	
-0.389343	
-0.388184	
-0.389221	
-0.389587	
-0.389709	
-0.389832	
-0.389282	
-0.389404	
-0.38855	
-0.388489	
-0.388611	
-0.387451	
-0.38739	
-0.385559	
-0.385193	
-0.386902	
-0.38678	
-0.386963	
-0.386169	
-0.385986	
-0.385559	
-0.386902	
-0.387085	
-0.385437	
-0.383789	
-0.384399	
-0.385071	
-0.385498	
-0.385071	
-0.385376	
-0.385986	
-0.385864	
-0.38678	
-0.386658	
-0.386169	
-0.385681	
-0.384583	
-0.384827	
-0.386169	
-0.386414	
-0.387512	
-0.387085	
-0.386536	
-0.386536	
-0.387878	
-0.388123	
-0.387024	
-0.385193	
-0.386108	
-0.387146	
-0.386841	
-0.387817	
-0.387573	
-0.387451	
-0.387634	
-0.38916	
-0.388794	
	
