E:\DOCUMENTS AND SETTINGS\JPOTAS\MEUS DOCUMENTOS\UFRJ\RSCI-BM 12 WK SERIES\070718-RSCI-BM-03\RSCI-BM-03-LEMG\070718-RSCI-BM-03-LEMG-0009.ACQ
0.025000 msec/sample
1 channel
Analog input
Volts
CH1	
2000	
-0.39447	
-0.394714	
-0.394775	
-0.393921	
-0.395264	
-0.393127	
-0.394043	
-0.394287	
-0.394531	
-0.394775	
-0.394958	
-0.395447	
-0.395813	
-0.395142	
-0.395325	
-0.394592	
-0.396118	
-0.394836	
-0.395447	
-0.395386	
-0.395752	
-0.396057	
-0.396118	
-0.395752	
-0.396545	
-0.396179	
-0.396606	
-0.39679	
-0.395386	
-0.394958	
-0.395386	
-0.394958	
-0.394775	
-0.395325	
-0.396057	
-0.396362	
-0.397705	
-0.396301	
-0.397522	
-0.396606	
-0.395447	
-0.396057	
-0.395813	
-0.394653	
-0.39447	
-0.395447	
-0.395569	
-0.395325	
-0.396118	
-0.395569	
-0.395203	
-0.39447	
-0.394836	
-0.39447	
-0.393799	
-0.394348	
-0.394348	
-0.395203	
-0.39502	
-0.394653	
-0.395325	
-0.396362	
-0.395264	
-0.394836	
-0.394165	
-0.395508	
-0.393982	
-0.394897	
-0.393799	
-0.39447	
-0.394531	
-0.394287	
-0.394714	
-0.395447	
-0.395203	
-0.394653	
-0.394409	
-0.394409	
-0.393982	
-0.394592	
-0.394592	
-0.394653	
-0.394958	
-0.394592	
-0.394531	
-0.395264	
-0.394775	
-0.393982	
-0.394592	
-0.39325	
-0.392517	
-0.392944	
-0.392395	
-0.39209	
-0.392883	
-0.3927	
-0.393066	
-0.39386	
-0.393005	
-0.392639	
-0.392578	
-0.392273	
-0.392212	
-0.392578	
-0.391541	
-0.39209	
-0.392151	
-0.392517	
-0.392395	
-0.393311	
-0.393555	
-0.393433	
-0.391907	
-0.393433	
-0.393188	
-0.392944	
-0.392639	
-0.392944	
-0.393311	
-0.393738	
-0.394226	
-0.393982	
-0.395081	
-0.394714	
-0.393677	
-0.39386	
-0.395386	
-0.394775	
-0.394348	
-0.39386	
-0.394287	
-0.394287	
-0.39386	
-0.394409	
-0.394714	
-0.394958	
-0.393433	
-0.393555	
-0.392944	
-0.392639	
-0.393005	
-0.391907	
-0.39209	
-0.392395	
-0.392944	
-0.392334	
-0.3927	
-0.391846	
-0.391418	
-0.391052	
-0.390442	
-0.390869	
-0.392456	
-0.39093	
-0.390869	
-0.392212	
-0.391846	
-0.392395	
-0.392883	
-0.392761	
-0.39209	
-0.391785	
-0.392822	
-0.391907	
-0.392883	
-0.392456	
-0.392456	
-0.393433	
-0.393372	
-0.393005	
-0.394226	
-0.393372	
-0.392761	
-0.392944	
-0.393494	
-0.392212	
-0.392883	
-0.392639	
-0.391968	
-0.393555	
-0.393372	
-0.393555	
-0.394958	
-0.395142	
-0.394287	
-0.394409	
-0.39386	
-0.395081	
-0.394714	
-0.394775	
-0.393921	
-0.395081	
-0.395325	
-0.395203	
-0.395996	
-0.397156	
-0.396179	
-0.200623	
0.0976563	
-0.0162964	
-0.0471191	
-0.0512695	
-0.046936	
-0.413147	
-0.510925	
-0.393921	
-0.356506	
-0.341675	
-0.334045	
-0.33075	
-0.327637	
-0.327026	
-0.326416	
-0.325562	
-0.326294	
-0.324707	
-0.325928	
-0.324646	
-0.324707	
-0.324036	
-0.322449	
-0.324951	
-0.325073	
-0.325562	
-0.325317	
-0.325684	
-0.325623	
-0.326294	
-0.327637	
-0.325867	
-0.326416	
-0.326233	
-0.327576	
-0.32666	
-0.327881	
-0.328064	
-0.329041	
-0.329346	
-0.328979	
-0.330017	
-0.329651	
-0.329224	
-0.328735	
-0.328186	
-0.328613	
-0.328735	
-0.329285	
-0.329712	
-0.330627	
-0.11084	
0.158325	
0.0443726	
0.0111694	
0.00299072	
0.00415039	
-0.378357	
-0.464722	
-0.352722	
-0.319519	
-0.306763	
-0.303833	
-0.302185	
-0.304565	
-0.307739	
-0.311584	
-0.316833	
-0.323853	
-0.331055	
-0.337952	
-0.3479	
-0.35376	
-0.360291	
-0.365417	
-0.37146	
-0.37561	
-0.378845	
-0.382629	
-0.385986	
-0.388794	
-0.391418	
-0.394165	
-0.392822	
-0.395142	
-0.397461	
-0.396729	
-0.398682	
-0.398499	
-0.398621	
-0.397827	
-0.398987	
-0.398254	
-0.397888	
-0.398621	
-0.398499	
-0.399597	
-0.400208	
-0.401733	
-0.401672	
-0.40332	
-0.404846	
-0.407654	
-0.408508	
-0.410828	
-0.412964	
-0.41272	
-0.41449	
-0.415588	
-0.416138	
-0.415955	
-0.415833	
-0.414612	
-0.413391	
-0.412659	
-0.410217	
-0.406555	
-0.40387	
-0.400574	
-0.396973	
-0.394958	
-0.391479	
-0.388367	
-0.38446	
-0.381348	
-0.378967	
-0.375366	
-0.371643	
-0.36792	
-0.362732	
-0.359558	
-0.356384	
-0.350708	
-0.347412	
-0.342163	
-0.337585	
-0.333191	
-0.330322	
-0.324646	
-0.319946	
-0.314331	
-0.308716	
-0.304382	
-0.299805	
-0.296021	
-0.291504	
-0.287781	
-0.283142	
-0.279175	
-0.274902	
-0.269836	
-0.264648	
-0.259155	
-0.254211	
-0.247681	
-0.242798	
-0.237244	
-0.232056	
-0.226013	
-0.221558	
-0.215454	
-0.209961	
-0.20343	
-0.197327	
-0.191162	
-0.185669	
-0.178772	
-0.172241	
-0.167175	
-0.163086	
-0.158875	
-0.15564	
-0.153076	
-0.15155	
-0.149475	
-0.149536	
-0.14917	
-0.149841	
-0.153076	
-0.15564	
-0.15863	
-0.162598	
-0.167114	
-0.172241	
-0.177246	
-0.182739	
-0.188843	
-0.193359	
-0.198364	
-0.205017	
-0.211426	
-0.217041	
-0.223083	
-0.22876	
-0.235291	
-0.241394	
-0.246704	
-0.25238	
-0.258667	
-0.263794	
-0.269226	
-0.273987	
-0.279114	
-0.283875	
-0.287781	
-0.289917	
-0.292969	
-0.295593	
-0.296936	
-0.297424	
-0.298279	
-0.299072	
-0.298828	
-0.297607	
-0.298584	
-0.297546	
-0.297913	
-0.295227	
-0.294861	
-0.292542	
-0.29187	
-0.289917	
-0.287659	
-0.285706	
-0.283691	
-0.282166	
-0.280518	
-0.277405	
-0.275757	
-0.273865	
-0.272705	
-0.27063	
-0.269531	
-0.266541	
-0.265259	
-0.262939	
-0.262146	
-0.259277	
-0.257202	
-0.256165	
-0.254395	
-0.253784	
-0.251648	
-0.251953	
-0.248962	
-0.248352	
-0.248352	
-0.247925	
-0.247986	
-0.248291	
-0.249023	
-0.249329	
-0.251038	
-0.252014	
-0.252625	
-0.254639	
-0.255371	
-0.25708	
-0.256653	
-0.257935	
-0.257935	
-0.257385	
-0.257141	
-0.25708	
-0.256897	
-0.255005	
-0.255066	
-0.252869	
-0.251831	
-0.250854	
-0.248535	
-0.248474	
-0.247681	
-0.247437	
-0.248474	
-0.248718	
-0.249878	
-0.250854	
-0.252686	
-0.252991	
-0.257141	
-0.25769	
-0.260315	
-0.262451	
-0.264221	
-0.26709	
-0.269348	
-0.273254	
-0.274658	
-0.278625	
-0.279297	
-0.282715	
-0.284241	
-0.286682	
-0.288574	
-0.290588	
-0.292419	
-0.293945	
-0.296387	
-0.297058	
-0.298828	
-0.298889	
-0.300842	
-0.302246	
-0.302368	
-0.303101	
-0.303101	
-0.303833	
-0.304077	
-0.305542	
-0.304321	
-0.305481	
-0.305115	
-0.305908	
-0.305847	
-0.304749	
-0.306274	
-0.306519	
-0.305847	
-0.305237	
-0.307312	
-0.306091	
-0.30658	
-0.304504	
-0.304932	
-0.304443	
-0.301819	
-0.303589	
-0.301392	
-0.300781	
-0.300293	
-0.300537	
-0.298706	
-0.298889	
-0.299805	
-0.29895	
-0.29834	
-0.298523	
-0.299255	
-0.299133	
-0.299377	
-0.299622	
-0.301025	
-0.301758	
-0.302429	
-0.302795	
-0.302795	
-0.302429	
-0.302795	
-0.302673	
-0.304993	
-0.304016	
-0.304321	
-0.304199	
-0.304443	
-0.304932	
-0.305908	
-0.305908	
-0.306091	
-0.306091	
-0.307495	
-0.307373	
-0.308411	
-0.308655	
-0.308899	
-0.30957	
-0.311462	
-0.311768	
-0.31189	
-0.312317	
-0.312622	
-0.312683	
-0.313904	
-0.314941	
-0.314209	
-0.31488	
-0.314514	
-0.315186	
-0.316345	
-0.316772	
-0.316956	
-0.317688	
-0.317993	
-0.319458	
-0.320068	
-0.320129	
-0.320862	
-0.321289	
-0.321289	
-0.322693	
-0.323364	
-0.322937	
-0.323914	
-0.324402	
-0.325134	
-0.324951	
-0.325928	
-0.326782	
-0.325623	
-0.325928	
-0.326782	
-0.327271	
-0.326904	
-0.327148	
-0.327759	
-0.327332	
-0.328064	
-0.328491	
-0.328186	
-0.326538	
-0.327454	
-0.328064	
-0.328308	
-0.327759	
-0.327393	
-0.326904	
-0.327637	
-0.327332	
-0.327271	
-0.328674	
-0.327087	
-0.327759	
-0.327637	
-0.329163	
-0.328735	
-0.329285	
-0.32959	
-0.330322	
-0.331055	
-0.330444	
-0.33136	
-0.329773	
-0.330933	
-0.331116	
-0.332458	
-0.331787	
-0.332153	
-0.332581	
-0.332703	
-0.334106	
-0.333496	
-0.335205	
-0.334167	
-0.334595	
-0.334045	
-0.334961	
-0.334412	
-0.33429	
-0.332642	
-0.33374	
-0.334229	
-0.333801	
-0.334351	
-0.332581	
-0.33313	
-0.33313	
-0.332092	
-0.332947	
-0.33252	
-0.33197	
-0.332031	
-0.332947	
-0.332642	
-0.33313	
-0.332947	
-0.331726	
-0.332214	
-0.332642	
-0.332581	
-0.332458	
-0.332642	
-0.331665	
-0.33252	
-0.333008	
-0.333557	
-0.334351	
-0.332703	
-0.332764	
-0.333374	
-0.333923	
-0.333679	
-0.332947	
-0.333313	
-0.33429	
-0.3349	
-0.334717	
-0.334473	
-0.334229	
-0.333923	
-0.334778	
-0.334351	
-0.335571	
-0.335571	
-0.334412	
-0.335632	
-0.335938	
-0.336304	
-0.335693	
-0.337646	
-0.335144	
-0.336914	
-0.33783	
-0.33783	
-0.337769	
-0.337341	
-0.33728	
-0.338623	
-0.339233	
-0.338745	
-0.339111	
-0.337769	
-0.338562	
-0.338257	
-0.336365	
-0.338135	
-0.338318	
-0.33783	
-0.337524	
-0.338684	
-0.337891	
-0.338318	
-0.339355	
-0.338379	
-0.338379	
-0.338379	
-0.338989	
-0.338806	
-0.338196	
-0.338806	
-0.340271	
-0.340027	
-0.340759	
-0.340942	
-0.339355	
-0.340271	
-0.340454	
-0.34021	
-0.339661	
-0.340271	
-0.339722	
-0.340759	
-0.341431	
-0.341125	
-0.341675	
-0.340942	
-0.341064	
-0.341858	
-0.340454	
-0.341125	
-0.340881	
-0.341431	
-0.342346	
-0.342468	
-0.34198	
-0.341858	
-0.342834	
-0.341553	
-0.341675	
-0.340393	
-0.340881	
-0.341309	
-0.339661	
-0.340271	
-0.341187	
-0.341187	
-0.341248	
-0.342163	
-0.341309	
-0.341614	
-0.342041	
-0.341858	
-0.342285	
-0.340942	
-0.341675	
-0.342529	
-0.342529	
-0.342346	
-0.343201	
-0.341553	
-0.34259	
-0.34314	
-0.34198	
-0.343018	
-0.343018	
-0.343445	
-0.344116	
-0.345154	
-0.344788	
-0.344788	
-0.346558	
-0.34552	
-0.345276	
-0.345642	
-0.345825	
-0.346069	
-0.345581	
-0.345032	
-0.34729	
-0.346252	
-0.346497	
-0.346924	
-0.346619	
-0.346008	
-0.346375	
-0.345886	
-0.346313	
-0.346252	
-0.34552	
-0.346558	
-0.346069	
-0.345764	
-0.345337	
-0.345398	
-0.345642	
-0.345825	
-0.34552	
-0.345215	
-0.345703	
-0.345093	
-0.345276	
-0.346985	
-0.345947	
-0.345947	
-0.346802	
-0.346313	
-0.345764	
-0.346924	
-0.345886	
-0.346985	
-0.346924	
-0.345947	
-0.348145	
-0.347595	
-0.348267	
-0.348755	
-0.348022	
-0.347534	
-0.348022	
-0.348999	
-0.348328	
-0.347656	
-0.347656	
-0.348328	
-0.348755	
-0.348511	
-0.349731	
-0.348694	
-0.348267	
-0.348938	
-0.348389	
-0.34906	
-0.349976	
-0.350342	
-0.349976	
-0.351257	
-0.350647	
-0.350891	
-0.352234	
-0.352051	
-0.351685	
-0.351257	
-0.351868	
-0.352173	
-0.353149	
-0.351624	
-0.353394	
-0.353088	
-0.353271	
-0.353149	
-0.353088	
-0.353394	
-0.353516	
-0.35437	
-0.351807	
-0.352478	
-0.351624	
-0.353027	
-0.352356	
-0.352417	
-0.352966	
-0.352112	
-0.353882	
-0.352905	
-0.352539	
-0.353149	
-0.353149	
-0.352966	
-0.352112	
-0.353699	
-0.353271	
-0.353699	
-0.354065	
-0.354248	
-0.353638	
-0.354309	
-0.355286	
-0.353149	
-0.353699	
-0.353333	
-0.354492	
-0.354431	
-0.354492	
-0.354614	
-0.355347	
-0.355713	
-0.355286	
-0.354858	
-0.355286	
-0.355591	
-0.355164	
-0.355164	
-0.355652	
-0.355896	
-0.355286	
-0.355103	
-0.355896	
-0.355286	
-0.35553	
-0.356079	
-0.355164	
-0.355652	
-0.35498	
-0.356262	
-0.35553	
-0.355835	
-0.356506	
-0.355103	
-0.356262	
-0.355774	
-0.357117	
-0.355408	
-0.356567	
-0.356262	
-0.35675	
-0.356873	
-0.356445	
-0.356812	
-0.356873	
-0.357849	
-0.356995	
-0.357361	
-0.357971	
-0.357483	
-0.357605	
-0.357361	
-0.358643	
-0.357483	
-0.358276	
-0.358704	
-0.358337	
-0.357971	
-0.358154	
-0.358826	
-0.357544	
-0.357178	
-0.357117	
-0.356567	
-0.356628	
-0.356689	
-0.356567	
-0.356628	
-0.357788	
-0.357178	
-0.35791	
-0.359131	
-0.357544	
-0.357544	
-0.357178	
-0.358337	
-0.357422	
-0.357361	
-0.357666	
-0.3573	
-0.357666	
-0.35675	
-0.357849	
-0.356689	
-0.3573	
-0.357178	
-0.357117	
-0.357971	
-0.358154	
-0.359314	
-0.358704	
-0.360046	
-0.359314	
-0.360413	
-0.360535	
-0.359741	
-0.359863	
-0.360046	
-0.360535	
-0.360229	
-0.359985	
-0.359741	
-0.361206	
-0.360291	
-0.360779	
-0.361572	
-0.360535	
-0.360168	
-0.360352	
-0.360229	
-0.360474	
-0.360474	
-0.36084	
-0.361023	
-0.361389	
-0.360229	
-0.361755	
-0.360474	
-0.360901	
-0.360413	
-0.360474	
-0.360718	
-0.360779	
-0.360962	
-0.359741	
-0.362	
-0.361145	
-0.361572	
-0.360901	
-0.361084	
-0.361328	
-0.361694	
-0.361267	
-0.361572	
-0.361572	
-0.360962	
-0.361938	
-0.362122	
-0.361145	
-0.362793	
-0.361511	
-0.361633	
-0.361267	
-0.362061	
-0.361938	
-0.362061	
-0.36322	
-0.361572	
-0.362671	
-0.362244	
-0.363159	
-0.362366	
-0.36261	
-0.362244	
-0.362427	
-0.362732	
-0.363281	
-0.36438	
-0.363342	
-0.363342	
-0.363586	
-0.363953	
-0.364563	
-0.36438	
-0.364014	
-0.363159	
-0.364258	
-0.363464	
-0.363831	
-0.364502	
-0.36377	
-0.365234	
-0.364136	
-0.364563	
-0.363831	
-0.364014	
-0.363708	
-0.364563	
-0.363831	
-0.365295	
-0.365662	
-0.363892	
-0.36554	
-0.364929	
-0.365234	
-0.364929	
-0.365173	
-0.365051	
-0.365356	
-0.365295	
-0.36554	
-0.36554	
-0.365845	
-0.365784	
-0.366638	
-0.366272	
-0.366455	
-0.366516	
-0.366394	
-0.366882	
-0.367981	
-0.366333	
-0.367676	
-0.368713	
-0.368347	
-0.368164	
-0.368652	
-0.36853	
-0.368652	
-0.369324	
-0.368835	
-0.368713	
-0.368652	
-0.369019	
-0.369141	
-0.368958	
-0.369202	
-0.369873	
-0.36969	
-0.369446	
-0.36853	
-0.369446	
-0.369385	
-0.369812	
-0.36792	
-0.36908	
-0.368896	
-0.368774	
-0.36908	
-0.368835	
-0.368042	
-0.368835	
-0.369812	
-0.367615	
-0.36908	
-0.367981	
-0.368164	
-0.368591	
-0.368042	
-0.368835	
-0.369141	
-0.369568	
-0.368896	
-0.368713	
-0.36908	
-0.369324	
-0.370178	
-0.369873	
-0.370483	
-0.370361	
-0.371216	
-0.371887	
-0.371216	
-0.370667	
-0.371338	
-0.371399	
-0.37085	
-0.372314	
-0.37085	
-0.372009	
-0.371826	
-0.372253	
-0.372498	
-0.372314	
-0.373352	
-0.372314	
-0.372314	
-0.372253	
-0.372559	
-0.372681	
-0.372009	
-0.37262	
-0.37207	
-0.372253	
-0.372559	
-0.371887	
-0.371704	
-0.372437	
-0.372314	
-0.371338	
-0.373108	
-0.372559	
-0.37262	
-0.372864	
-0.373657	
-0.373169	
-0.372986	
-0.373413	
-0.373169	
-0.372681	
-0.372559	
-0.37207	
-0.372437	
-0.372375	
-0.373047	
-0.372864	
-0.373169	
-0.372314	
-0.372681	
-0.371399	
-0.37207	
-0.371887	
-0.371277	
-0.372192	
-0.371948	
-0.371582	
-0.371948	
-0.37146	
-0.372253	
-0.37207	
-0.371521	
-0.371887	
-0.372314	
-0.371521	
-0.373047	
-0.372864	
-0.372437	
-0.372681	
-0.373596	
-0.373535	
-0.373474	
-0.373657	
-0.372803	
-0.372864	
-0.373291	
-0.373474	
-0.373413	
-0.37323	
-0.373169	
-0.373596	
-0.372742	
-0.373779	
-0.373474	
-0.372925	
-0.37384	
-0.37384	
-0.372864	
-0.373901	
-0.373535	
-0.374268	
-0.374268	
-0.373779	
-0.374023	
-0.373901	
-0.374268	
-0.373718	
-0.373779	
-0.37384	
-0.374329	
-0.374634	
-0.374512	
-0.374634	
-0.374756	
-0.374634	
-0.37561	
-0.374939	
-0.374512	
-0.375488	
-0.375244	
-0.374695	
-0.375977	
-0.374817	
-0.375671	
-0.375671	
-0.375732	
-0.376099	
-0.376465	
-0.376221	
-0.375671	
-0.375732	
-0.375854	
-0.375854	
-0.37616	
-0.375977	
-0.375488	
-0.375671	
-0.376038	
-0.37616	
-0.375244	
-0.375305	
-0.375854	
-0.375427	
-0.375366	
-0.375488	
-0.374939	
-0.375366	
-0.375854	
-0.375183	
-0.375916	
-0.375488	
-0.376099	
-0.37616	
-0.376892	
-0.376709	
-0.376648	
-0.378296	
-0.377197	
-0.378052	
-0.378052	
-0.378601	
-0.379089	
-0.378967	
-0.377686	
-0.378296	
-0.378113	
-0.377991	
-0.37854	
-0.377869	
-0.378784	
-0.378601	
-0.379395	
-0.3797	
-0.379578	
-0.380005	
-0.379456	
-0.379395	
-0.378784	
-0.379517	
-0.379822	
-0.379761	
-0.379822	
-0.379456	
-0.379028	
-0.380005	
-0.379211	
-0.377686	
-0.378601	
-0.378418	
-0.378296	
-0.378601	
-0.378723	
-0.378235	
-0.378113	
-0.378784	
-0.378662	
-0.378296	
-0.37854	
-0.378235	
-0.378662	
-0.378174	
-0.378967	
-0.379395	
-0.379089	
-0.379333	
-0.378906	
-0.379639	
-0.379578	
-0.379333	
-0.379089	
-0.380127	
-0.380005	
-0.379944	
-0.380615	
-0.379761	
-0.380188	
-0.380005	
-0.381165	
-0.380188	
-0.380554	
-0.380859	
-0.381348	
-0.380737	
-0.380798	
-0.381409	
-0.381165	
-0.381409	
-0.381897	
-0.381958	
-0.383606	
-0.382568	
-0.381775	
-0.381287	
-0.381897	
-0.381775	
-0.380859	
-0.382935	
-0.382813	
-0.381775	
-0.381653	
-0.382202	
-0.383423	
-0.383362	
-0.383118	
-0.380981	
-0.380737	
-0.382385	
-0.382507	
-0.381592	
-0.382141	
-0.382019	
-0.381287	
-0.382568	
-0.382568	
-0.381531	
-0.381409	
-0.381592	
-0.381592	
-0.38092	
-0.382324	
-0.381775	
-0.38269	
-0.382263	
-0.382141	
-0.383362	
-0.383301	
-0.383118	
-0.381897	
-0.382202	
-0.382263	
-0.382446	
-0.381897	
-0.382813	
-0.382385	
-0.381775	
-0.383545	
-0.383789	
-0.383301	
-0.383118	
-0.383362	
-0.382935	
-0.382568	
-0.383972	
-0.383667	
-0.383301	
-0.38324	
-0.38385	
-0.384094	
-0.383789	
-0.38385	
-0.382141	
-0.382507	
-0.382629	
-0.381897	
-0.381348	
-0.382629	
-0.381836	
-0.380981	
-0.38324	
-0.382996	
-0.382263	
-0.382324	
-0.382507	
-0.382324	
-0.381104	
-0.38269	
-0.382446	
-0.382141	
-0.38208	
-0.382324	
-0.382324	
-0.382141	
-0.382935	
-0.381653	
-0.382385	
-0.382751	
-0.382874	
-0.381531	
-0.382996	
-0.383118	
-0.38324	
-0.384521	
-0.384766	
-0.384338	
-0.384216	
-0.384766	
-0.384277	
-0.384216	
-0.38501	
-0.384949	
-0.38501	
-0.384277	
-0.384888	
-0.385132	
-0.385254	
-0.385559	
-0.384033	
-0.384033	
-0.384766	
-0.385132	
-0.383301	
-0.384033	
-0.383728	
-0.383972	
-0.384399	
-0.384521	
-0.383545	
-0.383362	
-0.383301	
-0.383728	
-0.382202	
-0.383545	
-0.382751	
-0.382935	
-0.382446	
-0.383179	
-0.382996	
-0.383118	
-0.384033	
-0.381836	
-0.383362	
-0.383545	
-0.38385	
-0.383789	
-0.384155	
-0.383728	
-0.384521	
-0.385498	
-0.384949	
-0.385132	
-0.384399	
-0.383972	
-0.38446	
-0.384277	
-0.385071	
-0.384033	
-0.384888	
-0.384094	
-0.384766	
-0.384949	
-0.385254	
-0.38562	
-0.383911	
-0.38501	
-0.385071	
-0.387024	
-0.386169	
-0.386658	
-0.385925	
-0.38678	
-0.387817	
-0.387024	
-0.387024	
-0.386719	
-0.387573	
-0.387207	
-0.387146	
-0.388184	
-0.387451	
-0.388611	
-0.387573	
-0.388733	
-0.388489	
-0.389038	
-0.389038	
-0.386841	
-0.388489	
-0.387939	
-0.388733	
-0.387268	
-0.387268	
-0.387329	
-0.387451	
-0.388184	
-0.388367	
-0.387756	
-0.38739	
-0.386841	
-0.386658	
-0.386414	
-0.388	
-0.387512	
-0.388367	
-0.387024	
-0.388184	
-0.388428	
-0.388977	
-0.388916	
-0.386597	
-0.388184	
-0.388062	
-0.388977	
-0.388245	
-0.387512	
-0.388184	
-0.389038	
-0.389526	
-0.388794	
-0.389648	
-0.389404	
-0.389282	
-0.389465	
-0.388245	
-0.389465	
-0.389221	
-0.389099	
-0.388428	
-0.389038	
-0.38916	
-0.38916	
-0.389465	
-0.387878	
-0.388672	
-0.387268	
-0.388794	
-0.388306	
-0.387329	
-0.388	
-0.388	
-0.388672	
-0.388672	
-0.388916	
-0.38916	
-0.388733	
-0.388794	
-0.388367	
-0.389771	
-0.38855	
-0.388794	
-0.389282	
-0.389587	
-0.389587	
-0.389526	
-0.390137	
-0.389282	
-0.389771	
-0.389648	
-0.388977	
-0.389893	
-0.388977	
-0.389465	
-0.388611	
-0.390259	
-0.389648	
-0.390137	
-0.390381	
-0.388245	
-0.388855	
-0.387939	
-0.389099	
-0.388245	
-0.387024	
-0.387939	
-0.387512	
-0.388367	
-0.387878	
-0.389038	
-0.388306	
-0.388489	
-0.388855	
-0.388	
-0.388977	
-0.388123	
-0.387695	
-0.387573	
-0.387756	
-0.38739	
-0.387451	
-0.388184	
-0.386536	
-0.387573	
-0.38739	
-0.387146	
-0.387207	
-0.387085	
-0.387512	
-0.386963	
-0.389099	
-0.388489	
-0.389343	
-0.388123	
-0.388428	
-0.388611	
-0.388611	
-0.389893	
-0.388977	
-0.388306	
-0.389221	
-0.388855	
-0.38916	
-0.390076	
-0.390015	
-0.388306	
-0.388367	
-0.388062	
-0.38916	
-0.390442	
-0.38916	
-0.387756	
-0.388489	
-0.389465	
-0.388794	
-0.389709	
-0.387878	
-0.388489	
-0.387817	
-0.388184	
-0.388916	
-0.38855	
-0.388062	
-0.387085	
-0.38678	
-0.388245	
-0.388306	
-0.388733	
-0.387451	
-0.388306	
-0.387451	
-0.389709	
-0.389282	
-0.388123	
-0.387634	
-0.388123	
-0.388794	
-0.388123	
-0.38916	
-0.388733	
-0.388245	
-0.387573	
-0.386719	
-0.388733	
-0.388611	
-0.387451	
-0.387512	
-0.388123	
-0.388489	
-0.387939	
-0.388977	
-0.387878	
-0.387817	
-0.387573	
-0.387939	
-0.389038	
-0.388062	
-0.388489	
-0.387451	
-0.388489	
-0.389404	
-0.389954	
-0.389465	
-0.388916	
-0.388306	
-0.388123	
-0.389404	
-0.389893	
-0.388306	
-0.388611	
-0.388123	
-0.388428	
-0.388306	
-0.38855	
-0.387085	
-0.388306	
-0.388489	
-0.386902	
-0.389771	
-0.388977	
-0.389099	
-0.388855	
-0.388672	
-0.388367	
-0.388733	
-0.390381	
-0.388672	
-0.388916	
-0.388184	
-0.389221	
-0.389099	
-0.388855	
-0.388123	
-0.387512	
-0.389282	
-0.389465	
-0.389648	
-0.389954	
-0.389954	
-0.389954	
-0.389099	
-0.391235	
-0.391479	
-0.390686	
-0.390503	
-0.390259	
-0.39093	
-0.391418	
-0.391846	
-0.390808	
-0.391479	
-0.390808	
-0.389954	
-0.392334	
-0.391907	
-0.390991	
-0.39093	
-0.391846	
-0.391052	
-0.391541	
-0.391357	
-0.39093	
-0.390503	
-0.389771	
-0.390686	
-0.390137	
-0.390259	
-0.389771	
-0.388489	
-0.388489	
-0.389526	
-0.390015	
-0.389404	
-0.389954	
-0.389038	
-0.388916	
-0.39032	
-0.389771	
-0.389099	
-0.389099	
-0.38916	
-0.388794	
-0.389771	
-0.390686	
-0.389038	
-0.390015	
-0.390015	
-0.389648	
-0.391113	
-0.391663	
-0.390503	
-0.390808	
-0.391418	
-0.391296	
-0.391479	
-0.392639	
-0.390869	
-0.391418	
-0.391235	
-0.391113	
-0.391846	
-0.392029	
-0.391418	
-0.390625	
-0.392151	
-0.391235	
-0.391602	
-0.391602	
-0.391602	
-0.391113	
-0.389282	
-0.391235	
-0.390747	
-0.390808	
-0.390442	
-0.390259	
-0.390137	
-0.390991	
-0.391174	
-0.389893	
-0.390259	
-0.390686	
-0.389221	
-0.392212	
-0.390869	
-0.390625	
-0.390259	
-0.39093	
-0.388916	
-0.390808	
-0.391968	
-0.389099	
-0.390137	
-0.389526	
-0.389893	
-0.389771	
-0.390442	
-0.389099	
-0.387878	
-0.389282	
-0.389099	
-0.389587	
-0.389648	
-0.388306	
-0.38855	
-0.387695	
-0.38916	
-0.388916	
-0.389587	
-0.388367	
-0.387878	
-0.389465	
-0.388794	
-0.389099	
-0.389282	
-0.389221	
-0.389221	
-0.388062	
-0.39032	
-0.389526	
-0.389709	
-0.389526	
-0.390381	
-0.389832	
-0.390137	
-0.390869	
-0.387512	
-0.389282	
-0.389099	
-0.389038	
-0.389893	
-0.389099	
-0.389587	
-0.389099	
-0.389832	
-0.388672	
-0.389038	
-0.390259	
-0.387878	
-0.389404	
-0.388062	
-0.389648	
-0.388855	
-0.388855	
-0.389038	
-0.387512	
-0.389282	
-0.387329	
-0.389282	
-0.388367	
-0.38855	
-0.388367	
-0.387817	
-0.389832	
-0.389282	
-0.389832	
-0.389221	
-0.389648	
-0.389282	
-0.389771	
-0.391052	
-0.388489	
-0.389404	
-0.389465	
-0.389404	
-0.390625	
-0.389832	
-0.39093	
-0.389771	
-0.390259	
-0.389587	
-0.390137	
-0.390686	
-0.389099	
-0.389526	
-0.388367	
-0.389648	
-0.390015	
-0.389832	
-0.389282	
-0.388245	
-0.390137	
-0.388428	
-0.389343	
-0.389526	
-0.389282	
-0.388855	
-0.387634	
-0.389587	
-0.389221	
-0.389893	
-0.389526	
-0.388733	
-0.390686	
-0.390503	
-0.391052	
-0.390869	
-0.390747	
-0.391235	
-0.390747	
-0.392883	
-0.392151	
-0.392273	
-0.391785	
-0.391418	
-0.391663	
-0.391235	
-0.3927	
-0.391724	
-0.392029	
-0.391602	
-0.39093	
-0.3927	
-0.392517	
-0.393005	
-0.391968	
-0.392395	
-0.391968	
-0.392944	
-0.394043	
-0.392273	
-0.392212	
-0.391602	
-0.392334	
-0.391541	
-0.391907	
-0.391418	
-0.390442	
-0.390869	
-0.390564	
-0.391113	
-0.391357	
-0.389954	
-0.390625	
-0.389771	
-0.391174	
-0.39093	
-0.391724	
-0.390564	
-0.390991	
-0.391174	
-0.390808	
-0.39093	
	
