E:\DOCUMENTS AND SETTINGS\JPOTAS\MEUS DOCUMENTOS\UFRJ\RSCI-BM 12 WK SERIES\070718-RSCI-BM-03\RSCI-BM-03-LEMG\070718-RSCI-BM-03-LEMG-0006.ACQ
0.025000 msec/sample
1 channel
Analog input
Volts
CH1	
2000	
-0.393738	
-0.392212	
-0.3927	
-0.392456	
-0.393677	
-0.393311	
-0.39325	
-0.394165	
-0.393372	
-0.393311	
-0.393311	
-0.393616	
-0.394531	
-0.394226	
-0.394348	
-0.394226	
-0.393616	
-0.395386	
-0.395142	
-0.395203	
-0.395081	
-0.394592	
-0.393738	
-0.394348	
-0.396118	
-0.396301	
-0.395996	
-0.396545	
-0.395386	
-0.395386	
-0.395935	
-0.395874	
-0.394775	
-0.394531	
-0.394531	
-0.393494	
-0.394958	
-0.395569	
-0.394226	
-0.394531	
-0.394592	
-0.393188	
-0.395264	
-0.39447	
-0.395081	
-0.394653	
-0.395081	
-0.394043	
-0.394531	
-0.394531	
-0.394531	
-0.39386	
-0.393372	
-0.393311	
-0.394104	
-0.39325	
-0.394531	
-0.394226	
-0.392517	
-0.393127	
-0.394287	
-0.394775	
-0.395569	
-0.394409	
-0.394897	
-0.394531	
-0.394897	
-0.395874	
-0.39679	
-0.394653	
-0.394775	
-0.394958	
-0.39502	
-0.39447	
-0.395142	
-0.395081	
-0.395813	
-0.394775	
-0.39386	
-0.395874	
-0.39624	
-0.394958	
-0.394958	
-0.394043	
-0.392944	
-0.394958	
-0.394897	
-0.394958	
-0.396057	
-0.394836	
-0.395386	
-0.395142	
-0.394165	
-0.394958	
-0.394531	
-0.394043	
-0.393799	
-0.394958	
-0.395386	
-0.395874	
-0.394714	
-0.39447	
-0.394592	
-0.395386	
-0.394836	
-0.395874	
-0.394409	
-0.39447	
-0.394409	
-0.394836	
-0.394775	
-0.394531	
-0.394958	
-0.395142	
-0.394714	
-0.394348	
-0.395569	
-0.395569	
-0.393799	
-0.393066	
-0.393738	
-0.392395	
-0.394897	
-0.394531	
-0.394409	
-0.395569	
-0.394836	
-0.394714	
-0.395203	
-0.395386	
-0.395264	
-0.39502	
-0.393982	
-0.393494	
-0.394714	
-0.394592	
-0.395935	
-0.395813	
-0.394958	
-0.394409	
-0.394104	
-0.393982	
-0.396301	
-0.394897	
-0.394287	
-0.394226	
-0.394958	
-0.394531	
-0.394958	
-0.394836	
-0.394531	
-0.394287	
-0.393616	
-0.395325	
-0.396301	
-0.394409	
-0.393738	
-0.39325	
-0.393616	
-0.394287	
-0.394592	
-0.394836	
-0.395203	
-0.394165	
-0.394043	
-0.394592	
-0.395447	
-0.395142	
-0.394958	
-0.394836	
-0.394165	
-0.395203	
-0.396362	
-0.396912	
-0.396545	
-0.39563	
-0.396301	
-0.395813	
-0.396973	
-0.396729	
-0.396179	
-0.395874	
-0.396179	
-0.396729	
-0.39679	
-0.396545	
-0.396912	
-0.396301	
-0.396667	
-0.396545	
-0.396301	
-0.398315	
-0.396973	
-0.396545	
-0.395203	
-0.396179	
-0.396423	
-0.189575	
0.10614	
-0.0128784	
-0.0447388	
-0.0494995	
-0.046875	
-0.426636	
-0.518494	
-0.398682	
-0.360229	
-0.343933	
-0.337402	
-0.333374	
-0.329651	
-0.328857	
-0.328491	
-0.327698	
-0.326721	
-0.327148	
-0.328491	
-0.326538	
-0.327026	
-0.326294	
-0.326843	
-0.0594482	
0.168884	
0.0517578	
0.0210571	
0.0159912	
0.0194702	
-0.398743	
-0.451416	
-0.330933	
-0.292969	
-0.277466	
-0.269531	
-0.268494	
-0.265869	
-0.264832	
-0.263855	
-0.263672	
-0.262939	
-0.263062	
-0.263855	
-0.262207	
-0.262146	
-0.260681	
-0.262268	
-0.262695	
-0.263611	
-0.264465	
-0.264832	
-0.266052	
-0.268311	
-0.272522	
-0.272461	
-0.275574	
-0.278259	
-0.280518	
-0.286804	
-0.290466	
-0.29425	
-0.296692	
-0.2995	
-0.302673	
-0.306396	
-0.311035	
-0.314819	
-0.319397	
-0.322144	
-0.332397	
-0.34021	
-0.348083	
-0.355347	
-0.360962	
-0.366028	
-0.370667	
-0.37738	
-0.37738	
-0.380005	
-0.381714	
-0.384338	
-0.387207	
-0.388916	
-0.391052	
-0.392822	
-0.394409	
-0.394165	
-0.395752	
-0.39679	
-0.395447	
-0.395264	
-0.392944	
-0.394287	
-0.395569	
-0.395813	
-0.395813	
-0.396912	
-0.397156	
-0.397705	
-0.399414	
-0.399231	
-0.399658	
-0.400574	
-0.402222	
-0.405579	
-0.407104	
-0.408936	
-0.410034	
-0.410522	
-0.411743	
-0.41333	
-0.412415	
-0.410156	
-0.408203	
-0.405945	
-0.404236	
-0.402771	
-0.400146	
-0.398315	
-0.395874	
-0.393494	
-0.392273	
-0.388916	
-0.385437	
-0.380615	
-0.377686	
-0.373657	
-0.371155	
-0.367371	
-0.364441	
-0.360596	
-0.356323	
-0.353271	
-0.347351	
-0.342346	
-0.335449	
-0.329895	
-0.323547	
-0.318298	
-0.313171	
-0.307251	
-0.301453	
-0.296936	
-0.291748	
-0.285034	
-0.280212	
-0.275391	
-0.267822	
-0.262756	
-0.256592	
-0.252625	
-0.247742	
-0.241821	
-0.237244	
-0.23175	
-0.227112	
-0.219727	
-0.213745	
-0.207031	
-0.200195	
-0.193848	
-0.187561	
-0.182068	
-0.175415	
-0.169861	
-0.163208	
-0.158325	
-0.153503	
-0.148132	
-0.143982	
-0.140625	
-0.136597	
-0.13324	
-0.131042	
-0.130737	
-0.131042	
-0.131592	
-0.133728	
-0.136902	
-0.138977	
-0.142273	
-0.147278	
-0.151062	
-0.156921	
-0.161804	
-0.166565	
-0.173096	
-0.179138	
-0.184326	
-0.189941	
-0.19342	
-0.197388	
-0.202209	
-0.20459	
-0.208008	
-0.210388	
-0.212341	
-0.216858	
-0.219238	
-0.22168	
-0.224731	
-0.227661	
-0.229553	
-0.233154	
-0.235718	
-0.239197	
-0.241943	
-0.245056	
-0.248474	
-0.25354	
-0.256531	
-0.260254	
-0.26355	
-0.264771	
-0.268188	
-0.27002	
-0.27179	
-0.274902	
-0.275146	
-0.277649	
-0.27887	
-0.280029	
-0.281006	
-0.283081	
-0.282166	
-0.281677	
-0.282288	
-0.280945	
-0.280029	
-0.27887	
-0.277954	
-0.276733	
-0.275757	
-0.274048	
-0.273621	
-0.272217	
-0.270142	
-0.269653	
-0.266602	
-0.263611	
-0.262451	
-0.260376	
-0.259949	
-0.258179	
-0.256165	
-0.255493	
-0.254578	
-0.254272	
-0.253357	
-0.253235	
-0.251465	
-0.251892	
-0.252441	
-0.253784	
-0.254761	
-0.255615	
-0.257202	
-0.258789	
-0.26062	
-0.262512	
-0.264954	
-0.265442	
-0.267761	
-0.27002	
-0.274353	
-0.276794	
-0.279297	
-0.282288	
-0.284973	
-0.287537	
-0.290955	
-0.292542	
-0.294678	
-0.295044	
-0.295532	
-0.300415	
-0.302429	
-0.30426	
-0.306519	
-0.308411	
-0.310364	
-0.314636	
-0.313721	
-0.315735	
-0.315857	
-0.318298	
-0.320862	
-0.322571	
-0.323242	
-0.324951	
-0.326233	
-0.329041	
-0.329834	
-0.329895	
-0.3302	
-0.330322	
-0.331482	
-0.332153	
-0.332764	
-0.332703	
-0.333557	
-0.333801	
-0.333679	
-0.333557	
-0.333191	
-0.330811	
-0.330322	
-0.330383	
-0.329407	
-0.328979	
-0.327637	
-0.326477	
-0.326294	
-0.324646	
-0.323059	
-0.320435	
-0.318237	
-0.317261	
-0.314697	
-0.312744	
-0.311218	
-0.309143	
-0.30719	
-0.305054	
-0.302246	
-0.299011	
-0.29718	
-0.293945	
-0.291748	
-0.289795	
-0.288025	
-0.286072	
-0.284424	
-0.283264	
-0.281189	
-0.281494	
-0.279297	
-0.278259	
-0.277832	
-0.27655	
-0.276794	
-0.276123	
-0.276855	
-0.277527	
-0.278625	
-0.279785	
-0.281616	
-0.282593	
-0.282776	
-0.285156	
-0.285767	
-0.286255	
-0.287781	
-0.287476	
-0.289673	
-0.291077	
-0.291443	
-0.291748	
-0.293213	
-0.293579	
-0.293091	
-0.29541	
-0.296265	
-0.296387	
-0.297302	
-0.297791	
-0.299255	
-0.30011	
-0.302063	
-0.301758	
-0.303406	
-0.30426	
-0.304688	
-0.305359	
-0.306152	
-0.308044	
-0.308228	
-0.310242	
-0.310425	
-0.311768	
-0.312805	
-0.31311	
-0.313599	
-0.313965	
-0.315552	
-0.315002	
-0.315369	
-0.315674	
-0.316284	
-0.317261	
-0.31842	
-0.318481	
-0.318176	
-0.319458	
-0.319824	
-0.320313	
-0.320984	
-0.320679	
-0.321106	
-0.320862	
-0.322388	
-0.32312	
-0.323975	
-0.32312	
-0.323792	
-0.323792	
-0.32312	
-0.3255	
-0.324585	
-0.325012	
-0.325439	
-0.325317	
-0.325867	
-0.326355	
-0.327515	
-0.32666	
-0.327759	
-0.327026	
-0.327148	
-0.326172	
-0.326172	
-0.325989	
-0.325317	
-0.32605	
-0.325623	
-0.3255	
-0.325562	
-0.325623	
-0.325256	
-0.326599	
-0.32666	
-0.324524	
-0.325806	
-0.324768	
-0.326599	
-0.326416	
-0.326416	
-0.326233	
-0.327148	
-0.327209	
-0.327026	
-0.329102	
-0.327271	
-0.327332	
-0.325989	
-0.328369	
-0.329346	
-0.328491	
-0.3302	
-0.329712	
-0.330261	
-0.329529	
-0.330872	
-0.329224	
-0.329529	
-0.329102	
-0.329773	
-0.330566	
-0.330688	
-0.330566	
-0.330505	
-0.330566	
-0.330383	
-0.329895	
-0.329712	
-0.329041	
-0.329407	
-0.328369	
-0.330322	
-0.330566	
-0.330566	
-0.331848	
-0.33136	
-0.33197	
-0.331787	
-0.333069	
-0.332214	
-0.331909	
-0.330994	
-0.332703	
-0.333008	
-0.333008	
-0.334351	
-0.333862	
-0.334473	
-0.334106	
-0.336365	
-0.334778	
-0.334351	
-0.334778	
-0.334534	
-0.335266	
-0.336487	
-0.336548	
-0.336121	
-0.336365	
-0.336853	
-0.336426	
-0.337158	
-0.335754	
-0.336304	
-0.334229	
-0.336792	
-0.33667	
-0.336609	
-0.337097	
-0.336914	
-0.337891	
-0.337036	
-0.339233	
-0.336853	
-0.337769	
-0.337646	
-0.338013	
-0.33844	
-0.339294	
-0.339417	
-0.339172	
-0.339294	
-0.33905	
-0.338928	
-0.339783	
-0.338074	
-0.338623	
-0.338623	
-0.339783	
-0.339905	
-0.340027	
-0.341309	
-0.34082	
-0.341614	
-0.340637	
-0.342041	
-0.341064	
-0.341431	
-0.340759	
-0.340759	
-0.342529	
-0.342529	
-0.34314	
-0.342285	
-0.342346	
-0.342896	
-0.343384	
-0.343262	
-0.340759	
-0.341675	
-0.34137	
-0.343323	
-0.343445	
-0.343018	
-0.343384	
-0.342834	
-0.344666	
-0.342773	
-0.343994	
-0.343201	
-0.343567	
-0.342773	
-0.34198	
-0.343506	
-0.344055	
-0.345215	
-0.34375	
-0.343872	
-0.344421	
-0.344849	
-0.345337	
-0.343201	
-0.342712	
-0.343445	
-0.344482	
-0.34491	
-0.345764	
-0.345032	
-0.344788	
-0.345764	
-0.344238	
-0.346069	
-0.345032	
-0.344727	
-0.345703	
-0.344482	
-0.346497	
-0.345764	
-0.34668	
-0.34552	
-0.345581	
-0.346191	
-0.346191	
-0.34613	
-0.344543	
-0.346191	
-0.345825	
-0.347595	
-0.346863	
-0.347168	
-0.347168	
-0.347595	
-0.348877	
-0.34668	
-0.348633	
-0.347351	
-0.347046	
-0.347717	
-0.346985	
-0.348145	
-0.348022	
-0.348511	
-0.348145	
-0.348755	
-0.348206	
-0.34845	
-0.348999	
-0.347534	
-0.348572	
-0.3479	
-0.348206	
-0.348999	
-0.349304	
-0.349121	
-0.348755	
-0.349792	
-0.348572	
-0.350037	
-0.348877	
-0.348511	
-0.348633	
-0.3479	
-0.349487	
-0.349243	
-0.349792	
-0.349548	
-0.350037	
-0.350647	
-0.350525	
-0.350769	
-0.349548	
-0.350708	
-0.350769	
-0.351685	
-0.35199	
-0.351929	
-0.351929	
-0.352295	
-0.35376	
-0.351318	
-0.352722	
-0.352234	
-0.3526	
-0.351868	
-0.352112	
-0.353027	
-0.352783	
-0.353821	
-0.353149	
-0.354004	
-0.353699	
-0.354248	
-0.354248	
-0.352478	
-0.353088	
-0.353394	
-0.35376	
-0.353943	
-0.354004	
-0.35376	
-0.353943	
-0.35498	
-0.35376	
-0.354004	
-0.354309	
-0.353333	
-0.353271	
-0.353577	
-0.354187	
-0.354126	
-0.35553	
-0.354553	
-0.354736	
-0.355408	
-0.355652	
-0.355103	
-0.353271	
-0.354004	
-0.35437	
-0.354736	
-0.355591	
-0.355957	
-0.356018	
-0.356384	
-0.357971	
-0.356384	
-0.357666	
-0.357666	
-0.356567	
-0.356445	
-0.3573	
-0.356934	
-0.357239	
-0.358521	
-0.357483	
-0.357788	
-0.35791	
-0.358398	
-0.357849	
-0.356506	
-0.357483	
-0.357361	
-0.356506	
-0.35791	
-0.357971	
-0.357605	
-0.358215	
-0.359375	
-0.357971	
-0.358826	
-0.358948	
-0.358215	
-0.358643	
-0.359741	
-0.35968	
-0.359314	
-0.360413	
-0.360352	
-0.36084	
-0.360901	
-0.361084	
-0.360291	
-0.35968	
-0.359863	
-0.361023	
-0.360291	
-0.360901	
-0.360352	
-0.36084	
-0.361145	
-0.362122	
-0.360657	
-0.360962	
-0.361206	
-0.360291	
-0.360291	
-0.360229	
-0.35968	
-0.359985	
-0.362061	
-0.361023	
-0.360657	
-0.360718	
-0.361938	
-0.361328	
-0.361389	
-0.360474	
-0.361328	
-0.36145	
-0.361633	
-0.361877	
-0.361755	
-0.362122	
-0.363098	
-0.361755	
-0.362183	
-0.361694	
-0.360779	
-0.359619	
-0.361206	
-0.359802	
-0.361328	
-0.362244	
-0.361938	
-0.361572	
-0.361755	
-0.362793	
-0.360962	
-0.361084	
-0.361633	
-0.362122	
-0.361877	
-0.361511	
-0.361938	
-0.361816	
-0.362	
-0.362244	
-0.360474	
-0.361389	
-0.362	
-0.362061	
-0.359985	
-0.361084	
-0.361328	
-0.361755	
-0.362366	
-0.361389	
-0.361816	
-0.361694	
-0.364075	
-0.362061	
-0.362122	
-0.362488	
-0.362549	
-0.362549	
-0.361816	
-0.363342	
-0.362549	
-0.36261	
-0.362732	
-0.362183	
-0.362244	
-0.362061	
-0.362976	
-0.360168	
-0.362183	
-0.362061	
-0.362427	
-0.362244	
-0.361938	
-0.362244	
-0.362	
-0.362793	
-0.361511	
-0.362183	
-0.361877	
-0.36145	
-0.361694	
-0.360718	
-0.361816	
-0.362	
-0.361877	
-0.36145	
-0.360657	
-0.362427	
-0.361816	
-0.362549	
-0.36084	
-0.36261	
-0.362732	
-0.363037	
-0.364136	
-0.362915	
-0.364014	
-0.363892	
-0.364807	
-0.363525	
-0.364319	
-0.363281	
-0.363586	
-0.363586	
-0.362915	
-0.364197	
-0.364258	
-0.364563	
-0.364807	
-0.364807	
-0.365234	
-0.364868	
-0.365845	
-0.364624	
-0.365295	
-0.364563	
-0.36499	
-0.365417	
-0.365784	
-0.36499	
-0.365173	
-0.36615	
-0.364746	
-0.363892	
-0.364441	
-0.364685	
-0.364624	
-0.36377	
-0.364014	
-0.365112	
-0.364868	
-0.366028	
-0.365417	
-0.364502	
-0.364868	
-0.365051	
-0.364868	
-0.365479	
-0.36554	
-0.365173	
-0.366211	
-0.365356	
-0.365906	
-0.366028	
-0.365967	
-0.365723	
-0.365051	
-0.365295	
-0.366089	
-0.366333	
-0.365967	
-0.366272	
-0.366699	
-0.366272	
-0.367371	
-0.367065	
-0.36615	
-0.366211	
-0.367004	
-0.366943	
-0.367065	
-0.366516	
-0.365967	
-0.367676	
-0.367737	
-0.367981	
-0.368225	
-0.367493	
-0.367615	
-0.367432	
-0.367493	
-0.368225	
-0.368286	
-0.368103	
-0.368591	
-0.370117	
-0.369324	
-0.369934	
-0.369995	
-0.368835	
-0.36853	
-0.368469	
-0.368408	
-0.368164	
-0.368286	
-0.367004	
-0.368835	
-0.368469	
-0.368408	
-0.36853	
-0.367798	
-0.368774	
-0.366821	
-0.368103	
-0.368103	
-0.368774	
-0.368347	
-0.368652	
-0.369995	
-0.369141	
-0.370239	
-0.369019	
-0.368835	
-0.36853	
-0.368896	
-0.368713	
-0.36908	
-0.369263	
-0.368591	
-0.369385	
-0.369446	
-0.369507	
-0.370361	
-0.369507	
-0.369385	
-0.368652	
-0.3703	
-0.3703	
-0.369812	
-0.369141	
-0.369629	
-0.371338	
-0.370117	
-0.370239	
-0.370117	
-0.369934	
-0.369629	
-0.368469	
-0.36853	
-0.369263	
-0.369019	
-0.367798	
-0.369324	
-0.369324	
-0.369141	
-0.369751	
-0.368958	
-0.368713	
-0.368042	
-0.369629	
-0.369141	
-0.369202	
-0.36908	
-0.36908	
-0.369934	
-0.369751	
-0.369934	
-0.36969	
-0.369263	
-0.369385	
-0.369019	
-0.368469	
-0.369812	
-0.36969	
-0.368958	
-0.370911	
-0.370605	
-0.370239	
-0.371338	
-0.370789	
-0.369995	
-0.370056	
-0.370972	
-0.37085	
-0.371277	
-0.371155	
-0.371094	
-0.371887	
-0.371582	
-0.372192	
-0.372742	
-0.371033	
-0.371521	
-0.371704	
-0.371338	
-0.37207	
-0.372192	
-0.371094	
-0.371826	
-0.372192	
-0.37146	
-0.371704	
-0.371277	
-0.370667	
-0.370178	
-0.370972	
-0.370972	
-0.371643	
-0.371704	
-0.371582	
-0.371216	
-0.371704	
-0.372375	
-0.372681	
-0.371033	
-0.371216	
-0.371521	
-0.37085	
-0.372131	
-0.371582	
-0.371155	
-0.372375	
-0.372742	
-0.37262	
-0.371826	
-0.372437	
-0.371338	
-0.371216	
-0.371704	
-0.371033	
-0.371338	
-0.371765	
-0.372314	
-0.371765	
-0.372559	
-0.372192	
-0.372009	
-0.371887	
-0.371521	
-0.371521	
-0.37085	
-0.372375	
-0.372559	
-0.371216	
-0.372681	
-0.372925	
-0.37262	
-0.372864	
-0.373474	
-0.371826	
-0.372375	
-0.373718	
-0.373413	
-0.373901	
-0.373718	
-0.373596	
-0.373718	
-0.375061	
-0.375366	
-0.37561	
-0.374268	
-0.373474	
-0.373901	
-0.374329	
-0.374878	
-0.374268	
-0.373779	
-0.374084	
-0.374512	
-0.374451	
-0.374329	
-0.375488	
-0.374084	
-0.373718	
-0.375	
-0.375366	
-0.375549	
-0.375488	
-0.375122	
-0.375061	
-0.375122	
-0.376343	
-0.376221	
-0.376465	
-0.374878	
-0.375793	
-0.375061	
-0.375854	
-0.375488	
-0.375366	
-0.376465	
-0.375916	
-0.376709	
-0.37677	
-0.378113	
-0.376587	
-0.375793	
-0.376953	
-0.377075	
-0.377136	
-0.376892	
-0.375854	
-0.377014	
-0.378113	
-0.37915	
-0.377319	
-0.377563	
-0.376465	
-0.377502	
-0.376404	
-0.376892	
-0.377258	
-0.377502	
-0.377258	
-0.37793	
-0.37793	
-0.378113	
-0.379639	
-0.37793	
-0.377014	
-0.378418	
-0.37793	
-0.378906	
-0.379089	
-0.378784	
-0.379822	
-0.379761	
-0.381165	
-0.380432	
-0.38092	
-0.3797	
-0.380005	
-0.37915	
-0.38031	
-0.38092	
-0.380737	
-0.380188	
-0.381104	
-0.381592	
-0.381836	
-0.381653	
-0.381531	
-0.379517	
-0.380981	
-0.381165	
-0.381165	
-0.380737	
-0.380249	
-0.380615	
-0.380981	
-0.381897	
-0.380737	
-0.381409	
-0.380432	
-0.380859	
-0.380432	
-0.380554	
-0.381226	
-0.381592	
-0.380737	
-0.381042	
-0.381165	
-0.381348	
-0.380493	
-0.380737	
-0.378784	
-0.38092	
-0.380432	
-0.38092	
-0.381592	
-0.381409	
-0.380798	
-0.381531	
-0.382629	
-0.38147	
-0.382568	
-0.382263	
-0.381226	
-0.381958	
-0.382813	
-0.382263	
-0.382263	
-0.382324	
-0.382874	
-0.382935	
-0.383911	
-0.38269	
-0.382385	
-0.381653	
-0.382874	
-0.382324	
-0.382263	
-0.382263	
-0.382263	
-0.38208	
-0.382568	
-0.383545	
-0.38324	
-0.383301	
-0.382996	
-0.381836	
-0.382874	
-0.382263	
-0.382324	
-0.382629	
-0.382263	
-0.382507	
-0.38324	
-0.384888	
-0.383606	
-0.384216	
-0.383362	
-0.382385	
-0.382263	
-0.383423	
-0.383484	
-0.38324	
-0.382935	
-0.383179	
-0.382813	
-0.383484	
-0.383972	
-0.384033	
-0.38147	
-0.382996	
-0.383545	
-0.382751	
-0.383423	
-0.382813	
-0.381653	
-0.383301	
-0.384094	
-0.382324	
-0.38269	
-0.383484	
-0.383911	
-0.383789	
-0.383118	
-0.383728	
-0.38385	
-0.383789	
-0.384155	
-0.384033	
-0.38501	
-0.384094	
-0.384644	
-0.383911	
-0.384338	
-0.383911	
-0.384033	
-0.38385	
-0.384094	
-0.383301	
-0.383911	
-0.384521	
-0.384277	
-0.384705	
-0.385193	
-0.382996	
-0.384216	
-0.384583	
-0.383606	
-0.384216	
-0.383911	
-0.383972	
-0.384827	
-0.385254	
-0.384277	
-0.384399	
-0.384521	
-0.383545	
-0.383911	
-0.383789	
-0.384216	
-0.38385	
-0.384521	
-0.384583	
-0.385437	
-0.385864	
-0.384888	
-0.386475	
-0.385376	
-0.385437	
-0.385498	
-0.386108	
-0.385986	
-0.38623	
-0.385742	
-0.386353	
-0.387451	
-0.386597	
-0.387024	
-0.387268	
-0.386169	
-0.386597	
-0.386292	
-0.385803	
-0.387024	
-0.386292	
-0.385864	
-0.387207	
-0.388245	
-0.386475	
-0.386841	
-0.38739	
-0.38678	
-0.386719	
-0.386414	
-0.386414	
-0.386414	
-0.387329	
-0.386658	
-0.386658	
-0.387939	
-0.387024	
-0.387573	
-0.386963	
-0.386719	
-0.386597	
-0.387451	
-0.386597	
-0.386536	
-0.386597	
-0.386719	
-0.387512	
-0.386292	
-0.386414	
-0.386658	
-0.385925	
-0.386597	
-0.385864	
-0.387817	
-0.387451	
-0.387878	
-0.387939	
-0.388794	
-0.389832	
-0.388794	
-0.389038	
-0.387695	
-0.388062	
-0.387939	
-0.388184	
-0.387451	
-0.388123	
-0.387878	
-0.38739	
-0.388672	
-0.389038	
-0.388184	
-0.388428	
-0.388123	
-0.388428	
-0.387634	
-0.387756	
-0.387085	
-0.388	
-0.388	
-0.387573	
-0.389893	
-0.388916	
-0.38916	
-0.388245	
-0.390015	
-0.389404	
-0.388062	
-0.389343	
-0.389282	
-0.390015	
-0.390076	
-0.389526	
-0.390625	
-0.390076	
-0.390503	
-0.388245	
-0.390869	
-0.389771	
-0.389648	
-0.39032	
-0.390198	
-0.389771	
-0.389893	
-0.39093	
-0.389587	
-0.388977	
-0.388855	
-0.388306	
-0.389954	
-0.389221	
-0.388916	
-0.389038	
-0.389648	
-0.389221	
-0.389832	
-0.39093	
-0.389526	
-0.389587	
-0.388794	
-0.389771	
-0.389404	
-0.388977	
-0.389893	
-0.389893	
-0.389343	
-0.389893	
-0.389343	
-0.389893	
-0.389221	
-0.389099	
-0.387573	
-0.38855	
-0.387817	
-0.388123	
-0.388916	
-0.389282	
-0.388855	
-0.38855	
-0.389404	
-0.388794	
-0.38916	
-0.389221	
-0.387756	
-0.389709	
-0.38855	
-0.389038	
-0.388611	
-0.388794	
-0.388367	
-0.388611	
-0.388611	
-0.388062	
-0.388428	
-0.387634	
-0.387939	
-0.389038	
-0.387573	
-0.387695	
-0.388123	
-0.388611	
-0.38855	
-0.388916	
-0.388062	
-0.388916	
-0.389221	
-0.388245	
-0.389221	
-0.388733	
-0.38855	
-0.38916	
-0.388184	
-0.388611	
-0.388611	
-0.389709	
-0.388428	
-0.388672	
-0.388611	
-0.387146	
-0.388611	
-0.387573	
-0.387573	
-0.387451	
-0.388	
-0.387634	
-0.387939	
-0.388245	
-0.387207	
-0.387207	
-0.386597	
-0.386658	
-0.387756	
-0.385803	
-0.386841	
-0.386963	
-0.387512	
-0.387268	
-0.386963	
-0.387695	
-0.387817	
-0.388062	
-0.386902	
-0.388306	
-0.388	
-0.387817	
-0.388184	
-0.388	
-0.388306	
-0.38855	
-0.388489	
-0.388672	
-0.388062	
-0.388611	
-0.386536	
-0.388428	
-0.388489	
-0.388977	
-0.389404	
-0.389954	
-0.390137	
-0.390198	
-0.390015	
-0.389587	
-0.389587	
-0.388733	
-0.386841	
-0.389771	
-0.387512	
-0.388733	
-0.389038	
-0.388733	
-0.388245	
-0.388428	
-0.388672	
-0.388062	
-0.388855	
-0.387756	
-0.386597	
-0.387878	
-0.38739	
-0.388245	
-0.387146	
-0.38855	
-0.38855	
-0.38855	
-0.38855	
-0.388489	
-0.389648	
-0.388916	
-0.388977	
-0.388489	
-0.388733	
-0.389038	
-0.388794	
-0.388306	
-0.388123	
-0.388611	
-0.389587	
-0.388916	
-0.388977	
-0.38855	
-0.390137	
-0.388245	
-0.389404	
-0.388733	
-0.389648	
-0.388733	
-0.389221	
-0.389526	
-0.390503	
-0.390381	
-0.389526	
-0.389526	
-0.389648	
-0.389404	
-0.389954	
-0.389526	
-0.390564	
-0.389954	
-0.390198	
-0.390381	
-0.390564	
-0.39093	
-0.390747	
-0.389587	
-0.389893	
-0.389954	
-0.39032	
-0.389648	
-0.390686	
-0.389832	
-0.38916	
-0.389648	
-0.38916	
-0.389099	
-0.388672	
-0.388977	
-0.387878	
-0.389038	
-0.388977	
-0.389282	
-0.389282	
-0.388428	
-0.388916	
-0.389404	
-0.390015	
-0.389282	
-0.388672	
-0.388733	
-0.388672	
-0.388733	
-0.388306	
-0.389526	
-0.388977	
-0.389282	
-0.389404	
-0.38855	
-0.390076	
-0.389282	
-0.388489	
-0.388306	
-0.389099	
-0.389343	
-0.388489	
-0.389954	
-0.389893	
-0.389832	
-0.389648	
-0.389038	
-0.390442	
-0.389465	
-0.389404	
-0.388794	
-0.389343	
-0.389099	
-0.388184	
-0.388794	
-0.388367	
-0.388672	
-0.389221	
-0.388	
-0.387878	
-0.387878	
-0.388367	
-0.387207	
-0.387268	
-0.387634	
-0.388306	
-0.388306	
-0.388	
-0.387817	
-0.388794	
-0.387817	
-0.388123	
-0.387512	
-0.387573	
-0.386536	
-0.387939	
-0.387268	
-0.387634	
-0.38855	
-0.388123	
-0.387939	
-0.388916	
-0.389099	
-0.387878	
-0.387756	
-0.387695	
-0.388306	
-0.387939	
-0.388	
-0.388611	
-0.388123	
-0.388672	
-0.388794	
-0.388184	
-0.38916	
-0.388733	
-0.388	
-0.388062	
-0.388916	
-0.388489	
-0.387695	
-0.388855	
-0.388489	
-0.38855	
-0.388489	
-0.387939	
-0.388794	
-0.386902	
-0.386719	
-0.387268	
-0.387756	
-0.387146	
-0.386169	
-0.388184	
-0.386902	
-0.387817	
-0.387634	
-0.387756	
-0.387817	
-0.387085	
-0.385986	
-0.386169	
-0.386963	
-0.38739	
-0.386902	
-0.387329	
-0.386841	
-0.387329	
-0.387878	
-0.387268	
-0.387207	
-0.386719	
-0.385803	
-0.386169	
-0.385925	
-0.386169	
-0.386475	
-0.387146	
-0.386047	
-0.386475	
-0.387024	
-0.386169	
-0.38562	
-0.385559	
-0.38446	
-0.384949	
-0.385986	
-0.385925	
-0.386353	
-0.385742	
-0.386414	
-0.386719	
-0.386169	
-0.386597	
-0.386292	
-0.386292	
-0.385254	
-0.385132	
-0.386536	
-0.386047	
-0.387024	
-0.386597	
-0.387268	
-0.387878	
-0.387268	
-0.388184	
-0.387085	
-0.387024	
-0.386536	
-0.387146	
-0.387268	
-0.387207	
-0.387207	
-0.387207	
-0.386475	
-0.386963	
-0.387878	
-0.387451	
-0.386841	
-0.38739	
-0.385986	
-0.386963	
-0.386963	
-0.387634	
-0.388611	
-0.387634	
-0.387268	
-0.387329	
-0.387695	
-0.387268	
-0.387939	
-0.387207	
-0.386536	
-0.387207	
-0.386658	
-0.387878	
-0.388184	
-0.387146	
-0.38739	
-0.387939	
-0.388245	
-0.38855	
-0.388367	
-0.387085	
-0.387512	
-0.38855	
-0.387512	
-0.388184	
-0.388916	
-0.387939	
-0.388	
-0.38855	
-0.388306	
-0.387695	
-0.387939	
-0.387085	
-0.386719	
-0.388184	
	
