E:\DOCUMENTS AND SETTINGS\JPOTAS\MEUS DOCUMENTOS\UFRJ\RSCI-BM 12 WK SERIES\070718-RSCI-BM-03\RSCI-BM-03-LEMG\070718-RSCI-BM-03-LEMG-0007.ACQ
0.025000 msec/sample
1 channel
Analog input
Volts
CH1	
2000	
-0.3927	
-0.392822	
-0.393188	
-0.393677	
-0.393921	
-0.393921	
-0.394226	
-0.394531	
-0.394897	
-0.395325	
-0.394531	
-0.395264	
-0.39502	
-0.393005	
-0.394592	
-0.394775	
-0.39563	
-0.395508	
-0.396118	
-0.395996	
-0.395935	
-0.396362	
-0.396729	
-0.396973	
-0.397278	
-0.395752	
-0.396301	
-0.396484	
-0.396973	
-0.396484	
-0.396057	
-0.396729	
-0.396729	
-0.396423	
-0.397034	
-0.394714	
-0.396118	
-0.394653	
-0.394714	
-0.394409	
-0.394714	
-0.394104	
-0.393188	
-0.393677	
-0.392456	
-0.393066	
-0.393372	
-0.391907	
-0.393738	
-0.392944	
-0.391907	
-0.392578	
-0.392639	
-0.392578	
-0.393188	
-0.393372	
-0.392151	
-0.393311	
-0.394531	
-0.393738	
-0.393677	
-0.394226	
-0.3927	
-0.394958	
-0.394836	
-0.394714	
-0.394348	
-0.395142	
-0.395508	
-0.39563	
-0.395386	
-0.395996	
-0.394714	
-0.395996	
-0.395264	
-0.394592	
-0.395081	
-0.395203	
-0.395386	
-0.394714	
-0.394653	
-0.394226	
-0.394409	
-0.395447	
-0.394287	
-0.39386	
-0.392395	
-0.392334	
-0.392883	
-0.392456	
-0.391357	
-0.391785	
-0.391724	
-0.391357	
-0.391541	
-0.392212	
-0.390808	
-0.391357	
-0.392273	
-0.389832	
-0.391602	
-0.391724	
-0.391785	
-0.392151	
-0.392517	
-0.39093	
-0.392334	
-0.392578	
-0.392944	
-0.392517	
-0.393433	
-0.392517	
-0.391968	
-0.392578	
-0.393005	
-0.3927	
-0.392456	
-0.392395	
-0.392273	
-0.392395	
-0.393127	
-0.391968	
-0.392578	
-0.391235	
-0.391418	
-0.391846	
-0.39209	
-0.391907	
-0.392151	
-0.393066	
-0.392273	
-0.393005	
-0.393311	
-0.393677	
-0.394226	
-0.394226	
-0.394226	
-0.394653	
-0.394531	
-0.395264	
-0.396118	
-0.396118	
-0.394836	
-0.396301	
-0.397156	
-0.395935	
-0.396729	
-0.396179	
-0.39563	
-0.395996	
-0.396179	
-0.396545	
-0.396545	
-0.396667	
-0.395203	
-0.395325	
-0.395264	
-0.395264	
-0.395203	
-0.395142	
-0.395081	
-0.394775	
-0.394775	
-0.395935	
-0.395569	
-0.395203	
-0.395264	
-0.395447	
-0.395874	
-0.395691	
-0.396362	
-0.396423	
-0.39502	
-0.39563	
-0.395569	
-0.396301	
-0.39502	
-0.395386	
-0.39624	
-0.395142	
-0.395813	
-0.396301	
-0.395264	
-0.395569	
-0.395203	
-0.394653	
-0.393494	
-0.39386	
-0.394836	
-0.394714	
-0.396057	
-0.394287	
-0.394531	
-0.395325	
-0.394348	
-0.394836	
-0.393616	
-0.207275	
0.0992432	
-0.0168457	
-0.0472412	
-0.0532227	
-0.0484619	
-0.408936	
-0.512512	
-0.393677	
-0.355286	
-0.339783	
-0.33313	
-0.330078	
-0.327515	
-0.326721	
-0.325562	
-0.324219	
-0.323547	
-0.324158	
-0.324951	
-0.32312	
-0.322266	
-0.322083	
-0.322449	
-0.323547	
-0.323608	
-0.323669	
-0.323792	
-0.324219	
-0.32489	
-0.3255	
-0.325867	
-0.0894165	
0.163574	
0.0494385	
0.019043	
0.0148926	
0.0175781	
-0.374634	
-0.446167	
-0.327515	
-0.289673	
-0.275269	
-0.266479	
-0.265076	
-0.263611	
-0.262024	
-0.261353	
-0.261475	
-0.261475	
-0.262451	
-0.265198	
-0.263611	
-0.265381	
-0.266174	
-0.267944	
-0.272949	
-0.276672	
-0.280457	
-0.285156	
-0.288086	
-0.29126	
-0.296875	
-0.297852	
-0.300232	
-0.303772	
-0.306335	
-0.31311	
-0.318542	
-0.324707	
-0.332092	
-0.339417	
-0.347351	
-0.356018	
-0.362427	
-0.365906	
-0.369507	
-0.372131	
-0.377869	
-0.381836	
-0.384521	
-0.386963	
-0.389343	
-0.391663	
-0.39386	
-0.395447	
-0.396545	
-0.397461	
-0.397034	
-0.39624	
-0.398804	
-0.398376	
-0.398438	
-0.398376	
-0.398376	
-0.399902	
-0.400818	
-0.403625	
-0.401001	
-0.401611	
-0.401611	
-0.403076	
-0.404602	
-0.406616	
-0.408569	
-0.410889	
-0.414246	
-0.415527	
-0.417847	
-0.417725	
-0.41864	
-0.418274	
-0.417053	
-0.417236	
-0.41687	
-0.414673	
-0.411804	
-0.409973	
-0.406677	
-0.404297	
-0.401794	
-0.398499	
-0.394836	
-0.391418	
-0.389709	
-0.386658	
-0.382446	
-0.3797	
-0.37677	
-0.372437	
-0.369385	
-0.365479	
-0.35791	
-0.352905	
-0.348206	
-0.342407	
-0.338074	
-0.332825	
-0.327332	
-0.321716	
-0.317566	
-0.311462	
-0.307373	
-0.302246	
-0.296082	
-0.291138	
-0.284851	
-0.28009	
-0.276489	
-0.271606	
-0.266785	
-0.261353	
-0.257019	
-0.251526	
-0.24823	
-0.242126	
-0.235352	
-0.22876	
-0.222351	
-0.216553	
-0.211365	
-0.205933	
-0.200745	
-0.195801	
-0.189819	
-0.184937	
-0.180176	
-0.175354	
-0.168579	
-0.163574	
-0.158936	
-0.156128	
-0.153015	
-0.150024	
-0.148193	
-0.146851	
-0.14679	
-0.146057	
-0.147034	
-0.147339	
-0.148804	
-0.15155	
-0.154541	
-0.159424	
-0.162659	
-0.166443	
-0.171265	
-0.176086	
-0.180481	
-0.185974	
-0.189636	
-0.193115	
-0.197754	
-0.20166	
-0.206299	
-0.209961	
-0.214294	
-0.217896	
-0.221619	
-0.225159	
-0.230042	
-0.233398	
-0.235413	
-0.239197	
-0.243286	
-0.247742	
-0.25177	
-0.255432	
-0.259399	
-0.263855	
-0.266785	
-0.269104	
-0.272034	
-0.272705	
-0.275452	
-0.276978	
-0.280029	
-0.281555	
-0.282288	
-0.283691	
-0.2854	
-0.28656	
-0.28595	
-0.286072	
-0.284973	
-0.285828	
-0.28479	
-0.283203	
-0.283508	
-0.282166	
-0.280945	
-0.27948	
-0.278076	
-0.274902	
-0.273987	
-0.271912	
-0.2677	
-0.266357	
-0.262878	
-0.261902	
-0.259888	
-0.256836	
-0.254456	
-0.251099	
-0.251221	
-0.248535	
-0.24646	
-0.243164	
-0.243042	
-0.242004	
-0.242188	
-0.242554	
-0.242188	
-0.243042	
-0.243286	
-0.246338	
-0.247192	
-0.248596	
-0.250549	
-0.250549	
-0.253235	
-0.256104	
-0.258057	
-0.259277	
-0.262024	
-0.263	
-0.266113	
-0.269104	
-0.26886	
-0.270081	
-0.270691	
-0.272217	
-0.2724	
-0.275635	
-0.276184	
-0.276978	
-0.277405	
-0.279663	
-0.281616	
-0.282654	
-0.284546	
-0.285034	
-0.285767	
-0.289124	
-0.291016	
-0.29248	
-0.295654	
-0.296936	
-0.297485	
-0.30127	
-0.303589	
-0.30481	
-0.306091	
-0.306091	
-0.308777	
-0.31012	
-0.310364	
-0.312073	
-0.313354	
-0.31366	
-0.314941	
-0.315857	
-0.317078	
-0.317261	
-0.316711	
-0.318604	
-0.319824	
-0.320984	
-0.321289	
-0.320862	
-0.320679	
-0.320984	
-0.322754	
-0.320068	
-0.319031	
-0.318237	
-0.317871	
-0.316284	
-0.31604	
-0.315063	
-0.313171	
-0.312744	
-0.310608	
-0.311951	
-0.309937	
-0.30835	
-0.30658	
-0.306213	
-0.304749	
-0.304077	
-0.305115	
-0.303101	
-0.301575	
-0.299927	
-0.30072	
-0.30011	
-0.299011	
-0.298645	
-0.295288	
-0.297852	
-0.297424	
-0.298828	
-0.298889	
-0.298035	
-0.297668	
-0.298523	
-0.300659	
-0.30072	
-0.300293	
-0.300598	
-0.301758	
-0.302246	
-0.303528	
-0.303894	
-0.304626	
-0.304626	
-0.304626	
-0.305908	
-0.306702	
-0.307129	
-0.307251	
-0.306641	
-0.307678	
-0.309082	
-0.309937	
-0.310242	
-0.311401	
-0.311218	
-0.311768	
-0.313049	
-0.312988	
-0.31311	
-0.313599	
-0.313416	
-0.314819	
-0.315674	
-0.316406	
-0.315979	
-0.315308	
-0.315918	
-0.317688	
-0.315979	
-0.316345	
-0.316467	
-0.315674	
-0.317505	
-0.317322	
-0.318176	
-0.317444	
-0.318848	
-0.318054	
-0.319153	
-0.319763	
-0.319397	
-0.319763	
-0.319092	
-0.321167	
-0.321777	
-0.322327	
-0.322021	
-0.322815	
-0.323303	
-0.323303	
-0.325378	
-0.323181	
-0.324951	
-0.324036	
-0.326416	
-0.326782	
-0.327271	
-0.327332	
-0.327209	
-0.328247	
-0.327209	
-0.328064	
-0.327454	
-0.327209	
-0.326721	
-0.327393	
-0.326782	
-0.32666	
-0.32782	
-0.327148	
-0.327393	
-0.327026	
-0.32782	
-0.326965	
-0.327148	
-0.32605	
-0.326233	
-0.326233	
-0.327209	
-0.327454	
-0.327942	
-0.328308	
-0.328491	
-0.327515	
-0.327393	
-0.326294	
-0.326843	
-0.326172	
-0.327393	
-0.327026	
-0.327148	
-0.327026	
-0.326477	
-0.327637	
-0.326782	
-0.326843	
-0.326538	
-0.32605	
-0.327026	
-0.327393	
-0.327393	
-0.327515	
-0.328125	
-0.327698	
-0.328552	
-0.329224	
-0.329224	
-0.328674	
-0.327454	
-0.329651	
-0.330078	
-0.330505	
-0.331787	
-0.332764	
-0.332703	
-0.333191	
-0.333984	
-0.333679	
-0.334106	
-0.333435	
-0.3349	
-0.335022	
-0.335144	
-0.335327	
-0.335754	
-0.336609	
-0.336487	
-0.337219	
-0.336548	
-0.336914	
-0.335144	
-0.33606	
-0.33667	
-0.337463	
-0.337524	
-0.337891	
-0.33905	
-0.33844	
-0.339478	
-0.339233	
-0.339417	
-0.338867	
-0.338379	
-0.33783	
-0.339539	
-0.339905	
-0.339844	
-0.339722	
-0.339905	
-0.340576	
-0.340454	
-0.339539	
-0.339111	
-0.336792	
-0.338135	
-0.33905	
-0.338684	
-0.338257	
-0.338196	
-0.33844	
-0.338196	
-0.339783	
-0.338562	
-0.337158	
-0.337524	
-0.337341	
-0.338196	
-0.337891	
-0.338013	
-0.338196	
-0.338684	
-0.339355	
-0.339905	
-0.339905	
-0.338989	
-0.339966	
-0.33905	
-0.339722	
-0.340271	
-0.341125	
-0.34082	
-0.341248	
-0.342529	
-0.342163	
-0.343323	
-0.343323	
-0.342651	
-0.341553	
-0.341187	
-0.342773	
-0.342834	
-0.34314	
-0.342407	
-0.343628	
-0.34375	
-0.344849	
-0.344604	
-0.342346	
-0.342041	
-0.342529	
-0.342651	
-0.343079	
-0.342957	
-0.34259	
-0.342346	
-0.342224	
-0.343262	
-0.342651	
-0.341064	
-0.34082	
-0.340454	
-0.340881	
-0.341675	
-0.342102	
-0.341919	
-0.341797	
-0.342834	
-0.34259	
-0.343384	
-0.343018	
-0.34259	
-0.342163	
-0.341736	
-0.34375	
-0.343811	
-0.343506	
-0.344177	
-0.344666	
-0.344727	
-0.344971	
-0.345703	
-0.343445	
-0.344055	
-0.34314	
-0.344116	
-0.344727	
-0.344849	
-0.344604	
-0.34436	
-0.345398	
-0.345947	
-0.346008	
-0.344727	
-0.344788	
-0.344299	
-0.343872	
-0.345886	
-0.346069	
-0.345642	
-0.346008	
-0.347229	
-0.347656	
-0.348877	
-0.348694	
-0.347229	
-0.348267	
-0.34845	
-0.350159	
-0.349731	
-0.349854	
-0.350647	
-0.351196	
-0.352173	
-0.352783	
-0.352478	
-0.351135	
-0.351074	
-0.350464	
-0.351257	
-0.351257	
-0.351135	
-0.351257	
-0.350769	
-0.350952	
-0.351135	
-0.351563	
-0.35144	
-0.350159	
-0.349609	
-0.349976	
-0.350952	
-0.350952	
-0.350647	
-0.35144	
-0.351868	
-0.352722	
-0.351868	
-0.352417	
-0.351746	
-0.350525	
-0.350891	
-0.35083	
-0.352356	
-0.352173	
-0.352417	
-0.352234	
-0.352783	
-0.353699	
-0.354126	
-0.352844	
-0.351318	
-0.351929	
-0.352112	
-0.35199	
-0.352417	
-0.352417	
-0.352478	
-0.353577	
-0.354431	
-0.352966	
-0.352966	
-0.35199	
-0.352356	
-0.351074	
-0.351807	
-0.352295	
-0.352295	
-0.352722	
-0.353149	
-0.353271	
-0.352661	
-0.353516	
-0.351929	
-0.350769	
-0.351868	
-0.351563	
-0.35199	
-0.352478	
-0.352417	
-0.352051	
-0.352356	
-0.353027	
-0.353271	
-0.352783	
-0.351318	
-0.352112	
-0.351135	
-0.352539	
-0.353027	
-0.352661	
-0.352905	
-0.3526	
-0.353943	
-0.35437	
-0.353943	
-0.352661	
-0.352844	
-0.351379	
-0.352539	
-0.353455	
-0.353088	
-0.353882	
-0.353577	
-0.354126	
-0.354614	
-0.355347	
-0.354553	
-0.352417	
-0.354187	
-0.354431	
-0.355896	
-0.355713	
-0.355957	
-0.35675	
-0.356995	
-0.358704	
-0.357971	
-0.35907	
-0.357666	
-0.35791	
-0.356689	
-0.358948	
-0.358459	
-0.358276	
-0.358948	
-0.358521	
-0.359497	
-0.359558	
-0.360779	
-0.358948	
-0.358582	
-0.35791	
-0.357056	
-0.358582	
-0.359253	
-0.358582	
-0.357788	
-0.357788	
-0.358215	
-0.358765	
-0.358215	
-0.356873	
-0.357117	
-0.35675	
-0.358521	
-0.358337	
-0.358398	
-0.359192	
-0.359192	
-0.359924	
-0.360474	
-0.361694	
-0.358948	
-0.358948	
-0.359314	
-0.359619	
-0.35968	
-0.359924	
-0.360962	
-0.361023	
-0.361023	
-0.361389	
-0.36145	
-0.36084	
-0.359497	
-0.360901	
-0.358032	
-0.36084	
-0.361572	
-0.361816	
-0.362183	
-0.362061	
-0.363525	
-0.363403	
-0.365662	
-0.363281	
-0.362915	
-0.362549	
-0.363708	
-0.364441	
-0.363953	
-0.363953	
-0.363892	
-0.364441	
-0.364868	
-0.365784	
-0.364136	
-0.363281	
-0.363403	
-0.362122	
-0.363892	
-0.36377	
-0.36377	
-0.363586	
-0.362976	
-0.364075	
-0.363403	
-0.363342	
-0.361816	
-0.361023	
-0.359863	
-0.361145	
-0.360657	
-0.360657	
-0.360718	
-0.360962	
-0.36145	
-0.360962	
-0.362061	
-0.359985	
-0.360291	
-0.359741	
-0.358826	
-0.359497	
-0.360107	
-0.360474	
-0.360229	
-0.360046	
-0.360229	
-0.361023	
-0.361084	
-0.358643	
-0.358276	
-0.358276	
-0.359497	
-0.359436	
-0.359863	
-0.359802	
-0.360046	
-0.361023	
-0.361694	
-0.362671	
-0.360596	
-0.361023	
-0.360046	
-0.360901	
-0.362244	
-0.362366	
-0.362061	
-0.362427	
-0.363281	
-0.364014	
-0.365479	
-0.364502	
-0.363281	
-0.363586	
-0.364685	
-0.364441	
-0.364929	
-0.364807	
-0.364929	
-0.36554	
-0.365723	
-0.366577	
-0.365479	
-0.365417	
-0.364563	
-0.363953	
-0.36322	
-0.364868	
-0.365234	
-0.364929	
-0.364807	
-0.364441	
-0.365967	
-0.365662	
-0.364136	
-0.361877	
-0.361084	
-0.363525	
-0.363403	
-0.36377	
-0.363708	
-0.364319	
-0.364136	
-0.365112	
-0.36615	
-0.364197	
-0.364075	
-0.363525	
-0.364258	
-0.364258	
-0.365356	
-0.364746	
-0.365356	
-0.366211	
-0.366699	
-0.367676	
-0.367126	
-0.368225	
-0.367371	
-0.365784	
-0.368286	
-0.36853	
-0.368713	
-0.368958	
-0.368835	
-0.369202	
-0.369751	
-0.370605	
-0.369324	
-0.369568	
-0.367615	
-0.368958	
-0.368164	
-0.368713	
-0.368896	
-0.368774	
-0.369019	
-0.368896	
-0.370667	
-0.368896	
-0.369202	
-0.367981	
-0.367798	
-0.368713	
-0.368774	
-0.369385	
-0.368958	
-0.369263	
-0.36969	
-0.371033	
-0.371155	
-0.369995	
-0.369873	
-0.367859	
-0.370422	
-0.369873	
-0.3703	
-0.369629	
-0.369812	
-0.369934	
-0.369812	
-0.370911	
-0.368958	
-0.368835	
-0.366699	
-0.366943	
-0.366882	
-0.366394	
-0.366455	
-0.366882	
-0.366943	
-0.366638	
-0.367798	
-0.367859	
-0.366943	
-0.366638	
-0.365662	
-0.366089	
-0.366333	
-0.366516	
-0.366699	
-0.367126	
-0.367798	
-0.36853	
-0.369629	
-0.368225	
-0.367615	
-0.366516	
-0.366943	
-0.369019	
-0.367981	
-0.368347	
-0.36908	
-0.368774	
-0.368774	
-0.370544	
-0.370422	
-0.368958	
-0.369263	
-0.368164	
-0.369202	
-0.368835	
-0.36853	
-0.369263	
-0.368958	
-0.368835	
-0.36969	
-0.370178	
-0.368774	
-0.36969	
-0.367737	
-0.368408	
-0.369873	
-0.369141	
-0.370239	
-0.3703	
-0.3703	
-0.370789	
-0.372131	
-0.371765	
-0.37146	
-0.371033	
-0.370422	
-0.372131	
-0.372131	
-0.371521	
-0.371704	
-0.371643	
-0.371765	
-0.372559	
-0.373047	
-0.372742	
-0.372253	
-0.372498	
-0.371704	
-0.37262	
-0.372986	
-0.373474	
-0.373352	
-0.373718	
-0.374573	
-0.375488	
-0.374451	
-0.373596	
-0.373657	
-0.37323	
-0.374146	
-0.374756	
-0.37384	
-0.373901	
-0.374329	
-0.375305	
-0.375671	
-0.375122	
-0.37439	
-0.374146	
-0.374695	
-0.373962	
-0.375061	
-0.374756	
-0.374756	
-0.374756	
-0.374878	
-0.375	
-0.376343	
-0.375793	
-0.375061	
-0.373352	
-0.373962	
-0.374573	
-0.374634	
-0.373596	
-0.374084	
-0.373779	
-0.373169	
-0.374268	
-0.373718	
-0.372864	
-0.372253	
-0.372498	
-0.371582	
-0.373108	
-0.372559	
-0.37207	
-0.372681	
-0.372681	
-0.373291	
-0.373718	
-0.373291	
-0.37323	
-0.372314	
-0.372681	
-0.373901	
-0.373474	
-0.372437	
-0.373779	
-0.374084	
-0.374634	
-0.375793	
-0.375793	
-0.375732	
-0.375183	
-0.375061	
-0.374939	
-0.375305	
-0.374756	
-0.375854	
-0.375549	
-0.375793	
-0.375854	
-0.37677	
-0.375549	
-0.374451	
-0.373718	
-0.374939	
-0.374817	
-0.374756	
-0.375	
-0.374634	
-0.374695	
-0.374329	
-0.375977	
-0.375549	
-0.375305	
-0.374512	
-0.374878	
-0.374573	
-0.375244	
-0.374451	
-0.374573	
-0.374146	
-0.374695	
-0.375122	
-0.375061	
-0.374634	
-0.373596	
-0.371155	
-0.373291	
-0.373413	
-0.372986	
-0.372803	
-0.373901	
-0.373169	
-0.373413	
-0.37561	
-0.373657	
-0.373413	
-0.373962	
-0.373108	
-0.372314	
-0.374268	
-0.37384	
-0.374695	
-0.374512	
-0.374756	
-0.376282	
-0.376465	
-0.377441	
-0.376587	
-0.375854	
-0.377075	
-0.378296	
-0.37854	
-0.378784	
-0.379028	
-0.379028	
-0.379517	
-0.38147	
-0.380127	
-0.380066	
-0.379639	
-0.379211	
-0.380127	
-0.380371	
-0.379761	
-0.380737	
-0.38092	
-0.380798	
-0.381958	
-0.381836	
-0.382263	
-0.38147	
-0.380737	
-0.381836	
-0.382202	
-0.382202	
-0.382568	
-0.381958	
-0.382507	
-0.383301	
-0.383789	
-0.383301	
-0.383484	
-0.381775	
-0.38208	
-0.38208	
-0.38208	
-0.380798	
-0.38147	
-0.381531	
-0.381714	
-0.381592	
-0.38092	
-0.381348	
-0.380371	
-0.37915	
-0.378662	
-0.378723	
-0.3797	
-0.3797	
-0.3797	
-0.379761	
-0.380371	
-0.380981	
-0.380676	
-0.380676	
-0.379395	
-0.380737	
-0.38092	
-0.381042	
-0.380127	
-0.381348	
-0.380981	
-0.381592	
-0.382507	
-0.382202	
-0.382874	
-0.382751	
-0.382996	
-0.38208	
-0.382019	
-0.382935	
-0.383301	
-0.382996	
-0.383118	
-0.383118	
-0.383911	
-0.38385	
-0.384399	
-0.381897	
-0.383362	
-0.382813	
-0.382874	
-0.38208	
-0.383057	
-0.382874	
-0.381836	
-0.382935	
-0.382568	
-0.381836	
-0.380859	
-0.380676	
-0.379822	
-0.380249	
-0.380066	
-0.380554	
-0.380188	
-0.380066	
-0.381042	
-0.380981	
-0.380554	
-0.380188	
-0.380005	
-0.379822	
-0.379822	
-0.380615	
-0.381165	
-0.381165	
-0.381226	
-0.381714	
-0.382141	
-0.382935	
-0.382813	
-0.381836	
-0.38269	
-0.382202	
-0.381836	
-0.381531	
-0.382263	
-0.382019	
-0.382141	
-0.382507	
-0.381958	
-0.382263	
-0.381714	
-0.38147	
-0.381775	
-0.379883	
-0.380066	
-0.38147	
-0.381836	
-0.382141	
-0.382202	
-0.382996	
-0.383362	
-0.384521	
-0.384277	
-0.384644	
-0.383606	
-0.385254	
-0.385803	
-0.384705	
-0.385986	
-0.386597	
-0.386841	
-0.386536	
-0.387939	
-0.387024	
-0.387085	
-0.387939	
-0.38623	
-0.386108	
-0.387329	
-0.387329	
-0.387207	
-0.386719	
-0.387268	
-0.386475	
-0.387512	
-0.387268	
-0.386841	
-0.385193	
-0.385498	
-0.385986	
-0.385498	
-0.386536	
-0.385925	
-0.386475	
-0.386902	
-0.387024	
-0.387146	
-0.385559	
-0.387329	
-0.384949	
-0.386292	
-0.386902	
-0.386597	
-0.386841	
-0.387207	
-0.388367	
-0.386658	
-0.388184	
-0.38678	
-0.386536	
-0.386353	
-0.386353	
-0.385681	
-0.385315	
-0.386536	
-0.386475	
-0.386963	
-0.386719	
-0.387268	
-0.387207	
-0.386292	
-0.386963	
-0.384521	
-0.385559	
-0.386108	
-0.386169	
-0.386536	
-0.386719	
-0.386719	
-0.386292	
-0.387146	
-0.385986	
-0.386658	
-0.385437	
-0.385071	
-0.385681	
-0.384888	
-0.385437	
-0.385559	
-0.385498	
-0.386169	
-0.385559	
-0.386536	
-0.384949	
-0.385742	
-0.38446	
-0.384888	
-0.384277	
-0.384705	
-0.385193	
-0.385437	
-0.385864	
-0.385864	
-0.385559	
-0.385376	
-0.385498	
-0.385742	
-0.382751	
-0.385132	
-0.38446	
-0.385437	
-0.385498	
-0.38562	
-0.386047	
-0.385986	
-0.387329	
-0.385559	
-0.386047	
-0.385742	
-0.386292	
-0.386353	
-0.385376	
-0.387268	
-0.387634	
-0.388184	
-0.388306	
-0.389404	
-0.389343	
-0.387756	
-0.390686	
-0.388062	
-0.389526	
-0.389893	
-0.389526	
-0.389343	
-0.389771	
-0.390869	
-0.389893	
-0.390747	
-0.389343	
-0.390076	
-0.391174	
-0.387878	
-0.389343	
-0.388672	
-0.389404	
-0.388916	
-0.388306	
-0.387817	
-0.387939	
-0.389343	
-0.387329	
-0.388367	
-0.386963	
-0.388123	
-0.387634	
-0.387146	
-0.388428	
-0.388306	
-0.388977	
-0.388611	
-0.389832	
-0.389282	
-0.388855	
-0.389709	
-0.388855	
-0.389832	
-0.389038	
-0.388794	
-0.389893	
-0.390137	
-0.390747	
-0.390076	
-0.390503	
-0.389709	
-0.389282	
-0.389954	
-0.390381	
-0.390259	
-0.390015	
-0.389771	
-0.390747	
-0.391296	
-0.391296	
-0.391907	
-0.392883	
-0.391113	
-0.392273	
-0.393066	
-0.392334	
-0.392151	
-0.391418	
-0.392578	
-0.392883	
-0.392944	
-0.393066	
-0.392822	
-0.391602	
-0.392273	
-0.3927	
-0.391052	
-0.391602	
-0.391907	
-0.391113	
-0.391479	
-0.390869	
-0.391479	
-0.390991	
-0.390625	
-0.389343	
-0.388489	
-0.388489	
-0.388672	
-0.388184	
-0.387695	
-0.387756	
-0.38855	
-0.388062	
-0.388428	
-0.388611	
-0.387451	
-0.387207	
-0.387512	
-0.387817	
-0.387085	
-0.386902	
-0.386047	
-0.387268	
-0.387024	
-0.386658	
-0.386536	
-0.387024	
-0.386658	
-0.384705	
-0.385986	
-0.385681	
-0.386658	
-0.386047	
-0.385498	
-0.38623	
-0.387146	
-0.387573	
-0.387573	
-0.388123	
-0.387451	
-0.38739	
-0.387939	
-0.387634	
-0.388245	
-0.387085	
-0.387512	
-0.388672	
-0.389404	
-0.389954	
-0.390503	
-0.389465	
-0.390076	
-0.390381	
-0.389893	
-0.390564	
-0.389404	
-0.389282	
-0.390442	
-0.390808	
-0.390869	
-0.391418	
-0.391357	
-0.390137	
-0.389954	
-0.389832	
-0.390198	
-0.389099	
-0.389526	
-0.389343	
-0.389343	
-0.388672	
-0.388916	
-0.388489	
-0.387878	
-0.387878	
-0.38678	
-0.387451	
-0.387878	
-0.388	
-0.387878	
-0.387451	
-0.388123	
-0.388123	
-0.388855	
-0.389648	
-0.388184	
-0.387939	
-0.387756	
-0.389832	
-0.389038	
-0.389587	
-0.388672	
-0.39032	
-0.390442	
-0.390686	
-0.391846	
-0.392517	
-0.392029	
-0.391174	
-0.391785	
-0.392334	
-0.391785	
-0.391846	
-0.391663	
-0.391907	
-0.392395	
-0.392456	
-0.393616	
-0.392883	
-0.392273	
-0.391235	
-0.391418	
-0.391968	
-0.391418	
-0.390503	
-0.390198	
-0.390869	
-0.390991	
-0.391418	
-0.392517	
-0.391357	
-0.390991	
-0.390503	
-0.39093	
-0.391602	
-0.391235	
-0.390869	
-0.390564	
-0.391724	
-0.392029	
-0.392151	
-0.3927	
-0.392151	
-0.391907	
-0.389648	
-0.392029	
-0.391174	
-0.391235	
-0.389771	
-0.390198	
-0.39032	
-0.389832	
-0.390686	
-0.38916	
-0.388367	
-0.387817	
-0.388062	
-0.388733	
-0.387573	
-0.387695	
-0.387329	
-0.387573	
-0.38739	
-0.387634	
-0.389221	
-0.387268	
-0.387146	
-0.386719	
-0.387878	
-0.388733	
-0.388184	
-0.388245	
-0.388062	
-0.388245	
-0.388611	
-0.389526	
-0.389709	
-0.388855	
-0.388611	
-0.387573	
-0.38916	
-0.388855	
-0.388489	
-0.388	
-0.387817	
-0.388794	
-0.388489	
-0.389282	
-0.38916	
-0.38855	
-0.387695	
-0.387817	
-0.389221	
-0.388306	
-0.388672	
-0.388306	
-0.388367	
-0.388123	
-0.389343	
-0.389954	
-0.389221	
-0.388855	
-0.388	
-0.388672	
-0.390137	
-0.389282	
-0.388977	
-0.387512	
-0.389404	
-0.390076	
-0.391357	
-0.390991	
-0.389648	
-0.389893	
-0.388367	
-0.38916	
-0.390137	
-0.390259	
-0.390137	
-0.38855	
-0.390869	
-0.390503	
-0.391602	
-0.390747	
-0.390503	
-0.390625	
-0.389282	
-0.391296	
-0.391113	
-0.390564	
-0.390808	
-0.389404	
-0.391235	
-0.391602	
-0.392639	
-0.391907	
-0.391235	
-0.390442	
-0.390747	
-0.392334	
-0.391235	
-0.391174	
-0.390747	
-0.390869	
-0.391541	
-0.391907	
-0.392517	
-0.391235	
-0.390564	
-0.389648	
-0.390503	
-0.392395	
-0.391113	
-0.391541	
-0.390686	
-0.390869	
-0.390686	
-0.39093	
-0.391479	
-0.389526	
-0.389282	
-0.387939	
-0.388977	
-0.389282	
-0.388123	
-0.388184	
-0.387024	
-0.388062	
-0.387817	
-0.388977	
-0.389099	
-0.387878	
-0.387207	
-0.386292	
-0.388733	
-0.388672	
-0.388367	
-0.387634	
-0.387695	
-0.388245	
-0.38855	
-0.389709	
-0.388977	
-0.388062	
-0.388428	
-0.387756	
-0.390625	
-0.389893	
-0.390137	
-0.389465	
-0.388855	
-0.390076	
-0.389832	
-0.390259	
-0.389954	
-0.389709	
-0.389221	
-0.387878	
-0.389648	
-0.388794	
-0.388794	
-0.388306	
-0.387329	
-0.388428	
-0.388489	
-0.389648	
-0.388306	
-0.387268	
-0.386902	
-0.387512	
-0.388855	
-0.388428	
-0.388123	
-0.387573	
-0.387756	
-0.388184	
-0.388428	
-0.388611	
-0.387268	
-0.387268	
-0.386047	
-0.386963	
-0.387451	
-0.386597	
-0.385986	
-0.385864	
-0.385681	
-0.386108	
-0.386597	
-0.386475	
-0.385864	
-0.385437	
-0.385071	
-0.385803	
-0.386047	
-0.386353	
-0.386169	
-0.385315	
-0.386108	
-0.386902	
-0.388123	
-0.387207	
-0.386841	
-0.387146	
-0.388	
-0.387695	
-0.388489	
-0.388977	
-0.388062	
	
