E:\DOCUMENTS AND SETTINGS\JPOTAS\MEUS DOCUMENTOS\UFRJ\RSCI-BM 12 WK SERIES\070718-RSCI-BM-03\RSCI-BM-03-LEMG\070718-RSCI-BM-03-LEMG-0014.ACQ
0.025000 msec/sample
1 channel
Analog input
Volts
CH1	
2000	
-0.395142	
-0.394104	
-0.393982	
-0.39502	
-0.393372	
-0.394592	
-0.394653	
-0.395081	
-0.396118	
-0.395264	
-0.394043	
-0.395081	
-0.396484	
-0.396057	
-0.395874	
-0.396179	
-0.395325	
-0.395813	
-0.396423	
-0.396545	
-0.397034	
-0.396423	
-0.396545	
-0.39624	
-0.39624	
-0.395569	
-0.395691	
-0.395935	
-0.393799	
-0.394287	
-0.394226	
-0.394836	
-0.39502	
-0.39386	
-0.392944	
-0.392517	
-0.393311	
-0.391479	
-0.391724	
-0.39325	
-0.391724	
-0.392517	
-0.391907	
-0.392273	
-0.392639	
-0.392395	
-0.392273	
-0.392395	
-0.39386	
-0.393555	
-0.393555	
-0.393555	
-0.393616	
-0.394226	
-0.394287	
-0.394287	
-0.395325	
-0.394897	
-0.394958	
-0.394714	
-0.395447	
-0.395447	
-0.394958	
-0.394897	
-0.393555	
-0.39502	
-0.395142	
-0.395386	
-0.395203	
-0.394592	
-0.39447	
-0.394043	
-0.394836	
-0.394775	
-0.394897	
-0.394409	
-0.393188	
-0.393555	
-0.393311	
-0.393921	
-0.393677	
-0.393066	
-0.392212	
-0.391052	
-0.392334	
-0.393066	
-0.391113	
-0.390625	
-0.390564	
-0.390747	
-0.390198	
-0.390686	
-0.391235	
-0.390808	
-0.390625	
-0.388977	
-0.390869	
-0.391235	
-0.390564	
-0.390869	
-0.391052	
-0.390869	
-0.391541	
-0.391113	
-0.391968	
-0.391663	
-0.391052	
-0.390442	
-0.39209	
-0.392578	
-0.391357	
-0.392029	
-0.392395	
-0.391174	
-0.391663	
-0.391602	
-0.393066	
-0.392517	
-0.392822	
-0.391907	
-0.393127	
-0.394287	
-0.393311	
-0.3927	
-0.393494	
-0.393372	
-0.393982	
-0.39447	
-0.395508	
-0.395264	
-0.394958	
-0.394836	
-0.395325	
-0.396973	
-0.395752	
-0.395447	
-0.396667	
-0.394897	
-0.396301	
-0.395996	
-0.397461	
-0.396423	
-0.395996	
-0.395813	
-0.396057	
-0.397034	
-0.395813	
-0.39563	
-0.395447	
-0.394287	
-0.395142	
-0.394409	
-0.395996	
-0.394531	
-0.393616	
-0.392883	
-0.393494	
-0.395203	
-0.394104	
-0.394104	
-0.394836	
-0.393066	
-0.393982	
-0.393982	
-0.396362	
-0.394226	
-0.39447	
-0.393799	
-0.394409	
-0.395203	
-0.393799	
-0.394043	
-0.394287	
-0.393494	
-0.394958	
-0.394592	
-0.396423	
-0.394714	
-0.394775	
-0.394775	
-0.394958	
-0.396057	
-0.395508	
-0.395203	
-0.395935	
-0.394348	
-0.395569	
-0.395874	
-0.396851	
-0.395508	
-0.396423	
-0.395325	
-0.393921	
-0.395264	
-0.395813	
-0.394775	
-0.394958	
-0.203491	
0.053833	
-0.0415649	
-0.0666504	
-0.0698242	
-0.06604	
-0.406799	
-0.483704	
-0.385132	
-0.351257	
-0.335815	
-0.331665	
-0.327271	
-0.326294	
-0.325562	
-0.32428	
-0.323853	
-0.323914	
-0.32605	
-0.324219	
-0.324402	
-0.323242	
-0.323181	
-0.324158	
-0.324097	
-0.325073	
-0.325195	
-0.326599	
-0.326111	
-0.326599	
-0.328003	
-0.32782	
-0.327637	
-0.325928	
-0.327393	
-0.32782	
-0.328796	
-0.328796	
-0.328979	
-0.329407	
-0.329834	
-0.331604	
-0.330933	
-0.330322	
-0.328918	
-0.329468	
-0.330078	
-0.330261	
-0.330078	
-0.331299	
-0.332336	
-0.333252	
-0.334412	
-0.336365	
-0.337952	
-0.340088	
-0.342285	
-0.345703	
-0.349731	
-0.354553	
-0.358276	
-0.361755	
-0.365417	
-0.368774	
-0.373352	
-0.377258	
-0.381958	
-0.38562	
-0.390808	
-0.400269	
-0.407959	
-0.417236	
-0.426147	
-0.43335	
-0.440002	
-0.44751	
-0.453186	
-0.45697	
-0.459412	
-0.462891	
-0.467163	
-0.470032	
-0.472534	
-0.475403	
-0.47699	
-0.479187	
-0.481445	
-0.482849	
-0.481995	
-0.481995	
-0.480957	
-0.482483	
-0.481262	
-0.482178	
-0.482361	
-0.482727	
-0.48291	
-0.483521	
-0.484131	
-0.484741	
-0.485352	
-0.484436	
-0.48468	
-0.487671	
-0.489929	
-0.49115	
-0.492554	
-0.493652	
-0.494263	
-0.495544	
-0.495667	
-0.494568	
-0.49353	
-0.490479	
-0.487854	
-0.485901	
-0.483582	
-0.479919	
-0.476257	
-0.472839	
-0.32019	
-0.0155029	
-0.108887	
-0.130676	
-0.130554	
-0.119995	
-0.425354	
-0.532166	
-0.426453	
-0.388	
-0.369812	
-0.359131	
-0.350525	
-0.343323	
-0.336548	
-0.33075	
-0.324829	
-0.320129	
-0.313721	
-0.30658	
-0.300842	
-0.295776	
-0.290283	
-0.28363	
-0.278564	
-0.271851	
-0.266663	
-0.26123	
-0.255798	
-0.250732	
-0.244446	
-0.23822	
-0.230713	
-0.224609	
-0.218689	
-0.213806	
-0.206848	
-0.20105	
-0.195984	
-0.18988	
-0.184998	
-0.180603	
-0.175842	
-0.169861	
-0.164185	
-0.160706	
-0.156433	
-0.152283	
-0.148254	
-0.145813	
-0.143738	
-0.142761	
-0.143005	
-0.142273	
-0.143311	
-0.145874	
-0.150452	
-0.155273	
-0.161133	
-0.167053	
-0.173645	
-0.180603	
-0.188416	
-0.195801	
-0.202209	
-0.209534	
-0.21698	
-0.226135	
-0.234131	
-0.241943	
-0.249512	
-0.256409	
-0.264465	
-0.272644	
-0.279541	
-0.286011	
-0.291748	
-0.296875	
-0.303894	
-0.308533	
-0.312988	
-0.315552	
-0.31958	
-0.321899	
-0.324585	
-0.3255	
-0.32605	
-0.325073	
-0.326172	
-0.327942	
-0.327271	
-0.328247	
-0.328186	
-0.328491	
-0.329224	
-0.330933	
-0.330566	
-0.330688	
-0.333252	
-0.333557	
-0.334778	
-0.335754	
-0.337463	
-0.33844	
-0.339233	
-0.339661	
-0.339905	
-0.338928	
-0.340088	
-0.337708	
-0.33429	
-0.335022	
-0.334167	
-0.33197	
-0.329773	
-0.327332	
-0.324219	
-0.321228	
-0.317017	
-0.313538	
-0.308533	
-0.303284	
-0.299866	
-0.294495	
-0.290649	
-0.285278	
-0.280701	
-0.274597	
-0.270386	
-0.264709	
-0.260071	
-0.255554	
-0.249207	
-0.244934	
-0.239868	
-0.235657	
-0.229736	
-0.225647	
-0.220398	
-0.217102	
-0.212341	
-0.207825	
-0.204956	
-0.201965	
-0.199585	
-0.19635	
-0.19458	
-0.192261	
-0.190125	
-0.189148	
-0.186462	
-0.184875	
-0.184937	
-0.184631	
-0.185974	
-0.186279	
-0.187805	
-0.190247	
-0.192871	
-0.196533	
-0.2005	
-0.203003	
-0.206848	
-0.209961	
-0.213135	
-0.21759	
-0.221313	
-0.223694	
-0.228577	
-0.232117	
-0.236023	
-0.239563	
-0.243713	
-0.246887	
-0.251526	
-0.255981	
-0.259888	
-0.264282	
-0.266785	
-0.269958	
-0.274048	
-0.277954	
-0.280579	
-0.282227	
-0.285583	
-0.287781	
-0.289001	
-0.292297	
-0.292419	
-0.294006	
-0.295532	
-0.295959	
-0.297241	
-0.298462	
-0.298645	
-0.299011	
-0.299011	
-0.300049	
-0.299866	
-0.301453	
-0.299988	
-0.299805	
-0.299622	
-0.300415	
-0.299866	
-0.300171	
-0.30072	
-0.301575	
-0.30188	
-0.30188	
-0.303284	
-0.302917	
-0.303162	
-0.304077	
-0.304016	
-0.30426	
-0.305298	
-0.305542	
-0.30481	
-0.305725	
-0.305237	
-0.305786	
-0.304321	
-0.305542	
-0.305054	
-0.30426	
-0.305115	
-0.304321	
-0.304382	
-0.302673	
-0.304504	
-0.30304	
-0.303101	
-0.302979	
-0.303223	
-0.302612	
-0.301758	
-0.302307	
-0.301941	
-0.301697	
-0.301025	
-0.300659	
-0.30188	
-0.301392	
-0.301697	
-0.30127	
-0.302124	
-0.301941	
-0.302307	
-0.303894	
-0.30304	
-0.302795	
-0.303284	
-0.303406	
-0.30426	
-0.304504	
-0.304199	
-0.303284	
-0.304077	
-0.305176	
-0.305603	
-0.304626	
-0.304688	
-0.304932	
-0.305237	
-0.30658	
-0.305725	
-0.306274	
-0.306396	
-0.306641	
-0.3078	
-0.309265	
-0.30719	
-0.30835	
-0.308533	
-0.309387	
-0.311218	
-0.309753	
-0.309753	
-0.310791	
-0.311035	
-0.31134	
-0.31189	
-0.311096	
-0.312256	
-0.310791	
-0.311829	
-0.313171	
-0.312683	
-0.313232	
-0.312134	
-0.313293	
-0.313538	
-0.313904	
-0.313416	
-0.313232	
-0.31427	
-0.314514	
-0.315125	
-0.315002	
-0.314636	
-0.314392	
-0.314514	
-0.315857	
-0.314819	
-0.315308	
-0.315186	
-0.315552	
-0.31543	
-0.316711	
-0.315735	
-0.315491	
-0.316101	
-0.316772	
-0.317078	
-0.316467	
-0.316711	
-0.315613	
-0.31604	
-0.316528	
-0.316406	
-0.316284	
-0.316345	
-0.316467	
-0.317505	
-0.317932	
-0.317749	
-0.317688	
-0.317627	
-0.318054	
-0.318237	
-0.318176	
-0.31897	
-0.319763	
-0.319336	
-0.320801	
-0.322388	
-0.321777	
-0.322815	
-0.323181	
-0.323425	
-0.323547	
-0.32489	
-0.324951	
-0.324219	
-0.324951	
-0.325134	
-0.326721	
-0.325806	
-0.325806	
-0.325195	
-0.326721	
-0.326355	
-0.327271	
-0.326782	
-0.327515	
-0.327881	
-0.327026	
-0.328918	
-0.328674	
-0.329102	
-0.329163	
-0.329346	
-0.329895	
-0.330322	
-0.331299	
-0.331116	
-0.330933	
-0.330872	
-0.331848	
-0.332336	
-0.331421	
-0.331665	
-0.331604	
-0.331482	
-0.330994	
-0.331543	
-0.331909	
-0.331299	
-0.330811	
-0.329529	
-0.332031	
-0.331177	
-0.330688	
-0.328979	
-0.331238	
-0.330139	
-0.329773	
-0.330261	
-0.330078	
-0.330444	
-0.330078	
-0.331116	
-0.331055	
-0.330994	
-0.330566	
-0.331909	
-0.331665	
-0.331909	
-0.333069	
-0.33197	
-0.333008	
-0.333801	
-0.335388	
-0.333984	
-0.334045	
-0.334106	
-0.335022	
-0.335571	
-0.336121	
-0.336365	
-0.335327	
-0.335815	
-0.335693	
-0.336426	
-0.336731	
-0.336182	
-0.33606	
-0.33667	
-0.337524	
-0.336853	
-0.337219	
-0.336487	
-0.336975	
-0.337097	
-0.335876	
-0.33667	
-0.336487	
-0.335632	
-0.336243	
-0.337097	
-0.33606	
-0.335999	
-0.335999	
-0.335144	
-0.334839	
-0.333801	
-0.33429	
-0.334229	
-0.334412	
-0.333923	
-0.335083	
-0.335083	
-0.335083	
-0.336365	
-0.334412	
-0.335022	
-0.335938	
-0.335327	
-0.335571	
-0.335388	
-0.335083	
-0.336182	
-0.336304	
-0.33667	
-0.338379	
-0.336121	
-0.336792	
-0.337891	
-0.337952	
-0.337341	
-0.337402	
-0.337463	
-0.337952	
-0.338989	
-0.338501	
-0.339661	
-0.339111	
-0.339478	
-0.339294	
-0.339844	
-0.340088	
-0.340088	
-0.338989	
-0.340332	
-0.341675	
-0.341309	
-0.34198	
-0.34198	
-0.342041	
-0.343018	
-0.341553	
-0.343384	
-0.343628	
-0.343567	
-0.343018	
-0.344849	
-0.34491	
-0.345215	
-0.346497	
-0.344116	
-0.345154	
-0.345703	
-0.345276	
-0.344604	
-0.344543	
-0.344116	
-0.344849	
-0.345093	
-0.344604	
-0.345459	
-0.344116	
-0.344055	
-0.344055	
-0.343201	
-0.344055	
-0.343994	
-0.343018	
-0.344238	
-0.344543	
-0.34436	
-0.344299	
-0.345215	
-0.344116	
-0.344971	
-0.344788	
-0.345032	
-0.345642	
-0.344238	
-0.345459	
-0.345703	
-0.346008	
-0.345947	
-0.347046	
-0.346191	
-0.346558	
-0.347351	
-0.34668	
-0.347107	
-0.346313	
-0.347351	
-0.347473	
-0.3479	
-0.348572	
-0.349731	
-0.348328	
-0.34845	
-0.348938	
-0.346802	
-0.348999	
-0.348877	
-0.347595	
-0.348755	
-0.348938	
-0.348938	
-0.349182	
-0.348511	
-0.346497	
-0.347351	
-0.347351	
-0.347351	
-0.346924	
-0.345764	
-0.347229	
-0.346497	
-0.346985	
-0.347107	
-0.347595	
-0.346619	
-0.346924	
-0.347046	
-0.347168	
-0.347229	
-0.346008	
-0.347412	
-0.347534	
-0.34845	
-0.347839	
-0.348816	
-0.347778	
-0.348572	
-0.348572	
-0.34906	
-0.348877	
-0.348572	
-0.349609	
-0.349426	
-0.350342	
-0.350342	
-0.350708	
-0.350159	
-0.350525	
-0.350708	
-0.349365	
-0.350586	
-0.350281	
-0.35022	
-0.351196	
-0.351257	
-0.352112	
-0.352478	
-0.3526	
-0.351868	
-0.352661	
-0.353577	
-0.3526	
-0.353088	
-0.351807	
-0.353027	
-0.353516	
-0.353516	
-0.354492	
-0.354492	
-0.354553	
-0.3526	
-0.354736	
-0.354675	
-0.354614	
-0.353149	
-0.353821	
-0.35437	
-0.354736	
-0.35553	
-0.35437	
-0.354431	
-0.353821	
-0.354614	
-0.353638	
-0.354187	
-0.354492	
-0.353699	
-0.354736	
-0.354797	
-0.355164	
-0.35553	
-0.355286	
-0.355042	
-0.35376	
-0.355225	
-0.355042	
-0.356018	
-0.355469	
-0.355957	
-0.35614	
-0.356384	
-0.357544	
-0.356567	
-0.356201	
-0.355896	
-0.3573	
-0.356506	
-0.356934	
-0.356018	
-0.357239	
-0.357483	
-0.357849	
-0.357605	
-0.358215	
-0.358276	
-0.357849	
-0.357117	
-0.358948	
-0.359253	
-0.359009	
-0.358765	
-0.359253	
-0.35968	
-0.360107	
-0.360901	
-0.360535	
-0.359863	
-0.360413	
-0.360168	
-0.360413	
-0.359741	
-0.359497	
-0.359314	
-0.360046	
-0.359436	
-0.359802	
-0.35907	
-0.358154	
-0.358337	
-0.357788	
-0.35791	
-0.357483	
-0.357483	
-0.357239	
-0.357361	
-0.357361	
-0.358093	
-0.358276	
-0.357239	
-0.3573	
-0.356323	
-0.357056	
-0.357422	
-0.355591	
-0.35675	
-0.357056	
-0.356628	
-0.3573	
-0.358643	
-0.358093	
-0.357056	
-0.356262	
-0.357239	
-0.356506	
-0.356384	
-0.356079	
-0.356262	
-0.356567	
-0.356567	
-0.357544	
-0.356812	
-0.356628	
-0.357727	
-0.35791	
-0.357666	
-0.357727	
-0.357727	
-0.358337	
-0.359375	
-0.359192	
-0.360352	
-0.359985	
-0.360229	
-0.360352	
-0.359924	
-0.360962	
-0.361145	
-0.361511	
-0.360718	
-0.362305	
-0.361938	
-0.362915	
-0.363525	
-0.362549	
-0.362427	
-0.360657	
-0.362305	
-0.362	
-0.360535	
-0.361511	
-0.362122	
-0.361023	
-0.360962	
-0.362183	
-0.361145	
-0.359802	
-0.360291	
-0.359985	
-0.360168	
-0.360168	
-0.360657	
-0.360168	
-0.360718	
-0.360962	
-0.361084	
-0.361145	
-0.36084	
-0.361206	
-0.359375	
-0.361328	
-0.360901	
-0.360718	
-0.360718	
-0.361328	
-0.362427	
-0.362976	
-0.363892	
-0.362793	
-0.363647	
-0.361877	
-0.36377	
-0.363525	
-0.364075	
-0.364685	
-0.364746	
-0.365662	
-0.366333	
-0.367371	
-0.367065	
-0.367065	
-0.367126	
-0.365662	
-0.366333	
-0.36615	
-0.366516	
-0.365845	
-0.366882	
-0.366882	
-0.367432	
-0.367249	
-0.367065	
-0.366577	
-0.365479	
-0.36615	
-0.36615	
-0.366943	
-0.366089	
-0.366943	
-0.36676	
-0.367249	
-0.368164	
-0.367798	
-0.367493	
-0.365723	
-0.367676	
-0.366577	
-0.366516	
-0.366089	
-0.366638	
-0.366638	
-0.366089	
-0.367371	
-0.366211	
-0.366455	
-0.364868	
-0.365417	
-0.364624	
-0.365112	
-0.364746	
-0.363464	
-0.364319	
-0.364319	
-0.364807	
-0.36438	
-0.364868	
-0.363525	
-0.362915	
-0.363586	
-0.364441	
-0.364807	
-0.363892	
-0.364258	
-0.36499	
-0.365234	
-0.366089	
-0.366577	
-0.365173	
-0.364685	
-0.365906	
-0.366211	
-0.366333	
-0.367004	
-0.367737	
-0.367065	
-0.367065	
-0.368286	
-0.368713	
-0.367004	
-0.366943	
-0.36731	
-0.365479	
-0.367188	
-0.366821	
-0.367676	
-0.367615	
-0.368042	
-0.368469	
-0.368652	
-0.369507	
-0.36792	
-0.366028	
-0.367737	
-0.368103	
-0.36731	
-0.366821	
-0.368164	
-0.368896	
-0.369019	
-0.369385	
-0.368835	
-0.368347	
-0.367676	
-0.368225	
-0.367981	
-0.367126	
-0.367004	
-0.366882	
-0.367065	
-0.366821	
-0.368286	
-0.368164	
-0.368164	
-0.368164	
-0.368408	
-0.367004	
-0.368652	
-0.368896	
-0.369263	
-0.369141	
-0.369995	
-0.371643	
-0.371338	
-0.371643	
-0.370056	
-0.370117	
-0.369019	
-0.370667	
-0.370972	
-0.36969	
-0.371765	
-0.371765	
-0.372009	
-0.372742	
-0.37323	
-0.371521	
-0.370361	
-0.370605	
-0.371033	
-0.371216	
-0.370789	
-0.371399	
-0.371094	
-0.371277	
-0.372131	
-0.371765	
-0.370544	
-0.369934	
-0.369324	
-0.368835	
-0.370056	
-0.36969	
-0.369995	
-0.369934	
-0.370117	
-0.370911	
-0.371704	
-0.371155	
-0.3703	
-0.369995	
-0.369812	
-0.370056	
-0.369995	
-0.369141	
-0.369324	
-0.369812	
-0.369568	
-0.370239	
-0.370178	
-0.369324	
-0.368408	
-0.36853	
-0.369324	
-0.36969	
-0.369263	
-0.369751	
-0.369629	
-0.370056	
-0.370911	
-0.371643	
-0.369934	
-0.369812	
-0.368835	
-0.369507	
-0.370483	
-0.370178	
-0.370483	
-0.371094	
-0.371094	
-0.371338	
-0.371704	
-0.371826	
-0.371338	
-0.371033	
-0.371033	
-0.371338	
-0.370911	
-0.369995	
-0.371277	
-0.370972	
-0.371887	
-0.372314	
-0.372009	
-0.371582	
-0.370544	
-0.37146	
-0.370178	
-0.372009	
-0.371094	
-0.370911	
-0.370911	
-0.371765	
-0.372437	
-0.372314	
-0.372314	
-0.370911	
-0.371033	
-0.370728	
-0.37146	
-0.370667	
-0.371338	
-0.370728	
-0.370361	
-0.370972	
-0.371338	
-0.370972	
-0.369934	
-0.369995	
-0.370911	
-0.369995	
-0.3703	
-0.369812	
-0.370911	
-0.371155	
-0.371765	
-0.372314	
-0.371521	
-0.372375	
-0.371216	
-0.373291	
-0.372803	
-0.373718	
-0.373779	
-0.374146	
-0.374573	
-0.375061	
-0.376404	
-0.375793	
-0.375732	
-0.374695	
-0.375	
-0.375671	
-0.375793	
-0.375732	
-0.375488	
-0.376099	
-0.376282	
-0.37677	
-0.376953	
-0.376831	
-0.376831	
-0.375122	
-0.377258	
-0.37677	
-0.377502	
-0.377808	
-0.377686	
-0.378235	
-0.378845	
-0.380249	
-0.378845	
-0.379456	
-0.378357	
-0.378235	
-0.378967	
-0.378418	
-0.378479	
-0.378662	
-0.379211	
-0.378418	
-0.379517	
-0.378845	
-0.378418	
-0.378235	
-0.377319	
-0.377808	
-0.376709	
-0.376709	
-0.376526	
-0.376648	
-0.376831	
-0.376282	
-0.376404	
-0.376282	
-0.376404	
-0.374084	
-0.376038	
-0.376404	
-0.376099	
-0.376221	
-0.376709	
-0.377014	
-0.377502	
-0.379089	
-0.378113	
-0.378357	
-0.37854	
-0.378845	
-0.378906	
-0.378052	
-0.37793	
-0.379272	
-0.378845	
-0.380066	
-0.380981	
-0.380798	
-0.379883	
-0.379822	
-0.379822	
-0.3797	
-0.379456	
-0.379272	
-0.380005	
-0.38031	
-0.380127	
-0.380249	
-0.381409	
-0.379395	
-0.37915	
-0.378418	
-0.378784	
-0.379028	
-0.377869	
-0.378479	
-0.379211	
-0.378418	
-0.378052	
-0.378418	
-0.377686	
-0.37677	
-0.376953	
-0.374634	
-0.37616	
-0.376221	
-0.375732	
-0.376404	
-0.376648	
-0.376465	
-0.377502	
-0.378296	
-0.376648	
-0.377319	
-0.377319	
-0.376526	
-0.376648	
-0.376343	
-0.377441	
-0.376892	
-0.377686	
-0.377869	
-0.37854	
-0.377869	
-0.377869	
-0.377502	
-0.377319	
-0.377991	
-0.377991	
-0.377441	
-0.378296	
-0.378906	
-0.379272	
-0.380676	
-0.380737	
-0.379761	
-0.3797	
-0.380005	
-0.380371	
-0.380127	
-0.379883	
-0.380981	
-0.38147	
-0.381104	
-0.382019	
-0.382996	
-0.382263	
-0.38208	
-0.382629	
-0.381531	
-0.382568	
-0.382141	
-0.38324	
-0.383179	
-0.383118	
-0.384155	
-0.384094	
-0.384644	
-0.383484	
-0.383179	
-0.382507	
-0.38385	
-0.382935	
-0.38208	
-0.382568	
-0.382324	
-0.382568	
-0.382629	
-0.383301	
-0.382141	
-0.382019	
-0.382019	
-0.381714	
-0.381836	
-0.380493	
-0.381775	
-0.381836	
-0.38208	
-0.382385	
-0.382751	
-0.382385	
-0.381775	
-0.382507	
-0.381653	
-0.382385	
-0.382019	
-0.381836	
-0.382507	
-0.382507	
-0.383118	
-0.383545	
-0.384094	
-0.383362	
-0.383118	
-0.383179	
-0.383301	
-0.383301	
-0.382629	
-0.38324	
-0.383972	
-0.38446	
-0.385437	
-0.385681	
-0.384827	
-0.383606	
-0.385071	
-0.383667	
-0.384216	
-0.383911	
-0.383667	
-0.385254	
-0.384155	
-0.383972	
-0.383545	
-0.383667	
-0.382996	
-0.383179	
-0.382324	
-0.382629	
-0.383179	
-0.382263	
-0.381592	
-0.381714	
-0.382446	
-0.382568	
-0.383118	
-0.381653	
-0.381653	
-0.383179	
-0.381897	
-0.38208	
-0.381958	
-0.382629	
-0.382568	
-0.382751	
-0.383667	
-0.383179	
-0.383789	
-0.38324	
-0.383972	
-0.382202	
-0.384399	
-0.383728	
-0.383301	
-0.384583	
-0.384399	
-0.384521	
-0.385376	
-0.385986	
-0.384399	
-0.38385	
-0.385803	
-0.383972	
-0.38446	
-0.384277	
-0.384827	
-0.385681	
-0.385986	
-0.386597	
-0.386597	
-0.387146	
-0.386169	
-0.386597	
-0.386292	
-0.38678	
-0.386475	
-0.385681	
-0.386719	
-0.387451	
-0.388	
-0.386841	
-0.386841	
-0.387634	
-0.387512	
-0.387512	
-0.386597	
-0.386963	
-0.386292	
-0.387024	
-0.387146	
-0.387024	
-0.386963	
-0.387451	
-0.386658	
-0.385864	
-0.38739	
-0.387024	
-0.386292	
-0.386536	
-0.386597	
-0.387085	
-0.386536	
-0.387329	
-0.386902	
-0.386841	
-0.387634	
-0.387451	
-0.386963	
-0.386963	
-0.38739	
-0.386475	
-0.387756	
-0.387451	
-0.388367	
-0.388245	
-0.389282	
-0.388428	
-0.387878	
-0.388855	
-0.388733	
-0.387512	
-0.386963	
-0.388	
-0.388855	
-0.388977	
-0.389465	
-0.389771	
-0.390137	
-0.390747	
-0.390564	
-0.390686	
-0.389709	
-0.390137	
-0.390198	
-0.390198	
-0.389709	
-0.389832	
-0.390625	
-0.390015	
-0.390259	
-0.389648	
-0.389771	
-0.389465	
-0.388916	
-0.388611	
-0.387451	
-0.388306	
-0.387939	
-0.38855	
-0.387634	
-0.387268	
-0.387695	
-0.387756	
-0.387817	
-0.38678	
-0.386597	
-0.386292	
-0.386719	
-0.386475	
-0.386475	
-0.387146	
-0.387085	
-0.386536	
-0.385864	
-0.386353	
-0.386292	
-0.384583	
-0.38446	
-0.384949	
-0.385925	
-0.38562	
-0.386658	
-0.386108	
-0.385132	
-0.38562	
-0.385742	
-0.385193	
-0.385071	
-0.385132	
-0.384949	
-0.384644	
-0.384705	
-0.385681	
-0.385986	
-0.386108	
-0.38623	
-0.385681	
-0.38562	
-0.387329	
-0.386292	
-0.386169	
-0.386902	
-0.388245	
-0.388367	
-0.389648	
-0.390076	
-0.389709	
-0.390442	
-0.39032	
-0.390259	
-0.389465	
-0.389709	
-0.389832	
-0.389648	
-0.390198	
-0.389709	
-0.389832	
-0.388672	
-0.389282	
-0.388428	
-0.387878	
-0.389038	
-0.386536	
-0.387573	
-0.387451	
-0.387024	
-0.386841	
-0.388	
-0.388184	
-0.387634	
-0.388672	
-0.387817	
-0.38739	
-0.386536	
-0.38678	
-0.387268	
-0.386108	
-0.387451	
-0.387146	
-0.387756	
-0.388062	
-0.38739	
-0.387512	
-0.388184	
-0.388916	
-0.386536	
-0.388672	
-0.388733	
-0.389221	
-0.389465	
-0.390564	
-0.390198	
-0.390259	
-0.391296	
-0.390808	
-0.391235	
-0.392029	
-0.391418	
-0.392273	
-0.391602	
-0.3927	
-0.391907	
-0.392273	
-0.392334	
-0.392334	
-0.392029	
-0.391907	
-0.392883	
-0.391663	
-0.392395	
-0.391418	
-0.391602	
-0.392151	
-0.392639	
-0.391968	
-0.391602	
-0.392456	
-0.390991	
-0.391357	
-0.391907	
-0.390686	
-0.391541	
-0.391174	
-0.391296	
-0.391602	
-0.392639	
-0.39093	
-0.390625	
-0.391235	
-0.390808	
-0.390076	
-0.389526	
-0.389832	
-0.389465	
-0.389038	
-0.389404	
-0.389404	
-0.389038	
-0.388794	
-0.387939	
-0.387695	
-0.387817	
-0.388428	
-0.385986	
-0.387573	
-0.387268	
-0.38739	
-0.387634	
-0.388611	
-0.387939	
-0.387634	
-0.388184	
-0.387939	
-0.388245	
-0.387878	
-0.387085	
-0.388123	
-0.388428	
-0.38855	
-0.388916	
-0.388977	
-0.389771	
-0.390076	
-0.388245	
-0.389343	
-0.389587	
-0.389465	
-0.389343	
-0.388916	
-0.389465	
-0.389893	
-0.391541	
-0.389465	
-0.389526	
-0.389648	
-0.389587	
-0.390198	
-0.389771	
-0.388611	
-0.389771	
-0.389648	
-0.389404	
-0.390503	
-0.389648	
-0.389465	
-0.389465	
-0.390198	
-0.38916	
-0.389771	
-0.388916	
-0.389526	
-0.389038	
-0.388611	
-0.389282	
-0.389771	
-0.388977	
-0.388367	
-0.387878	
-0.387512	
-0.388367	
-0.388062	
-0.386719	
-0.389343	
-0.387939	
-0.389343	
-0.389771	
-0.390442	
-0.390015	
-0.390137	
-0.390686	
-0.391357	
-0.391968	
-0.390808	
-0.391235	
-0.390564	
-0.391296	
-0.391479	
-0.392395	
-0.391846	
-0.391907	
-0.392151	
-0.391968	
-0.392212	
-0.392151	
-0.390442	
-0.391296	
-0.390808	
-0.391785	
-0.391846	
-0.391296	
-0.391602	
-0.391174	
-0.391968	
-0.39032	
-0.391235	
-0.390015	
-0.389648	
-0.389954	
-0.390015	
-0.389771	
-0.390991	
-0.390808	
-0.389771	
-0.390137	
-0.390259	
-0.390137	
-0.390015	
-0.388733	
-0.389648	
-0.388855	
-0.389343	
-0.390015	
-0.389893	
-0.388855	
-0.388977	
-0.388916	
-0.387817	
-0.389465	
-0.388306	
-0.388245	
-0.388245	
-0.388489	
-0.389038	
-0.389832	
-0.389221	
-0.38855	
-0.389099	
-0.389893	
-0.389771	
-0.388672	
-0.387939	
-0.388672	
-0.38739	
-0.388489	
-0.38855	
-0.390015	
-0.390015	
-0.388916	
-0.388733	
-0.388794	
-0.389893	
-0.389282	
-0.388794	
-0.38916	
-0.389465	
-0.389282	
-0.389832	
-0.389648	
-0.389465	
-0.389099	
-0.390198	
-0.389465	
-0.389709	
-0.388794	
-0.388733	
-0.388367	
-0.38916	
-0.389832	
-0.389832	
-0.388977	
-0.389343	
-0.388794	
-0.388611	
-0.388916	
-0.388245	
-0.387146	
-0.388489	
-0.388123	
-0.388	
-0.388489	
-0.387939	
-0.386719	
-0.387512	
-0.388428	
-0.386902	
-0.387939	
-0.387512	
-0.386536	
-0.387085	
-0.387573	
-0.387512	
-0.388733	
-0.388367	
-0.387512	
-0.387878	
-0.389099	
-0.388916	
-0.389038	
-0.388733	
-0.389832	
-0.388916	
-0.389709	
-0.390625	
-0.391113	
-0.390991	
-0.390808	
-0.390625	
-0.391296	
-0.392578	
-0.39093	
-0.391174	
-0.391541	
	
