E:\DOCUMENTS AND SETTINGS\JPOTAS\MEUS DOCUMENTOS\UFRJ\RSCI-BM 12 WK SERIES\070718-RSCI-BM-03\RSCI-BM-03-LEMG\070718-RSCI-BM-03-LEMG-0011.ACQ
0.025000 msec/sample
1 channel
Analog input
Volts
CH1	
2000	
-0.395874	
-0.395996	
-0.395691	
-0.396179	
-0.39624	
-0.397095	
-0.395264	
-0.395081	
-0.395203	
-0.394531	
-0.394836	
-0.394409	
-0.393188	
-0.392456	
-0.392639	
-0.39209	
-0.392029	
-0.391846	
-0.390503	
-0.39032	
-0.389893	
-0.390137	
-0.390259	
-0.390747	
-0.390076	
-0.389771	
-0.38916	
-0.389893	
-0.389954	
-0.390442	
-0.389954	
-0.389648	
-0.389954	
-0.390564	
-0.390564	
-0.391541	
-0.390808	
-0.390747	
-0.390747	
-0.39093	
-0.392578	
-0.392639	
-0.392944	
-0.392883	
-0.394226	
-0.394226	
-0.394287	
-0.395325	
-0.394897	
-0.394104	
-0.395264	
-0.393982	
-0.395874	
-0.396484	
-0.396484	
-0.395142	
-0.39502	
-0.395203	
-0.395508	
-0.395691	
-0.396484	
-0.395508	
-0.396545	
-0.395386	
-0.396912	
-0.396667	
-0.396851	
-0.396057	
-0.395508	
-0.394653	
-0.395569	
-0.396301	
-0.396179	
-0.395691	
-0.396118	
-0.395264	
-0.395752	
-0.395386	
-0.395691	
-0.394531	
-0.394287	
-0.393311	
-0.394714	
-0.393982	
-0.394348	
-0.393738	
-0.393616	
-0.39325	
-0.393677	
-0.393921	
-0.39447	
-0.393127	
-0.391785	
-0.391357	
-0.392883	
-0.393433	
-0.393188	
-0.392395	
-0.392517	
-0.391785	
-0.392334	
-0.392639	
-0.392456	
-0.391724	
-0.391968	
-0.392151	
-0.3927	
-0.392273	
-0.392761	
-0.391541	
-0.391663	
-0.391602	
-0.392151	
-0.39386	
-0.392517	
-0.392639	
-0.392151	
-0.391296	
-0.391846	
-0.392578	
-0.393616	
-0.392029	
-0.391174	
-0.391296	
-0.39209	
-0.3927	
-0.39209	
-0.391785	
-0.391724	
-0.391602	
-0.392334	
-0.392334	
-0.392883	
-0.392639	
-0.392456	
-0.393127	
-0.393127	
-0.394348	
-0.39447	
-0.394409	
-0.394226	
-0.393555	
-0.393982	
-0.39502	
-0.394775	
-0.394348	
-0.394409	
-0.394531	
-0.394348	
-0.395569	
-0.395935	
-0.396057	
-0.395325	
-0.394348	
-0.395813	
-0.395996	
-0.39502	
-0.395081	
-0.39502	
-0.394165	
-0.393555	
-0.394104	
-0.393799	
-0.393372	
-0.391602	
-0.390442	
-0.391785	
-0.392273	
-0.391418	
-0.390686	
-0.390503	
-0.390564	
-0.390198	
-0.390686	
-0.391907	
-0.391479	
-0.390442	
-0.389648	
-0.390259	
-0.391785	
-0.390503	
-0.391541	
-0.391357	
-0.391174	
-0.39093	
-0.391663	
-0.392822	
-0.392822	
-0.392395	
-0.391846	
-0.39209	
-0.394043	
-0.394104	
-0.394592	
-0.394043	
-0.395142	
-0.39563	
-0.194824	
0.0690308	
-0.0340576	
-0.0611572	
-0.0648804	
-0.0612183	
-0.419495	
-0.49939	
-0.394287	
-0.359375	
-0.346008	
-0.338623	
-0.335999	
-0.33252	
-0.333252	
-0.332642	
-0.331787	
-0.331787	
-0.330994	
-0.332092	
-0.33075	
-0.331299	
-0.329529	
-0.330811	
-0.330566	
-0.330444	
-0.330383	
-0.330017	
-0.3302	
-0.329956	
-0.329529	
-0.328979	
-0.329224	
-0.328674	
-0.328125	
-0.328918	
-0.327332	
-0.329102	
-0.329163	
-0.329163	
-0.329468	
-0.329651	
-0.329956	
-0.329346	
-0.330139	
-0.32782	
-0.328186	
-0.328979	
-0.329224	
-0.329895	
-0.330933	
-0.331299	
-0.332397	
-0.333923	
-0.335205	
-0.337341	
-0.339722	
-0.343262	
-0.347168	
-0.349915	
-0.355469	
-0.358276	
-0.361938	
-0.365662	
-0.368713	
-0.373291	
-0.377563	
-0.384033	
-0.387451	
-0.39502	
-0.403137	
-0.41156	
-0.215515	
0.038147	
-0.0710449	
-0.104187	
-0.114136	
-0.114502	
-0.473877	
-0.55835	
-0.456116	
-0.423828	
-0.411255	
-0.40802	
-0.40686	
-0.406677	
-0.406372	
-0.406372	
-0.40686	
-0.40686	
-0.40802	
-0.405701	
-0.404907	
-0.404419	
-0.401794	
-0.405334	
-0.405701	
-0.406799	
-0.406555	
-0.407043	
-0.408691	
-0.411316	
-0.412354	
-0.411621	
-0.41272	
-0.414734	
-0.41748	
-0.418701	
-0.420288	
-0.420959	
-0.421387	
-0.421143	
-0.421204	
-0.420715	
-0.416443	
-0.413513	
-0.410217	
-0.40863	
-0.405579	
-0.402039	
-0.398682	
-0.395081	
-0.39093	
-0.388062	
-0.38324	
-0.377808	
-0.373901	
-0.369019	
-0.364258	
-0.361816	
-0.357727	
-0.352539	
-0.348206	
-0.343323	
-0.338745	
-0.334229	
-0.331177	
-0.3255	
-0.320801	
-0.316345	
-0.310974	
-0.309753	
-0.306213	
-0.301941	
-0.29718	
-0.294189	
-0.290833	
-0.28772	
-0.284424	
-0.280396	
-0.276001	
-0.272583	
-0.268616	
-0.266235	
-0.262573	
-0.258057	
-0.253235	
-0.248413	
-0.243713	
-0.239563	
-0.23468	
-0.229065	
-0.223206	
-0.218018	
-0.214355	
-0.210632	
-0.205994	
-0.201965	
-0.19751	
-0.193054	
-0.189819	
-0.187927	
-0.184448	
-0.180847	
-0.179443	
-0.179016	
-0.179932	
-0.180908	
-0.182251	
-0.184204	
-0.186096	
-0.18927	
-0.194031	
-0.19751	
-0.200867	
-0.204895	
-0.211121	
-0.217773	
-0.223145	
-0.229431	
-0.235107	
-0.241516	
-0.24707	
-0.253113	
-0.259644	
-0.264099	
-0.268738	
-0.273376	
-0.279785	
-0.285339	
-0.29071	
-0.295227	
-0.2995	
-0.304138	
-0.308167	
-0.311096	
-0.312927	
-0.315125	
-0.315552	
-0.317688	
-0.318604	
-0.319031	
-0.318604	
-0.318054	
-0.317322	
-0.316528	
-0.315002	
-0.311768	
-0.310303	
-0.307678	
-0.306641	
-0.305481	
-0.304016	
-0.301514	
-0.300293	
-0.297913	
-0.29657	
-0.296326	
-0.29425	
-0.292053	
-0.287964	
-0.287415	
-0.286438	
-0.284607	
-0.282349	
-0.279907	
-0.277283	
-0.275391	
-0.272278	
-0.269226	
-0.264221	
-0.259827	
-0.256104	
-0.252258	
-0.249573	
-0.246216	
-0.24353	
-0.239563	
-0.237183	
-0.234375	
-0.232117	
-0.228394	
-0.226196	
-0.222656	
-0.221924	
-0.221313	
-0.219604	
-0.218323	
-0.218262	
-0.216431	
-0.214661	
-0.214966	
-0.212524	
-0.210876	
-0.208557	
-0.208984	
-0.20929	
-0.209351	
-0.211304	
-0.211182	
-0.212158	
-0.214966	
-0.218811	
-0.221069	
-0.222656	
-0.226257	
-0.230774	
-0.234375	
-0.239258	
-0.243958	
-0.247192	
-0.252197	
-0.256042	
-0.260315	
-0.263611	
-0.265991	
-0.269775	
-0.271606	
-0.276367	
-0.27948	
-0.282898	
-0.284912	
-0.28772	
-0.290649	
-0.291199	
-0.294861	
-0.297485	
-0.299011	
-0.300659	
-0.302856	
-0.304382	
-0.306274	
-0.307983	
-0.307556	
-0.308167	
-0.307922	
-0.30957	
-0.309021	
-0.309021	
-0.308411	
-0.308777	
-0.307983	
-0.309021	
-0.310059	
-0.308716	
-0.308533	
-0.307373	
-0.308533	
-0.308167	
-0.308777	
-0.307373	
-0.306091	
-0.307007	
-0.306885	
-0.306152	
-0.304932	
-0.304077	
-0.302124	
-0.301453	
-0.302368	
-0.30072	
-0.29895	
-0.298035	
-0.296936	
-0.295227	
-0.296387	
-0.295288	
-0.293884	
-0.29303	
-0.292297	
-0.29248	
-0.29248	
-0.292847	
-0.291931	
-0.291138	
-0.290894	
-0.291565	
-0.29126	
-0.290405	
-0.290344	
-0.289063	
-0.2901	
-0.289856	
-0.29071	
-0.29126	
-0.291016	
-0.290527	
-0.289551	
-0.292358	
-0.293091	
-0.292725	
-0.292725	
-0.293945	
-0.295532	
-0.29541	
-0.298401	
-0.298157	
-0.299011	
-0.298401	
-0.300964	
-0.302307	
-0.302979	
-0.30481	
-0.303467	
-0.303833	
-0.305054	
-0.30719	
-0.307312	
-0.307434	
-0.308289	
-0.308777	
-0.310303	
-0.311096	
-0.311035	
-0.310242	
-0.312073	
-0.312744	
-0.314148	
-0.314148	
-0.313904	
-0.314819	
-0.314575	
-0.31665	
-0.317627	
-0.317749	
-0.3172	
-0.317871	
-0.317383	
-0.31781	
-0.319092	
-0.319214	
-0.319214	
-0.318298	
-0.320496	
-0.319824	
-0.320007	
-0.319824	
-0.320129	
-0.319702	
-0.321472	
-0.320801	
-0.320496	
-0.320557	
-0.319885	
-0.320618	
-0.320679	
-0.321716	
-0.321533	
-0.320007	
-0.320374	
-0.321167	
-0.321472	
-0.320068	
-0.319763	
-0.320374	
-0.321411	
-0.320923	
-0.321838	
-0.322327	
-0.321045	
-0.322021	
-0.322693	
-0.323181	
-0.322998	
-0.323303	
-0.322876	
-0.323914	
-0.32428	
-0.324341	
-0.324158	
-0.323486	
-0.324707	
-0.324402	
-0.325012	
-0.325317	
-0.325928	
-0.3255	
-0.325989	
-0.327393	
-0.32782	
-0.328308	
-0.327393	
-0.327942	
-0.328491	
-0.327515	
-0.32782	
-0.328552	
-0.328125	
-0.328857	
-0.329224	
-0.32843	
-0.329529	
-0.32959	
-0.329102	
-0.330261	
-0.32959	
-0.329834	
-0.330261	
-0.33075	
-0.330688	
-0.331116	
-0.33136	
-0.331299	
-0.332153	
-0.329956	
-0.330933	
-0.330566	
-0.330383	
-0.329895	
-0.330322	
-0.329895	
-0.3302	
-0.330872	
-0.328918	
-0.329529	
-0.32843	
-0.327759	
-0.327271	
-0.326172	
-0.327026	
-0.325684	
-0.325684	
-0.326965	
-0.327637	
-0.327332	
-0.328186	
-0.327759	
-0.327087	
-0.327881	
-0.32666	
-0.327942	
-0.32666	
-0.327332	
-0.329163	
-0.329834	
-0.329529	
-0.330139	
-0.331848	
-0.329895	
-0.331482	
-0.33136	
-0.332153	
-0.332886	
-0.333435	
-0.334167	
-0.335571	
-0.336548	
-0.336304	
-0.337219	
-0.336426	
-0.337708	
-0.337708	
-0.337463	
-0.33728	
-0.337402	
-0.337524	
-0.338806	
-0.3396	
-0.338928	
-0.339844	
-0.339478	
-0.340515	
-0.340027	
-0.338623	
-0.339478	
-0.339539	
-0.340027	
-0.340454	
-0.340454	
-0.341003	
-0.341125	
-0.340881	
-0.340088	
-0.341309	
-0.339233	
-0.340698	
-0.338928	
-0.339905	
-0.340454	
-0.34021	
-0.34082	
-0.341064	
-0.340515	
-0.339355	
-0.339783	
-0.338623	
-0.339905	
-0.339355	
-0.339905	
-0.340332	
-0.339539	
-0.340698	
-0.338989	
-0.341003	
-0.3396	
-0.341187	
-0.339722	
-0.339294	
-0.339294	
-0.338806	
-0.340149	
-0.340332	
-0.339966	
-0.340271	
-0.341248	
-0.340515	
-0.340759	
-0.340332	
-0.339722	
-0.34082	
-0.339661	
-0.341125	
-0.34082	
-0.34137	
-0.341797	
-0.341858	
-0.342468	
-0.341431	
-0.342896	
-0.340454	
-0.341797	
-0.340271	
-0.342041	
-0.34198	
-0.342224	
-0.342407	
-0.342468	
-0.343689	
-0.342346	
-0.344299	
-0.342285	
-0.343262	
-0.34314	
-0.344116	
-0.344238	
-0.343994	
-0.345337	
-0.345703	
-0.34613	
-0.345215	
-0.346375	
-0.345581	
-0.345703	
-0.346069	
-0.346069	
-0.34613	
-0.346924	
-0.347595	
-0.347351	
-0.348145	
-0.34906	
-0.347412	
-0.347961	
-0.34729	
-0.348145	
-0.347351	
-0.348816	
-0.348938	
-0.34845	
-0.34845	
-0.347656	
-0.347412	
-0.346558	
-0.346558	
-0.346069	
-0.344116	
-0.343811	
-0.345215	
-0.345276	
-0.344604	
-0.345276	
-0.345276	
-0.345886	
-0.345642	
-0.345886	
-0.344849	
-0.344727	
-0.344238	
-0.345642	
-0.345886	
-0.346191	
-0.346863	
-0.346863	
-0.347412	
-0.348022	
-0.347656	
-0.347534	
-0.348206	
-0.348389	
-0.348633	
-0.349304	
-0.350037	
-0.349976	
-0.351074	
-0.351318	
-0.352539	
-0.352783	
-0.353394	
-0.352722	
-0.352661	
-0.353821	
-0.355042	
-0.355225	
-0.355896	
-0.356628	
-0.356201	
-0.357605	
-0.3573	
-0.357483	
-0.357056	
-0.3573	
-0.356689	
-0.3573	
-0.357666	
-0.357971	
-0.358337	
-0.358154	
-0.358459	
-0.358093	
-0.358704	
-0.358154	
-0.355835	
-0.355896	
-0.357422	
-0.356873	
-0.356262	
-0.355835	
-0.355164	
-0.355286	
-0.356201	
-0.355469	
-0.353577	
-0.353394	
-0.353149	
-0.352844	
-0.353577	
-0.353699	
-0.355042	
-0.355469	
-0.354431	
-0.35437	
-0.355286	
-0.355408	
-0.354065	
-0.353882	
-0.353821	
-0.355103	
-0.354797	
-0.354736	
-0.354675	
-0.354919	
-0.354736	
-0.355835	
-0.355286	
-0.355408	
-0.354614	
-0.353516	
-0.355347	
-0.356384	
-0.356323	
-0.356201	
-0.356995	
-0.35614	
-0.3573	
-0.3573	
-0.356201	
-0.356323	
-0.355652	
-0.357056	
-0.356628	
-0.357239	
-0.356689	
-0.357483	
-0.357666	
-0.358154	
-0.359192	
-0.357178	
-0.357788	
-0.356567	
-0.357056	
-0.35791	
-0.358643	
-0.358826	
-0.359314	
-0.359314	
-0.360107	
-0.36145	
-0.358826	
-0.358765	
-0.357849	
-0.358948	
-0.35968	
-0.359009	
-0.358704	
-0.359009	
-0.359436	
-0.358887	
-0.359985	
-0.360046	
-0.35907	
-0.358521	
-0.35675	
-0.359375	
-0.359314	
-0.359192	
-0.35968	
-0.360046	
-0.360229	
-0.359924	
-0.361267	
-0.358398	
-0.358643	
-0.356689	
-0.358887	
-0.358765	
-0.358826	
-0.359009	
-0.358459	
-0.359436	
-0.359314	
-0.360779	
-0.358398	
-0.358215	
-0.358215	
-0.357178	
-0.358459	
-0.358521	
-0.358459	
-0.358215	
-0.358704	
-0.358643	
-0.359253	
-0.359009	
-0.357117	
-0.357544	
-0.356506	
-0.358765	
-0.358459	
-0.358337	
-0.35907	
-0.359497	
-0.360474	
-0.360352	
-0.361877	
-0.360535	
-0.361145	
-0.360046	
-0.362793	
-0.363281	
-0.363953	
-0.364563	
-0.364868	
-0.36554	
-0.365723	
-0.367371	
-0.365234	
-0.365234	
-0.364441	
-0.364746	
-0.366028	
-0.366699	
-0.366821	
-0.366333	
-0.366638	
-0.367126	
-0.368225	
-0.366882	
-0.364929	
-0.365417	
-0.364746	
-0.365356	
-0.365417	
-0.365295	
-0.364929	
-0.364624	
-0.36499	
-0.365051	
-0.365479	
-0.362732	
-0.362366	
-0.362183	
-0.362793	
-0.362549	
-0.362366	
-0.362488	
-0.362671	
-0.362427	
-0.362976	
-0.363525	
-0.362305	
-0.361572	
-0.360168	
-0.360962	
-0.362183	
-0.361816	
-0.362244	
-0.362061	
-0.362427	
-0.363464	
-0.364258	
-0.363464	
-0.361328	
-0.361633	
-0.361023	
-0.363525	
-0.36322	
-0.363159	
-0.363953	
-0.364075	
-0.365479	
-0.365356	
-0.365295	
-0.363831	
-0.364014	
-0.364014	
-0.36499	
-0.366089	
-0.366272	
-0.36615	
-0.365662	
-0.366699	
-0.367004	
-0.36792	
-0.366943	
-0.365356	
-0.36615	
-0.366455	
-0.367737	
-0.367432	
-0.367676	
-0.368042	
-0.368958	
-0.369446	
-0.370117	
-0.369995	
-0.368835	
-0.368164	
-0.367615	
-0.368774	
-0.369446	
-0.369629	
-0.36969	
-0.369202	
-0.370483	
-0.370667	
-0.370239	
-0.36908	
-0.368835	
-0.367493	
-0.368164	
-0.369019	
-0.369141	
-0.36908	
-0.370117	
-0.370605	
-0.371094	
-0.370422	
-0.370789	
-0.368774	
-0.369568	
-0.368713	
-0.370361	
-0.369995	
-0.369751	
-0.370605	
-0.369629	
-0.370361	
-0.369873	
-0.370239	
-0.368286	
-0.368103	
-0.368103	
-0.368469	
-0.368713	
-0.368347	
-0.368408	
-0.368652	
-0.369385	
-0.368713	
-0.368835	
-0.368103	
-0.367188	
-0.36676	
-0.367432	
-0.368408	
-0.368286	
-0.368103	
-0.368347	
-0.368896	
-0.369263	
-0.369141	
-0.369629	
-0.368225	
-0.369568	
-0.369629	
-0.371277	
-0.371582	
-0.371826	
-0.37262	
-0.373291	
-0.374573	
-0.374451	
-0.374817	
-0.373779	
-0.374023	
-0.373474	
-0.373047	
-0.37384	
-0.374573	
-0.374573	
-0.374573	
-0.374634	
-0.374878	
-0.375122	
-0.374695	
-0.371948	
-0.373169	
-0.373718	
-0.373657	
-0.37384	
-0.373169	
-0.373291	
-0.373474	
-0.374023	
-0.372864	
-0.372437	
-0.371216	
-0.370789	
-0.369934	
-0.369873	
-0.370239	
-0.370056	
-0.369629	
-0.368896	
-0.369873	
-0.369507	
-0.368591	
-0.367981	
-0.367188	
-0.36676	
-0.366882	
-0.367432	
-0.366638	
-0.36676	
-0.366699	
-0.367188	
-0.367432	
-0.368042	
-0.366821	
-0.365051	
-0.366638	
-0.36731	
-0.366699	
-0.367859	
-0.368286	
-0.368347	
-0.36908	
-0.371216	
-0.37146	
-0.370544	
-0.371643	
-0.370972	
-0.371826	
-0.37262	
-0.372864	
-0.373169	
-0.372742	
-0.373596	
-0.374207	
-0.373962	
-0.373413	
-0.372864	
-0.372864	
-0.372253	
-0.374023	
-0.373169	
-0.374146	
-0.37439	
-0.373962	
-0.374451	
-0.374451	
-0.374512	
-0.374146	
-0.373108	
-0.372437	
-0.374634	
-0.374329	
-0.375	
-0.375061	
-0.374939	
-0.375671	
-0.375793	
-0.376465	
-0.374573	
-0.374207	
-0.374023	
-0.374756	
-0.374939	
-0.374512	
-0.374268	
-0.374329	
-0.374939	
-0.376099	
-0.375671	
-0.374695	
-0.374573	
-0.374756	
-0.374329	
-0.374817	
-0.374573	
-0.374939	
-0.374573	
-0.375061	
-0.375366	
-0.375	
-0.374939	
-0.374268	
-0.373047	
-0.373474	
-0.375	
-0.374634	
-0.374756	
-0.374878	
-0.374512	
-0.374878	
-0.376221	
-0.376709	
-0.375793	
-0.374329	
-0.375305	
-0.375916	
-0.375793	
-0.375488	
-0.375549	
-0.376221	
-0.376587	
-0.377441	
-0.376709	
-0.376038	
-0.375488	
-0.37616	
-0.375061	
-0.376953	
-0.376892	
-0.377014	
-0.37738	
-0.377441	
-0.378723	
-0.378723	
-0.379517	
-0.377808	
-0.378479	
-0.37793	
-0.378906	
-0.378845	
-0.378723	
-0.379089	
-0.379333	
-0.379822	
-0.379944	
-0.381165	
-0.38031	
-0.378357	
-0.380554	
-0.380676	
-0.380676	
-0.380432	
-0.381104	
-0.381165	
-0.381165	
-0.382507	
-0.381226	
-0.380737	
-0.380005	
-0.380554	
-0.378174	
-0.379883	
-0.379333	
-0.37854	
-0.378662	
-0.378601	
-0.378418	
-0.377075	
-0.378052	
-0.37616	
-0.375671	
-0.376038	
-0.375549	
-0.376099	
-0.375854	
-0.375671	
-0.375977	
-0.376038	
-0.377075	
-0.376892	
-0.37561	
-0.374451	
-0.375916	
-0.376343	
-0.376465	
-0.376404	
-0.376221	
-0.377014	
-0.377625	
-0.378967	
-0.37854	
-0.37854	
-0.378906	
-0.379517	
-0.379211	
-0.380432	
-0.380737	
-0.381714	
-0.38208	
-0.381653	
-0.382996	
-0.382751	
-0.383362	
-0.381958	
-0.381104	
-0.38208	
-0.383179	
-0.383179	
-0.382935	
-0.38324	
-0.38385	
-0.384094	
-0.385193	
-0.385193	
-0.38385	
-0.383484	
-0.383545	
-0.383911	
-0.384521	
-0.384766	
-0.383911	
-0.384338	
-0.384338	
-0.38501	
-0.384888	
-0.38446	
-0.383423	
-0.382751	
-0.382751	
-0.384094	
-0.383972	
-0.384094	
-0.383118	
-0.382935	
-0.382874	
-0.38385	
-0.383789	
-0.382751	
-0.381714	
-0.380859	
-0.38147	
-0.381775	
-0.382019	
-0.381958	
-0.381348	
-0.381348	
-0.382629	
-0.382751	
-0.381165	
-0.380554	
-0.380371	
-0.381348	
-0.381104	
-0.381287	
-0.381409	
-0.381714	
-0.381592	
-0.381348	
-0.38208	
-0.382263	
-0.381348	
-0.3797	
-0.38147	
-0.381287	
-0.381714	
-0.381836	
-0.382202	
-0.381958	
-0.382141	
-0.383911	
-0.382751	
-0.381714	
-0.381531	
-0.380615	
-0.382263	
-0.382202	
-0.381775	
-0.381042	
-0.381897	
-0.38208	
-0.382507	
-0.383118	
-0.382813	
-0.382324	
-0.380737	
-0.382813	
-0.383423	
-0.383789	
-0.38324	
-0.383789	
-0.383911	
-0.384766	
-0.387207	
-0.38501	
-0.384521	
-0.384644	
-0.38562	
-0.385803	
-0.385681	
-0.385864	
-0.384949	
-0.385803	
-0.386292	
-0.38678	
-0.386902	
-0.386353	
-0.385925	
-0.383118	
-0.386353	
-0.38623	
-0.385681	
-0.385071	
-0.384644	
-0.384094	
-0.383972	
-0.385986	
-0.383606	
-0.382446	
-0.381104	
-0.382141	
-0.381897	
-0.381897	
-0.381836	
-0.380676	
-0.382019	
-0.381958	
-0.383057	
-0.382141	
-0.382324	
-0.38147	
-0.380676	
-0.382202	
-0.382568	
-0.382874	
-0.382324	
-0.382996	
-0.382996	
-0.384094	
-0.385315	
-0.38501	
-0.384216	
-0.384155	
-0.385681	
-0.385864	
-0.386414	
-0.386536	
-0.386414	
-0.387695	
-0.388184	
-0.390137	
-0.389648	
-0.389893	
-0.389771	
-0.389038	
-0.390625	
-0.390991	
-0.391113	
-0.391052	
-0.392212	
-0.392273	
-0.392639	
-0.393311	
-0.393555	
-0.392639	
-0.391296	
-0.392883	
-0.392944	
-0.392944	
-0.392883	
-0.393066	
-0.39325	
-0.393066	
-0.393738	
-0.393433	
-0.391846	
-0.390503	
-0.391541	
-0.389893	
-0.390076	
-0.389282	
-0.388489	
-0.388977	
-0.388367	
-0.389221	
-0.388184	
-0.388367	
-0.387146	
-0.38678	
-0.387634	
-0.388428	
-0.38855	
-0.387878	
-0.387512	
-0.387573	
-0.388489	
-0.389038	
-0.388977	
-0.388672	
-0.386902	
-0.388245	
-0.387573	
-0.387817	
-0.387756	
-0.386719	
-0.387756	
-0.387878	
-0.389465	
-0.388733	
-0.388428	
-0.388184	
-0.389038	
-0.388611	
-0.38739	
-0.388367	
-0.388733	
-0.388367	
-0.388367	
-0.389343	
-0.390137	
-0.390198	
-0.388977	
-0.386902	
-0.389038	
-0.389465	
-0.38916	
-0.389038	
-0.388672	
-0.389526	
-0.389587	
-0.390747	
-0.389832	
-0.390625	
-0.390808	
-0.39032	
-0.391113	
-0.390015	
-0.390381	
-0.39032	
-0.390564	
-0.390503	
-0.390808	
-0.391174	
-0.390747	
-0.390259	
-0.388306	
-0.390625	
-0.389099	
-0.389526	
-0.389526	
-0.389404	
-0.389954	
-0.389893	
-0.391479	
-0.390381	
-0.391418	
-0.390198	
-0.390076	
-0.389893	
-0.390015	
-0.389709	
-0.389038	
-0.390137	
-0.389587	
-0.389648	
-0.389282	
-0.388977	
-0.388733	
-0.38739	
-0.389038	
-0.387329	
-0.387329	
-0.388794	
-0.388184	
-0.388367	
-0.388611	
-0.389526	
-0.388062	
-0.388733	
-0.388245	
-0.387695	
-0.388306	
-0.386963	
-0.387085	
-0.387207	
-0.387451	
-0.38739	
-0.387817	
-0.387634	
-0.387573	
-0.388306	
-0.386353	
-0.388611	
-0.388	
-0.386902	
-0.389099	
-0.388123	
-0.389099	
-0.390076	
-0.392578	
-0.391357	
-0.392517	
-0.39325	
-0.3927	
-0.39386	
-0.392212	
-0.39386	
-0.393372	
-0.393677	
-0.394226	
-0.394409	
-0.394226	
-0.393738	
-0.39563	
-0.392456	
-0.394653	
-0.394348	
-0.392944	
-0.39386	
-0.393372	
-0.393921	
-0.393372	
-0.39447	
-0.393555	
-0.393494	
-0.393311	
-0.39209	
-0.391846	
-0.39093	
-0.391357	
-0.390076	
-0.389709	
-0.390137	
-0.389954	
-0.390259	
-0.389771	
-0.390198	
-0.388855	
-0.388977	
-0.389893	
-0.388123	
-0.388611	
-0.388245	
-0.388733	
-0.388611	
-0.389099	
-0.388306	
-0.388306	
-0.388245	
-0.387878	
-0.388428	
-0.387756	
-0.387817	
-0.387512	
-0.387268	
-0.38855	
-0.389709	
-0.389343	
-0.388733	
-0.389221	
-0.38916	
-0.388977	
-0.389526	
-0.388916	
-0.389587	
-0.389648	
-0.389404	
-0.390869	
-0.391479	
-0.391541	
-0.391052	
-0.390015	
-0.390259	
-0.391602	
-0.392151	
-0.390503	
-0.392029	
-0.392029	
-0.392456	
-0.393188	
-0.392944	
-0.392456	
-0.392273	
-0.39325	
-0.3927	
-0.393494	
-0.393066	
-0.393127	
-0.393005	
-0.392578	
-0.393982	
-0.393799	
-0.394958	
-0.393433	
-0.393921	
-0.394287	
-0.394226	
-0.394592	
-0.392761	
-0.393188	
-0.392944	
-0.393127	
-0.393677	
-0.393372	
-0.393921	
-0.393799	
-0.393738	
-0.39325	
-0.394104	
-0.39325	
-0.392944	
-0.394226	
-0.393005	
-0.394104	
-0.394043	
-0.393799	
-0.39325	
-0.393982	
-0.393799	
-0.392944	
-0.394226	
-0.392456	
-0.392273	
-0.392334	
-0.392334	
-0.392944	
-0.392151	
-0.3927	
-0.391785	
-0.391541	
-0.391296	
-0.391602	
-0.390808	
-0.389893	
-0.391113	
-0.390625	
-0.391235	
-0.390747	
-0.390808	
-0.390564	
-0.390747	
-0.391602	
-0.390137	
-0.391357	
-0.391235	
-0.391724	
-0.392578	
-0.392822	
-0.394348	
-0.394104	
-0.395569	
-0.395142	
-0.395691	
-0.395813	
-0.395691	
-0.39679	
-0.395508	
-0.395813	
-0.395935	
-0.396667	
-0.396606	
-0.395996	
-0.396912	
-0.395935	
-0.396179	
-0.395447	
-0.395752	
-0.395081	
-0.394287	
-0.395325	
-0.394653	
-0.395813	
-0.394775	
-0.394531	
-0.39447	
-0.393738	
-0.394287	
-0.391968	
-0.3927	
-0.392395	
-0.39209	
-0.391724	
-0.39032	
-0.391418	
-0.390564	
-0.39032	
-0.389343	
-0.388916	
-0.389099	
-0.387878	
-0.387878	
-0.387512	
-0.387085	
-0.387268	
-0.387573	
-0.388	
-0.387329	
-0.387024	
-0.387268	
-0.387451	
-0.386414	
-0.387146	
-0.387695	
-0.386963	
-0.38739	
-0.38739	
-0.388428	
-0.388428	
-0.388611	
-0.388855	
-0.389648	
-0.390564	
-0.390076	
-0.390625	
-0.391968	
-0.391663	
-0.391724	
-0.391357	
-0.392944	
-0.392517	
-0.392883	
-0.392761	
-0.392456	
-0.39209	
-0.392151	
-0.391602	
-0.392151	
-0.392517	
-0.392883	
-0.391785	
-0.393005	
-0.392822	
-0.392517	
-0.392273	
-0.393005	
-0.393127	
-0.393738	
-0.393433	
-0.393127	
-0.393066	
-0.392822	
-0.393005	
-0.393005	
-0.393555	
-0.393433	
-0.393433	
-0.393799	
-0.393066	
-0.391907	
-0.393677	
-0.392761	
-0.392395	
-0.391907	
-0.393311	
-0.392578	
-0.392578	
-0.392944	
-0.392578	
-0.390869	
-0.391968	
-0.392517	
-0.392578	
-0.392273	
-0.392395	
-0.392334	
-0.392151	
-0.392822	
-0.391418	
-0.3927	
-0.3927	
-0.391846	
-0.391479	
-0.392029	
-0.391968	
-0.391663	
-0.391602	
-0.392334	
-0.391907	
-0.393372	
-0.392456	
-0.392517	
-0.392639	
-0.392456	
-0.392151	
-0.392029	
-0.392578	
-0.392517	
-0.391968	
-0.392151	
-0.393311	
-0.392639	
-0.392273	
-0.392639	
-0.391968	
-0.392273	
-0.3927	
-0.392334	
-0.393677	
-0.393921	
-0.394226	
-0.393616	
-0.394592	
-0.394165	
-0.394653	
-0.394409	
-0.394287	
-0.393799	
-0.39502	
-0.395752	
-0.394897	
-0.395142	
-0.395813	
-0.395447	
-0.395874	
-0.39563	
-0.395569	
-0.396484	
-0.395752	
-0.395935	
	
