E:\DOCUMENTS AND SETTINGS\JPOTAS\MEUS DOCUMENTOS\UFRJ\RSCI-BM 12 WK SERIES\070718-RSCI-BM-03\RSCI-BM-03-REMG\070718-RSCI-BM-03-REMG-0003.ACQ
0.025000 msec/sample
1 channel
Analog input
Volts
CH1	
2000	
-0.396423	
-0.39624	
-0.395325	
-0.395081	
-0.395203	
-0.397095	
-0.396729	
-0.396667	
-0.396606	
-0.396301	
-0.393372	
-0.395264	
-0.395264	
-0.394958	
-0.395569	
-0.395203	
-0.39502	
-0.394409	
-0.393738	
-0.393799	
-0.393677	
-0.390808	
-0.393311	
-0.392944	
-0.393921	
-0.393677	
-0.392273	
-0.3927	
-0.39209	
-0.392639	
-0.392334	
-0.392212	
-0.390869	
-0.392517	
-0.392639	
-0.392395	
-0.39209	
-0.3927	
-0.3927	
-0.392456	
-0.393616	
-0.392822	
-0.39093	
-0.391479	
-0.392761	
-0.391968	
-0.392578	
-0.392212	
-0.393127	
-0.39386	
-0.39386	
-0.394043	
-0.393066	
-0.392395	
-0.393555	
-0.393921	
-0.393677	
-0.39386	
-0.394409	
-0.394714	
-0.395264	
-0.395691	
-0.395935	
-0.395203	
-0.39447	
-0.395386	
-0.394226	
-0.395569	
-0.395752	
-0.395142	
-0.395142	
-0.395691	
-0.39679	
-0.396423	
-0.397522	
-0.396484	
-0.395081	
-0.39563	
-0.39679	
-0.394348	
-0.395813	
-0.396301	
-0.396912	
-0.396301	
-0.397095	
-0.398132	
-0.397034	
-0.396362	
-0.396362	
-0.396362	
-0.396301	
-0.397583	
-0.397583	
-0.397766	
-0.398682	
-0.399109	
-0.397705	
-0.397156	
-0.397522	
-0.394958	
-0.396057	
-0.396362	
-0.396851	
-0.396301	
-0.397339	
-0.397766	
-0.3974	
-0.397278	
-0.396851	
-0.3974	
-0.39563	
-0.395935	
-0.396545	
-0.396484	
-0.396484	
-0.396606	
-0.397034	
-0.39624	
-0.396118	
-0.395569	
-0.395447	
-0.393921	
-0.394104	
-0.394226	
-0.393738	
-0.394592	
-0.394043	
-0.393677	
-0.39386	
-0.394653	
-0.394348	
-0.392944	
-0.392395	
-0.392822	
-0.393005	
-0.393494	
-0.394348	
-0.393738	
-0.393555	
-0.394592	
-0.39563	
-0.394165	
-0.393311	
-0.392761	
-0.393311	
-0.39447	
-0.392578	
-0.393066	
-0.392639	
-0.392761	
-0.392883	
-0.393738	
-0.392212	
-0.391174	
-0.39209	
-0.391418	
-0.390137	
-0.390442	
-0.391296	
-0.390564	
-0.390747	
-0.391174	
-0.390442	
-0.389832	
-0.390503	
-0.390381	
-0.389709	
-0.389343	
-0.389954	
-0.389648	
-0.38916	
-0.389709	
-0.390625	
-0.391052	
-0.390747	
-0.39032	
-0.390137	
-0.389587	
-0.38916	
-0.389709	
-0.390381	
-0.390198	
-0.391418	
-0.391602	
-0.391418	
-0.391296	
-0.391663	
-0.391846	
-0.390564	
-0.391052	
-0.391235	
-0.390808	
-0.392273	
-0.392639	
-0.392334	
-0.392883	
-0.394043	
-0.365234	
-0.369873	
-0.376648	
-0.378296	
-0.379395	
-0.379456	
-0.413086	
-0.40033	
-0.395264	
-0.394287	
-0.394226	
-0.394043	
-0.393555	
-0.393555	
-0.393494	
-0.393188	
-0.393677	
-0.393494	
-0.392944	
-0.393188	
-0.394348	
-0.394714	
-0.393372	
-0.394165	
-0.361145	
-0.372559	
-0.378235	
-0.380493	
-0.380981	
-0.381653	
-0.41571	
-0.402344	
-0.398926	
-0.396729	
-0.39502	
-0.393616	
-0.395386	
-0.393677	
-0.394043	
-0.395447	
-0.394897	
-0.394592	
-0.395447	
-0.396423	
-0.395447	
-0.395081	
-0.392822	
-0.394531	
-0.394775	
-0.395203	
-0.395691	
-0.395569	
-0.395508	
-0.396484	
-0.396545	
-0.395264	
-0.395935	
-0.393677	
-0.393188	
-0.393494	
-0.391541	
-0.392395	
-0.393311	
-0.393311	
-0.392761	
-0.395386	
-0.394287	
-0.394653	
-0.394653	
-0.394348	
-0.394592	
-0.394531	
-0.395081	
-0.395203	
-0.395691	
-0.394775	
-0.395996	
-0.394775	
-0.394104	
-0.393738	
-0.39325	
-0.393066	
-0.392456	
-0.393494	
-0.39209	
-0.392212	
-0.391418	
-0.392273	
-0.392517	
-0.392761	
-0.393433	
-0.391418	
-0.392456	
-0.391296	
-0.392639	
-0.393738	
-0.394653	
-0.395447	
-0.397461	
-0.39856	
-0.399475	
-0.401733	
-0.39917	
-0.401672	
-0.40271	
-0.40564	
-0.408142	
-0.410339	
-0.412048	
-0.414612	
-0.416199	
-0.418396	
-0.421509	
-0.422302	
-0.425476	
-0.425964	
-0.430603	
-0.432251	
-0.434692	
-0.438049	
-0.442017	
-0.442139	
-0.444397	
-0.444458	
-0.446411	
-0.44989	
-0.449707	
-0.452637	
-0.453064	
-0.452454	
-0.452454	
-0.453918	
-0.450684	
-0.45105	
-0.44928	
-0.446899	
-0.447632	
-0.445007	
-0.445068	
-0.443542	
-0.441833	
-0.440735	
-0.440247	
-0.436707	
-0.434143	
-0.432007	
-0.429443	
-0.429932	
-0.428894	
-0.429688	
-0.430115	
-0.431702	
-0.432373	
-0.434509	
-0.43457	
-0.435242	
-0.436768	
-0.436829	
-0.439758	
-0.441162	
-0.444763	
-0.446716	
-0.448486	
-0.450378	
-0.453369	
-0.454651	
-0.456482	
-0.4599	
-0.459778	
-0.462708	
-0.463928	
-0.467957	
-0.46936	
-0.471313	
-0.473755	
-0.476501	
-0.476929	
-0.478516	
-0.481995	
-0.481079	
-0.483154	
-0.48291	
-0.484924	
-0.485718	
-0.485901	
-0.486084	
-0.487427	
-0.484619	
-0.482178	
-0.481079	
-0.476318	
-0.475952	
-0.472656	
-0.470825	
-0.468628	
-0.465576	
-0.461548	
-0.459412	
-0.455261	
-0.45166	
-0.449585	
-0.442627	
-0.439941	
-0.435242	
-0.431824	
-0.428284	
-0.423889	
-0.420227	
-0.417664	
-0.413696	
-0.409546	
-0.408875	
-0.402527	
-0.401123	
-0.397949	
-0.395691	
-0.392212	
-0.39032	
-0.38739	
-0.383911	
-0.380493	
-0.37561	
-0.372192	
-0.366089	
-0.363647	
-0.360046	
-0.356323	
-0.353394	
-0.350403	
-0.347412	
-0.344543	
-0.34375	
-0.339722	
-0.337708	
-0.333679	
-0.332275	
-0.328979	
-0.326782	
-0.324036	
-0.321106	
-0.319641	
-0.317993	
-0.318054	
-0.316284	
-0.316345	
-0.313232	
-0.31427	
-0.314392	
-0.314514	
-0.314819	
-0.31604	
-0.316589	
-0.317932	
-0.319458	
-0.319641	
-0.321533	
-0.320984	
-0.323792	
-0.324585	
-0.327026	
-0.32843	
-0.330139	
-0.331177	
-0.333984	
-0.334656	
-0.335083	
-0.335876	
-0.337036	
-0.337891	
-0.338684	
-0.340637	
-0.34021	
-0.342102	
-0.343994	
-0.345459	
-0.345032	
-0.345642	
-0.344055	
-0.345703	
-0.345276	
-0.346436	
-0.347534	
-0.347961	
-0.349304	
-0.351013	
-0.350708	
-0.350769	
-0.352234	
-0.351013	
-0.35199	
-0.351746	
-0.354004	
-0.354492	
-0.355408	
-0.356995	
-0.357727	
-0.357422	
-0.358215	
-0.357788	
-0.358093	
-0.359497	
-0.359497	
-0.360107	
-0.360535	
-0.360352	
-0.360474	
-0.361938	
-0.361816	
-0.362061	
-0.362244	
-0.363342	
-0.363525	
-0.363403	
-0.364258	
-0.364746	
-0.365051	
-0.36676	
-0.367004	
-0.366699	
-0.366699	
-0.366089	
-0.367676	
-0.366821	
-0.36853	
-0.369324	
-0.369629	
-0.370239	
-0.370117	
-0.371277	
-0.370667	
-0.371338	
-0.370117	
-0.370422	
-0.369873	
-0.371094	
-0.37146	
-0.372314	
-0.373657	
-0.373291	
-0.37384	
-0.374512	
-0.374207	
-0.37384	
-0.374268	
-0.374451	
-0.37439	
-0.375	
-0.375183	
-0.375305	
-0.375977	
-0.376709	
-0.376221	
-0.374634	
-0.374878	
-0.375366	
-0.374878	
-0.375305	
-0.375854	
-0.375916	
-0.375427	
-0.375305	
-0.375366	
-0.376221	
-0.375366	
-0.374817	
-0.375366	
-0.375122	
-0.375244	
-0.375488	
-0.376526	
-0.375977	
-0.375916	
-0.376038	
-0.376343	
-0.374695	
-0.373108	
-0.373657	
-0.37384	
-0.373962	
-0.374023	
-0.372864	
-0.372681	
-0.373047	
-0.371521	
-0.372314	
-0.370972	
-0.371155	
-0.371826	
-0.372437	
-0.37262	
-0.373047	
-0.372742	
-0.373474	
-0.373962	
-0.373108	
-0.373962	
-0.372864	
-0.372742	
-0.373962	
-0.374878	
-0.375	
-0.375244	
-0.375	
-0.376282	
-0.377441	
-0.376709	
-0.376831	
-0.376709	
-0.377014	
-0.377747	
-0.377319	
-0.37793	
-0.379272	
-0.378052	
-0.377991	
-0.379761	
-0.378967	
-0.377747	
-0.378113	
-0.377075	
-0.377075	
-0.376953	
-0.378296	
-0.378784	
-0.378235	
-0.378662	
-0.37915	
-0.379822	
-0.378845	
-0.378418	
-0.376526	
-0.37854	
-0.378174	
-0.378418	
-0.379883	
-0.380371	
-0.379272	
-0.378967	
-0.380005	
-0.379517	
-0.3797	
-0.378113	
-0.379395	
-0.378906	
-0.379333	
-0.380249	
-0.379883	
-0.3797	
-0.380371	
-0.381958	
-0.380981	
-0.380737	
-0.378357	
-0.380615	
-0.379822	
-0.380005	
-0.380798	
-0.380432	
-0.380005	
-0.38092	
-0.380554	
-0.379883	
-0.380554	
-0.378418	
-0.380249	
-0.380981	
-0.380676	
-0.381287	
-0.381104	
-0.381714	
-0.382202	
-0.381958	
-0.382019	
-0.381836	
-0.379944	
-0.382019	
-0.38269	
-0.38324	
-0.384094	
-0.383423	
-0.382019	
-0.382507	
-0.38324	
-0.38269	
-0.382629	
-0.381348	
-0.38147	
-0.381226	
-0.380249	
-0.381226	
-0.380981	
-0.381592	
-0.381897	
-0.381836	
-0.381348	
-0.380066	
-0.379517	
-0.380066	
-0.3797	
-0.378784	
-0.380493	
-0.380554	
-0.380432	
-0.381226	
-0.380798	
-0.379944	
-0.3797	
-0.379883	
-0.379395	
-0.379639	
-0.379211	
-0.379944	
-0.379272	
-0.380066	
-0.379761	
-0.380371	
-0.379028	
-0.377319	
-0.379883	
-0.380127	
-0.379333	
-0.378723	
-0.380371	
-0.379456	
-0.380981	
-0.380737	
-0.381104	
-0.380676	
-0.380676	
-0.381714	
-0.380798	
-0.38031	
-0.380554	
-0.381592	
-0.381348	
-0.382507	
-0.382019	
-0.382446	
-0.38147	
-0.381348	
-0.381653	
-0.382324	
-0.382629	
-0.381775	
-0.38324	
-0.382446	
-0.383484	
-0.382446	
-0.38269	
-0.381409	
-0.381409	
-0.383057	
-0.382874	
-0.382813	
-0.381714	
-0.383423	
-0.383179	
-0.382935	
-0.381531	
-0.383667	
-0.382874	
-0.38324	
-0.384155	
-0.383972	
-0.383362	
-0.383118	
-0.383911	
-0.382996	
-0.383728	
-0.382446	
-0.383972	
-0.382813	
-0.383179	
-0.383179	
-0.382751	
-0.382874	
-0.382813	
-0.384277	
-0.383484	
-0.383728	
-0.382751	
-0.383545	
-0.382202	
-0.382263	
-0.381409	
-0.383301	
-0.382446	
-0.381226	
-0.381348	
-0.380554	
-0.380981	
-0.379883	
-0.382019	
-0.380249	
-0.379211	
-0.378723	
-0.379272	
-0.379028	
-0.379395	
-0.378601	
-0.378723	
-0.37915	
-0.377502	
-0.379944	
-0.378601	
-0.37854	
-0.378052	
-0.378296	
-0.378601	
-0.378845	
-0.379028	
-0.378601	
-0.37854	
-0.377258	
-0.379211	
-0.377747	
-0.37738	
-0.377197	
-0.37854	
-0.377014	
-0.376343	
-0.376038	
-0.376648	
-0.376099	
-0.375183	
-0.377319	
-0.375244	
-0.375305	
-0.374756	
-0.375488	
-0.375	
-0.374207	
-0.373352	
-0.37439	
-0.374817	
-0.373291	
-0.375122	
-0.374695	
-0.37439	
-0.373962	
-0.374268	
-0.37384	
-0.374512	
-0.374695	
-0.374695	
-0.374084	
-0.373169	
-0.375061	
-0.374146	
-0.373657	
-0.37384	
-0.375671	
-0.376038	
-0.374756	
-0.374817	
-0.37561	
-0.375183	
-0.375244	
-0.376892	
-0.375793	
-0.374695	
-0.376404	
-0.376709	
-0.376831	
-0.377136	
-0.37793	
-0.377808	
-0.37738	
-0.377258	
-0.378174	
-0.376648	
-0.376648	
-0.376953	
-0.375854	
-0.376526	
-0.376831	
-0.376465	
-0.376709	
-0.377747	
-0.378357	
-0.37854	
-0.377319	
-0.376099	
-0.376343	
-0.376404	
-0.376526	
-0.376038	
-0.376953	
-0.376282	
-0.377075	
-0.377197	
-0.376709	
-0.37738	
-0.376465	
-0.376526	
-0.376709	
-0.376587	
-0.376404	
-0.376648	
-0.375488	
-0.376587	
-0.375977	
-0.375977	
-0.376404	
-0.374939	
-0.375671	
-0.375793	
-0.375549	
-0.374939	
-0.37561	
-0.374084	
-0.37439	
-0.374634	
-0.375854	
-0.376709	
-0.374512	
-0.374268	
-0.373596	
-0.374634	
-0.374146	
-0.374329	
-0.37207	
-0.372437	
-0.372498	
-0.372681	
-0.37323	
-0.371399	
-0.370178	
-0.370056	
-0.372253	
-0.370422	
-0.369446	
-0.369934	
-0.369751	
-0.369751	
-0.369446	
-0.370544	
-0.369385	
-0.368835	
-0.368774	
-0.370117	
-0.369812	
-0.369019	
-0.368103	
-0.367188	
-0.367859	
-0.36792	
-0.369141	
-0.367737	
-0.367004	
-0.366516	
-0.367737	
-0.367737	
-0.36792	
-0.367432	
-0.367126	
-0.367432	
-0.366516	
-0.368958	
-0.366882	
-0.365234	
-0.366638	
-0.367249	
-0.366028	
-0.366516	
-0.366333	
-0.365662	
-0.365784	
-0.365295	
-0.367188	
-0.365601	
-0.365051	
-0.365601	
-0.366028	
-0.366455	
-0.365845	
-0.36615	
-0.365479	
-0.366089	
-0.364624	
-0.366333	
-0.36499	
-0.364685	
-0.365723	
-0.365967	
-0.367004	
-0.36676	
-0.366882	
-0.365967	
-0.366394	
-0.366943	
-0.369141	
-0.367676	
-0.366089	
-0.367371	
-0.368042	
-0.368774	
-0.368774	
-0.368958	
-0.368164	
-0.368896	
-0.367676	
-0.368713	
-0.368713	
-0.367981	
-0.367065	
-0.368164	
-0.368896	
-0.368347	
-0.368225	
-0.367554	
-0.368652	
-0.367798	
-0.367981	
-0.367981	
-0.367798	
-0.368286	
-0.370239	
-0.369934	
-0.369446	
-0.370728	
-0.369812	
-0.369446	
-0.369385	
-0.370483	
-0.37085	
-0.370056	
-0.370544	
-0.371704	
-0.37146	
-0.3703	
-0.371948	
-0.371277	
-0.371765	
-0.371887	
-0.371704	
-0.371765	
-0.371582	
-0.371338	
-0.37146	
-0.372009	
-0.371948	
-0.372009	
-0.371826	
-0.371399	
-0.372559	
-0.372864	
-0.372437	
-0.372314	
-0.372375	
-0.371765	
-0.372742	
-0.372864	
-0.373413	
-0.371399	
-0.371155	
-0.37207	
-0.371765	
-0.371948	
-0.371338	
-0.371338	
-0.369385	
-0.370789	
-0.371887	
-0.371765	
-0.371399	
-0.371582	
-0.371765	
-0.370911	
-0.372192	
-0.37085	
-0.371094	
-0.370056	
-0.371094	
-0.371338	
-0.371582	
-0.370972	
-0.37085	
-0.371277	
-0.370667	
-0.372131	
-0.370667	
-0.370422	
-0.370361	
-0.370605	
-0.371094	
-0.371216	
-0.370422	
-0.369873	
-0.370972	
-0.371277	
-0.371826	
-0.369995	
-0.369934	
-0.369629	
-0.370422	
-0.370361	
-0.369629	
-0.370483	
-0.370178	
-0.370544	
-0.370544	
-0.371704	
-0.370544	
-0.37085	
-0.370483	
-0.371643	
-0.372192	
-0.371338	
-0.371094	
-0.370972	
-0.372437	
-0.371826	
-0.373413	
-0.372192	
-0.371826	
-0.371216	
-0.372864	
-0.372559	
-0.372498	
-0.373474	
-0.37262	
-0.374084	
-0.373962	
-0.375305	
-0.374512	
-0.375305	
-0.375549	
-0.375793	
-0.375854	
-0.376221	
-0.376526	
-0.375488	
-0.376648	
-0.377258	
-0.377869	
-0.376221	
-0.376953	
-0.376831	
-0.377808	
-0.377625	
-0.377258	
-0.377075	
-0.377686	
-0.377258	
-0.377197	
-0.377869	
-0.376892	
-0.377441	
-0.377869	
-0.378296	
-0.379395	
-0.379395	
-0.379272	
-0.379944	
-0.378601	
-0.379456	
-0.380859	
-0.379578	
-0.379578	
-0.380798	
-0.381897	
-0.381409	
-0.381775	
-0.381165	
-0.381348	
-0.381714	
-0.382446	
-0.383484	
-0.382568	
-0.382446	
-0.382568	
-0.382263	
-0.382568	
-0.382751	
-0.38208	
-0.383118	
-0.382935	
-0.382874	
-0.383728	
-0.38208	
-0.382568	
-0.382202	
-0.383057	
-0.382507	
-0.382568	
-0.381714	
-0.382019	
-0.381775	
-0.381409	
-0.382507	
-0.380859	
-0.381042	
-0.38092	
-0.381104	
-0.380798	
-0.381348	
-0.379822	
-0.380066	
-0.380493	
-0.379333	
-0.380981	
-0.380615	
-0.380798	
-0.379456	
-0.380615	
-0.380554	
-0.381104	
-0.381042	
-0.380554	
-0.380981	
-0.378845	
-0.380676	
-0.380188	
-0.379028	
-0.379089	
-0.380676	
-0.380493	
-0.379639	
-0.379822	
-0.380005	
-0.380188	
-0.378723	
-0.380188	
-0.378906	
-0.379517	
-0.378845	
-0.378174	
-0.378784	
-0.379395	
-0.379211	
-0.379089	
-0.380127	
-0.378418	
-0.378906	
-0.37915	
-0.379089	
-0.379333	
-0.378418	
-0.379944	
-0.379822	
-0.378174	
-0.379272	
-0.380371	
-0.379883	
-0.380127	
-0.379395	
-0.378967	
-0.37915	
-0.378784	
-0.379761	
-0.379089	
-0.378967	
-0.380066	
-0.381409	
-0.380249	
-0.380859	
-0.380676	
-0.381287	
-0.381714	
-0.381287	
-0.382446	
-0.382874	
-0.382874	
-0.38269	
-0.383179	
-0.384521	
-0.383545	
-0.382324	
-0.383972	
-0.384155	
-0.382935	
-0.383301	
-0.384155	
-0.385071	
-0.385254	
-0.384766	
-0.385315	
-0.385193	
-0.384949	
-0.383484	
-0.384644	
-0.385071	
-0.38446	
-0.384399	
-0.385559	
-0.384827	
-0.384399	
-0.384827	
-0.384644	
-0.385681	
-0.38385	
-0.385132	
-0.385559	
-0.385559	
-0.385254	
-0.385315	
-0.385925	
-0.386536	
-0.386169	
-0.384949	
-0.387329	
-0.38562	
-0.385986	
-0.386353	
-0.386475	
-0.385986	
-0.386169	
-0.386414	
-0.386108	
-0.386841	
-0.386902	
-0.387268	
-0.385132	
-0.386108	
-0.386414	
-0.386597	
-0.386169	
-0.385986	
-0.386475	
-0.385559	
-0.384583	
-0.384521	
-0.384827	
-0.383423	
-0.384399	
-0.383972	
-0.383606	
-0.383179	
-0.383423	
-0.383362	
-0.383728	
-0.383728	
-0.383179	
-0.383484	
-0.382813	
-0.383789	
-0.383057	
-0.383362	
-0.383789	
-0.383911	
-0.383057	
-0.383484	
-0.383728	
-0.383911	
-0.384583	
-0.383423	
-0.383179	
-0.383057	
-0.381836	
-0.382935	
-0.382568	
-0.382141	
-0.381775	
-0.381653	
-0.381775	
-0.381409	
-0.381348	
-0.381348	
-0.381042	
-0.380371	
-0.38092	
-0.380432	
-0.381104	
-0.380676	
-0.379578	
-0.38031	
-0.381104	
-0.380981	
-0.380066	
-0.380554	
-0.380859	
-0.380737	
-0.381409	
-0.381348	
-0.380188	
-0.380859	
-0.380249	
-0.380127	
-0.380798	
-0.38031	
-0.38031	
-0.381042	
-0.381042	
-0.380981	
-0.381592	
-0.380554	
-0.380981	
-0.3797	
-0.381226	
-0.382324	
-0.38208	
-0.381775	
-0.381836	
-0.382324	
-0.382446	
-0.382874	
-0.383301	
-0.382141	
-0.381409	
-0.383484	
-0.382935	
-0.383728	
-0.384094	
-0.384155	
-0.383911	
-0.384033	
-0.384277	
-0.384521	
-0.38385	
-0.383179	
-0.384705	
-0.383972	
-0.385193	
-0.385254	
-0.384338	
-0.384338	
-0.385254	
-0.384277	
-0.384277	
-0.384644	
-0.384216	
-0.384705	
-0.384033	
-0.384888	
-0.385254	
-0.385437	
-0.38562	
-0.386047	
-0.385986	
-0.384338	
-0.385071	
-0.384949	
-0.385986	
-0.384521	
-0.385071	
-0.385071	
-0.384644	
-0.385925	
-0.385437	
-0.384766	
-0.384827	
-0.385742	
-0.384033	
-0.384766	
-0.384888	
-0.385437	
-0.384949	
-0.384705	
-0.384949	
-0.386169	
-0.385498	
-0.384338	
-0.384644	
-0.382263	
-0.383301	
-0.383362	
-0.38269	
-0.382507	
-0.382935	
-0.382507	
-0.383423	
-0.382629	
-0.381287	
-0.382874	
-0.381165	
-0.381775	
-0.382324	
-0.382629	
-0.381775	
-0.381775	
-0.381409	
-0.382996	
-0.382385	
-0.381714	
-0.382202	
-0.380981	
-0.382446	
-0.383362	
-0.383423	
-0.38208	
-0.381409	
-0.381226	
-0.382507	
-0.381287	
-0.381409	
-0.381531	
-0.380188	
-0.380615	
-0.380554	
-0.380127	
-0.379883	
-0.379761	
-0.378784	
-0.381104	
-0.379272	
-0.379395	
-0.379333	
-0.377808	
-0.378418	
-0.379211	
-0.378052	
-0.378113	
-0.37915	
-0.37854	
-0.380005	
-0.378357	
-0.37854	
-0.378662	
-0.378723	
-0.378845	
-0.378418	
-0.37854	
-0.378113	
-0.379272	
-0.378601	
-0.380066	
-0.379028	
-0.379761	
-0.378357	
-0.379395	
-0.379883	
-0.380249	
-0.380005	
-0.380127	
-0.380188	
-0.38031	
-0.382629	
-0.380615	
-0.380676	
-0.379822	
-0.381958	
-0.381531	
-0.381348	
-0.382141	
-0.381287	
-0.381592	
-0.382263	
-0.383301	
-0.382324	
-0.381836	
-0.380554	
-0.381714	
-0.382202	
-0.382751	
-0.382202	
-0.383545	
-0.382874	
-0.381653	
-0.383423	
-0.382935	
-0.382202	
-0.381897	
-0.383057	
-0.382813	
-0.383301	
-0.382874	
-0.382629	
-0.382996	
-0.383057	
-0.384094	
-0.38385	
-0.384033	
-0.383911	
-0.383911	
-0.384399	
-0.384521	
-0.383362	
-0.383484	
-0.383789	
-0.383972	
-0.384644	
-0.384705	
-0.383545	
-0.382996	
-0.382568	
-0.383057	
-0.384033	
-0.383667	
-0.38385	
-0.384338	
-0.384888	
-0.384033	
-0.384705	
-0.384155	
-0.382874	
-0.383423	
-0.384216	
-0.382996	
-0.382141	
-0.38269	
-0.381531	
-0.382629	
-0.382263	
-0.381592	
-0.381226	
-0.380737	
-0.379639	
-0.381042	
-0.38147	
-0.381104	
-0.380737	
-0.379822	
-0.381592	
-0.380554	
-0.38031	
-0.380615	
-0.38031	
-0.379089	
-0.380188	
-0.380005	
-0.379456	
-0.379089	
-0.379272	
-0.380005	
-0.379822	
-0.379639	
-0.37915	
-0.37915	
-0.378845	
-0.380249	
-0.380005	
-0.379333	
-0.378479	
-0.378723	
-0.380554	
-0.378662	
-0.379639	
-0.379272	
-0.378784	
-0.37738	
-0.379211	
-0.379456	
-0.378174	
-0.377319	
-0.37738	
-0.379211	
-0.378479	
-0.379333	
-0.378235	
-0.378113	
-0.377869	
-0.379089	
-0.37854	
-0.37854	
-0.377808	
-0.377502	
-0.378845	
-0.378235	
-0.379272	
-0.378296	
-0.379089	
-0.378357	
-0.380127	
-0.380249	
-0.379028	
-0.37915	
-0.379517	
-0.381714	
-0.381165	
-0.381226	
-0.380737	
-0.38031	
-0.379639	
-0.382385	
-0.382813	
-0.381775	
-0.381714	
-0.379761	
-0.381592	
-0.382019	
-0.382202	
-0.381104	
-0.381897	
-0.380615	
-0.381714	
-0.381592	
-0.380859	
-0.380859	
-0.3797	
-0.381287	
-0.382202	
-0.382385	
-0.381775	
-0.382568	
-0.38208	
-0.382568	
-0.382874	
-0.382751	
-0.382507	
-0.381653	
-0.383057	
-0.383545	
-0.384033	
-0.38446	
-0.383667	
-0.382629	
-0.384216	
-0.383972	
-0.384094	
-0.384094	
-0.383606	
-0.383667	
-0.384766	
-0.385071	
-0.384338	
-0.38324	
-0.38385	
-0.384277	
-0.384216	
-0.384766	
-0.384583	
-0.383728	
-0.38446	
-0.385742	
-0.386047	
-0.384949	
-0.383301	
-0.383423	
-0.38385	
-0.383667	
-0.384155	
-0.382813	
-0.382568	
-0.383911	
-0.384705	
-0.383545	
-0.383057	
-0.381531	
-0.381287	
-0.381653	
-0.382996	
-0.382568	
-0.381714	
-0.380981	
-0.381653	
-0.382324	
-0.382568	
-0.383362	
-0.381348	
-0.381165	
-0.381836	
-0.382202	
-0.382019	
-0.380676	
-0.379272	
-0.379761	
-0.381409	
-0.381897	
-0.381348	
-0.380493	
-0.380493	
-0.380737	
-0.380676	
-0.380005	
-0.379944	
-0.379211	
-0.379944	
-0.380554	
-0.38031	
-0.380798	
-0.379395	
-0.379089	
-0.379333	
-0.379639	
-0.379456	
-0.379517	
-0.378784	
-0.380249	
-0.380981	
-0.380554	
-0.380859	
-0.379456	
-0.379028	
-0.38031	
-0.38092	
-0.380676	
-0.380005	
-0.379028	
-0.380432	
-0.381653	
-0.38031	
-0.380249	
-0.379822	
-0.379211	
-0.38092	
-0.381775	
-0.381958	
-0.381653	
-0.380554	
-0.382263	
-0.382629	
-0.382385	
-0.38324	
-0.38269	
-0.382202	
-0.38385	
-0.384338	
-0.383179	
-0.383362	
-0.382507	
-0.384583	
-0.384705	
-0.383789	
-0.384277	
-0.383606	
-0.382202	
-0.383728	
-0.384033	
-0.384949	
-0.384216	
-0.381042	
-0.383118	
-0.384277	
-0.38446	
-0.383911	
-0.383789	
-0.38324	
-0.38501	
-0.384277	
-0.385315	
-0.385071	
-0.384033	
-0.384888	
-0.386963	
-0.385742	
-0.385437	
-0.386108	
-0.385681	
-0.386475	
-0.385864	
-0.387573	
-0.386475	
-0.385742	
-0.386108	
-0.388672	
-0.388184	
-0.387268	
-0.387329	
-0.386475	
-0.387329	
-0.387085	
-0.388184	
-0.387146	
-0.386475	
-0.386597	
-0.388184	
-0.388062	
-0.387329	
-0.387085	
-0.385925	
-0.387024	
-0.386841	
-0.387268	
-0.386353	
-0.38562	
-0.385498	
-0.386658	
-0.386536	
-0.385864	
-0.385864	
-0.384644	
-0.384888	
-0.385376	
-0.385193	
-0.384277	
-0.383789	
-0.383728	
-0.385864	
-0.385376	
-0.384521	
-0.386047	
-0.384155	
-0.385071	
-0.386108	
-0.385864	
-0.384766	
-0.384277	
-0.383972	
-0.385132	
-0.384949	
-0.38385	
-0.385193	
-0.383667	
-0.383484	
-0.38446	
-0.384705	
-0.383972	
-0.383606	
-0.383362	
-0.383301	
-0.383301	
-0.382996	
-0.38324	
-0.382141	
-0.382874	
-0.383118	
-0.382446	
-0.381958	
-0.382385	
-0.382324	
-0.383362	
-0.382446	
-0.382263	
-0.383301	
-0.382813	
-0.382507	
-0.382996	
-0.382874	
-0.382202	
-0.382202	
-0.38269	
-0.382263	
-0.383118	
-0.381958	
-0.382385	
-0.382202	
-0.382813	
-0.38269	
-0.38324	
-0.383423	
-0.382019	
-0.383606	
-0.383179	
-0.38446	
-0.384155	
-0.385315	
-0.384521	
-0.383972	
-0.384827	
-0.385559	
-0.385498	
-0.384338	
-0.386658	
-0.38562	
-0.387024	
-0.387329	
-0.386902	
-0.385559	
-0.386169	
-0.387268	
-0.386963	
-0.388	
-0.385986	
-0.387634	
-0.387512	
-0.388916	
-0.388245	
-0.388123	
-0.386475	
-0.386536	
-0.387634	
-0.387329	
-0.388	
-0.386292	
-0.387268	
-0.387939	
-0.388794	
-0.388489	
-0.388367	
-0.387756	
-0.387878	
-0.387756	
-0.388489	
-0.388611	
-0.387573	
-0.388794	
-0.388367	
-0.389587	
-0.389465	
-0.389404	
-0.388977	
-0.389038	
-0.388611	
-0.388794	
-0.389404	
-0.387695	
-0.388611	
-0.389221	
-0.389221	
-0.388977	
-0.389587	
-0.38916	
-0.388916	
-0.388367	
-0.388245	
-0.388794	
-0.386841	
-0.387329	
-0.387878	
-0.386719	
-0.387695	
-0.387207	
-0.386536	
-0.385986	
-0.386414	
-0.385498	
-0.386292	
-0.385193	
-0.386536	
-0.386108	
-0.385437	
-0.387268	
	
