E:\DOCUMENTS AND SETTINGS\JPOTAS\MEUS DOCUMENTOS\UFRJ\RSCI-BM 12 WK SERIES\070718-RSCI-BM-03\RSCI-BM-03-REMG\070718-RSCI-BM-03-REMG-0012.ACQ
0.025000 msec/sample
1 channel
Analog input
Volts
CH1	
2000	
-0.395386	
-0.395508	
-0.395203	
-0.394043	
-0.394653	
-0.394775	
-0.394287	
-0.396545	
-0.396362	
-0.396729	
-0.396484	
-0.396606	
-0.397705	
-0.398193	
-0.397888	
-0.397217	
-0.398132	
-0.396545	
-0.397949	
-0.398438	
-0.398071	
-0.397949	
-0.398926	
-0.398621	
-0.397705	
-0.398743	
-0.397888	
-0.396851	
-0.396851	
-0.397339	
-0.397156	
-0.39624	
-0.395691	
-0.394897	
-0.396057	
-0.396362	
-0.396118	
-0.394775	
-0.394592	
-0.395996	
-0.39679	
-0.397766	
-0.395874	
-0.396606	
-0.39679	
-0.396912	
-0.397461	
-0.397766	
-0.395996	
-0.396179	
-0.396484	
-0.396423	
-0.398499	
-0.397888	
-0.397827	
-0.39679	
-0.397766	
-0.3974	
-0.396912	
-0.395996	
-0.396423	
-0.396057	
-0.394775	
-0.397278	
-0.396301	
-0.395569	
-0.395081	
-0.394409	
-0.395447	
-0.395752	
-0.396362	
-0.396118	
-0.39679	
-0.395447	
-0.396851	
-0.398132	
-0.398499	
-0.398254	
-0.398193	
-0.399292	
-0.39978	
-0.400146	
-0.398621	
-0.399536	
-0.39917	
-0.400208	
-0.40033	
-0.400024	
-0.400146	
-0.399841	
-0.399963	
-0.399475	
-0.399414	
-0.398071	
-0.398071	
-0.397705	
-0.39917	
-0.397766	
-0.396912	
-0.396667	
-0.397217	
-0.396973	
-0.396667	
-0.396606	
-0.396118	
-0.394409	
-0.395447	
-0.395569	
-0.396301	
-0.396362	
-0.395508	
-0.395325	
-0.394653	
-0.395935	
-0.395813	
-0.395081	
-0.395203	
-0.397156	
-0.395935	
-0.396545	
-0.397705	
-0.396423	
-0.396545	
-0.396912	
-0.397766	
-0.397034	
-0.397217	
-0.396423	
-0.396912	
-0.395325	
-0.397217	
-0.397522	
-0.39679	
-0.396545	
-0.396912	
-0.397522	
-0.396179	
-0.396362	
-0.395508	
-0.396057	
-0.395203	
-0.395874	
-0.396057	
-0.395142	
-0.394592	
-0.395447	
-0.395142	
-0.394897	
-0.395569	
-0.394165	
-0.394592	
-0.394531	
-0.396057	
-0.396057	
-0.395386	
-0.394714	
-0.395264	
-0.394958	
-0.395935	
-0.396057	
-0.39502	
-0.394409	
-0.395142	
-0.396179	
-0.395447	
-0.394958	
-0.393677	
-0.39386	
-0.394043	
-0.393677	
-0.3927	
-0.391602	
-0.390869	
-0.392151	
-0.390747	
-0.391418	
-0.392334	
-0.391052	
-0.39093	
-0.391174	
-0.391174	
-0.39032	
-0.391907	
-0.391357	
-0.391785	
-0.392334	
-0.392822	
-0.393494	
-0.392578	
-0.393188	
-0.393799	
-0.394348	
-0.393921	
-0.39447	
-0.392273	
-0.394287	
-0.394165	
-0.368591	
-0.404114	
-0.398254	
-0.395569	
-0.394958	
-0.394592	
-0.39386	
-0.394714	
-0.393494	
-0.393921	
-0.39325	
-0.394775	
-0.394043	
-0.394531	
-0.393677	
-0.394104	
-0.394409	
-0.394348	
-0.395203	
-0.393738	
-0.393494	
-0.394226	
-0.394348	
-0.394348	
-0.394714	
-0.395447	
-0.395142	
-0.395325	
-0.394653	
-0.395813	
-0.394897	
-0.393616	
-0.393799	
-0.393677	
-0.394714	
-0.394958	
-0.393616	
-0.391907	
-0.392151	
-0.391907	
-0.391907	
-0.391846	
-0.390442	
-0.391418	
-0.391052	
-0.392029	
-0.391052	
-0.391357	
-0.391113	
-0.391235	
-0.390198	
-0.391479	
-0.391052	
-0.390503	
-0.391174	
-0.390808	
-0.392212	
-0.391357	
-0.390808	
-0.389893	
-0.390503	
-0.39093	
-0.390869	
-0.390259	
-0.388367	
-0.389221	
-0.387329	
-0.388184	
-0.38739	
-0.386658	
-0.385254	
-0.384094	
-0.384583	
-0.382446	
-0.382751	
-0.379517	
-0.380005	
-0.378784	
-0.378723	
-0.377991	
-0.377197	
-0.376221	
-0.375305	
-0.376648	
-0.374451	
-0.374878	
-0.373352	
-0.373901	
-0.374329	
-0.375061	
-0.375854	
-0.376892	
-0.376038	
-0.376343	
-0.3797	
-0.379639	
-0.380554	
-0.380066	
-0.38269	
-0.384094	
-0.385254	
-0.386963	
-0.389954	
-0.391296	
-0.392578	
-0.396606	
-0.398621	
-0.400757	
-0.402039	
-0.405823	
-0.408386	
-0.411804	
-0.415771	
-0.418457	
-0.421082	
-0.423767	
-0.428101	
-0.430176	
-0.433472	
-0.434021	
-0.439392	
-0.441406	
-0.44458	
-0.447754	
-0.448608	
-0.450378	
-0.451904	
-0.453247	
-0.454041	
-0.456421	
-0.456238	
-0.45929	
-0.460999	
-0.463013	
-0.464294	
-0.464661	
-0.465942	
-0.46637	
-0.466309	
-0.467285	
-0.46814	
-0.465393	
-0.466248	
-0.466858	
-0.467529	
-0.467529	
-0.468689	
-0.470032	
-0.470276	
-0.471497	
-0.473694	
-0.475769	
-0.476624	
-0.480469	
-0.482788	
-0.485229	
-0.488159	
-0.490173	
-0.491577	
-0.493347	
-0.495483	
-0.498108	
-0.500977	
-0.503052	
-0.505554	
-0.508057	
-0.511047	
-0.513367	
-0.515442	
-0.517944	
-0.519897	
-0.521606	
-0.523682	
-0.525635	
-0.527649	
-0.528381	
-0.529236	
-0.530334	
-0.530884	
-0.530518	
-0.530029	
-0.529785	
-0.52832	
-0.527039	
-0.52594	
-0.523987	
-0.521606	
-0.519165	
-0.517395	
-0.514343	
-0.511108	
-0.507813	
-0.505493	
-0.500366	
-0.49823	
-0.495605	
-0.491333	
-0.487366	
-0.484192	
-0.48114	
-0.476929	
-0.471863	
-0.468262	
-0.46521	
-0.460693	
-0.457703	
-0.453308	
-0.447754	
-0.443665	
-0.43927	
-0.436279	
-0.432007	
-0.427979	
-0.424377	
-0.419983	
-0.416504	
-0.413086	
-0.409241	
-0.404724	
-0.402161	
-0.397949	
-0.394226	
-0.392822	
-0.38916	
-0.385132	
-0.382202	
-0.380737	
-0.377563	
-0.374939	
-0.371521	
-0.37085	
-0.368347	
-0.365051	
-0.364807	
-0.362549	
-0.360229	
-0.35791	
-0.358154	
-0.356506	
-0.355774	
-0.353882	
-0.353577	
-0.353088	
-0.351746	
-0.352478	
-0.350708	
-0.35022	
-0.350281	
-0.350891	
-0.349609	
-0.34906	
-0.347961	
-0.349121	
-0.347717	
-0.346802	
-0.349365	
-0.348694	
-0.348755	
-0.348999	
-0.350647	
-0.350647	
-0.350952	
-0.350464	
-0.352295	
-0.352478	
-0.3526	
-0.353821	
-0.355225	
-0.354431	
-0.355286	
-0.355835	
-0.356445	
-0.356812	
-0.356201	
-0.356995	
-0.35675	
-0.357605	
-0.356873	
-0.357849	
-0.357056	
-0.358521	
-0.356873	
-0.358582	
-0.359314	
-0.359009	
-0.359619	
-0.360291	
-0.361633	
-0.36145	
-0.360962	
-0.361877	
-0.36322	
-0.361389	
-0.362366	
-0.362732	
-0.362732	
-0.363098	
-0.362915	
-0.36438	
-0.364868	
-0.364258	
-0.364563	
-0.367004	
-0.36676	
-0.368652	
-0.368469	
-0.368896	
-0.370544	
-0.37085	
-0.371948	
-0.37384	
-0.37439	
-0.373718	
-0.376038	
-0.376892	
-0.376892	
-0.377197	
-0.378967	
-0.378967	
-0.37915	
-0.378723	
-0.379272	
-0.378296	
-0.379333	
-0.378845	
-0.379211	
-0.378235	
-0.377686	
-0.379089	
-0.378601	
-0.380432	
-0.380981	
-0.380859	
-0.380005	
-0.381348	
-0.3797	
-0.380981	
-0.381165	
-0.380249	
-0.381531	
-0.381897	
-0.383118	
-0.38208	
-0.382813	
-0.381958	
-0.383362	
-0.381592	
-0.382324	
-0.381897	
-0.380981	
-0.382568	
-0.382263	
-0.382568	
-0.382019	
-0.382019	
-0.381348	
-0.382141	
-0.380432	
-0.380859	
-0.380554	
-0.379395	
-0.380493	
-0.38092	
-0.381409	
-0.380859	
-0.381287	
-0.380737	
-0.381592	
-0.380066	
-0.380371	
-0.379761	
-0.379211	
-0.380859	
-0.380798	
-0.380737	
-0.380432	
-0.380554	
-0.380188	
-0.381409	
-0.378723	
-0.378723	
-0.378723	
-0.378357	
-0.378906	
-0.378845	
-0.378723	
-0.378784	
-0.378418	
-0.377075	
-0.377014	
-0.377136	
-0.377441	
-0.37738	
-0.377747	
-0.377319	
-0.37677	
-0.376038	
-0.377441	
-0.378113	
-0.37793	
-0.377808	
-0.378174	
-0.378418	
-0.377625	
-0.378662	
-0.378967	
-0.379578	
-0.379333	
-0.380554	
-0.380981	
-0.380188	
-0.380432	
-0.380127	
-0.381226	
-0.381348	
-0.381958	
-0.381226	
-0.382141	
-0.38208	
-0.383057	
-0.383545	
-0.381836	
-0.381165	
-0.381775	
-0.381165	
-0.379944	
-0.381836	
-0.380798	
-0.380859	
-0.381042	
-0.381897	
-0.381653	
-0.380432	
-0.380676	
-0.380432	
-0.380615	
-0.380493	
-0.381165	
-0.380493	
-0.380981	
-0.380249	
-0.381409	
-0.382324	
-0.381287	
-0.381165	
-0.382263	
-0.382019	
-0.381958	
-0.383301	
-0.38208	
-0.382507	
-0.383301	
-0.383545	
-0.383667	
-0.384216	
-0.384216	
-0.383484	
-0.38385	
-0.384705	
-0.385193	
-0.383423	
-0.384766	
-0.384399	
-0.383606	
-0.384277	
-0.384277	
-0.382751	
-0.381714	
-0.382141	
-0.382813	
-0.382385	
-0.381287	
-0.382385	
-0.381714	
-0.382141	
-0.383423	
-0.383179	
-0.382935	
-0.383545	
-0.383545	
-0.38385	
-0.384399	
-0.383545	
-0.385254	
-0.385498	
-0.384766	
-0.386108	
-0.386536	
-0.385681	
-0.385254	
-0.385071	
-0.384705	
-0.385864	
-0.385071	
-0.385132	
-0.385193	
-0.383911	
-0.385864	
-0.385864	
-0.383789	
-0.383789	
-0.384705	
-0.382141	
-0.38324	
-0.383545	
-0.383423	
-0.38324	
-0.382813	
-0.383972	
-0.383789	
-0.383545	
-0.383484	
-0.384644	
-0.382568	
-0.383728	
-0.384766	
-0.384521	
-0.384216	
-0.383728	
-0.384766	
-0.384949	
-0.385559	
-0.383728	
-0.385193	
-0.383728	
-0.384521	
-0.385254	
-0.38446	
-0.384094	
-0.384155	
-0.384583	
-0.383423	
-0.38324	
-0.38208	
-0.383606	
-0.381165	
-0.383606	
-0.383118	
-0.38324	
-0.382629	
-0.382935	
-0.383728	
-0.384583	
-0.386047	
-0.384644	
-0.385498	
-0.384766	
-0.385864	
-0.38623	
-0.385986	
-0.387329	
-0.388428	
-0.386963	
-0.387573	
-0.388855	
-0.387329	
-0.387756	
-0.386597	
-0.38678	
-0.387634	
-0.387207	
-0.38739	
-0.387329	
-0.38678	
-0.385864	
-0.387085	
-0.384766	
-0.385803	
-0.385498	
-0.384949	
-0.385315	
-0.385132	
-0.383667	
-0.383972	
-0.384338	
-0.383606	
-0.385071	
-0.383179	
-0.38385	
-0.38385	
-0.382996	
-0.383484	
-0.383728	
-0.38385	
-0.384033	
-0.384583	
-0.383911	
-0.384827	
-0.384399	
-0.384949	
-0.384705	
-0.383423	
-0.384827	
-0.384399	
-0.384338	
-0.384888	
-0.385254	
-0.384766	
-0.386047	
-0.384705	
-0.385254	
-0.385193	
-0.384033	
-0.384521	
-0.383911	
-0.38385	
-0.384521	
-0.384644	
-0.382446	
-0.384644	
-0.384216	
-0.383118	
-0.383362	
-0.38324	
-0.382507	
-0.382751	
-0.382813	
-0.38269	
-0.383667	
-0.382141	
-0.383179	
-0.382385	
-0.38269	
-0.382996	
-0.383423	
-0.382935	
-0.383667	
-0.383667	
-0.382568	
-0.383911	
-0.38324	
-0.383545	
-0.382874	
-0.382935	
-0.382568	
-0.382324	
-0.379761	
-0.380737	
-0.380371	
-0.380371	
-0.381226	
-0.379578	
-0.380615	
-0.380127	
-0.37915	
-0.378479	
-0.379578	
-0.377869	
-0.378357	
-0.378418	
-0.378113	
-0.378723	
-0.377747	
-0.378845	
-0.379395	
-0.380737	
-0.380554	
-0.381287	
-0.380432	
-0.380493	
-0.38092	
-0.379761	
-0.38208	
-0.38147	
-0.380798	
-0.38092	
-0.381897	
-0.381226	
-0.381531	
-0.38147	
-0.381287	
-0.381775	
-0.381714	
-0.380676	
-0.380615	
-0.381226	
-0.381042	
-0.380371	
-0.38092	
-0.380798	
-0.382019	
-0.379883	
-0.380615	
-0.381836	
-0.381042	
-0.381531	
-0.38147	
-0.381531	
-0.381042	
-0.380981	
-0.381348	
-0.381592	
-0.380249	
-0.382263	
-0.382446	
-0.38147	
-0.382019	
-0.381104	
-0.380493	
-0.380432	
-0.379944	
-0.379761	
-0.380432	
-0.378784	
-0.379333	
-0.378845	
-0.376343	
-0.378052	
-0.377441	
-0.376709	
-0.376587	
-0.377197	
-0.377075	
-0.377502	
-0.376221	
-0.376404	
-0.377258	
-0.37616	
-0.376831	
-0.376648	
-0.376343	
-0.377625	
-0.378845	
-0.378357	
-0.378296	
-0.378662	
-0.37793	
-0.378235	
-0.378357	
-0.37915	
-0.379089	
-0.378235	
-0.378662	
-0.378967	
-0.378235	
-0.378784	
-0.3797	
-0.378723	
-0.378784	
-0.378235	
-0.37793	
-0.378357	
-0.376648	
-0.376587	
-0.376709	
-0.376709	
-0.377014	
-0.376343	
-0.375793	
-0.376892	
-0.376587	
-0.37561	
-0.376221	
-0.374817	
-0.374756	
-0.374268	
-0.374451	
-0.374573	
-0.375366	
-0.375061	
-0.375732	
-0.376099	
-0.375488	
-0.376709	
-0.375305	
-0.375793	
-0.375854	
-0.375671	
-0.375366	
-0.375183	
-0.375183	
-0.375305	
-0.375671	
-0.375122	
-0.376343	
-0.374207	
-0.374756	
-0.374451	
-0.374146	
-0.374023	
-0.374084	
-0.374451	
-0.37439	
-0.374207	
-0.372925	
-0.374939	
-0.373352	
-0.373291	
-0.372925	
-0.372986	
-0.372864	
-0.37323	
-0.373169	
-0.373047	
-0.374084	
-0.37262	
-0.374756	
-0.37439	
-0.374573	
-0.375061	
-0.374634	
-0.375488	
-0.375427	
-0.375305	
-0.37561	
-0.375427	
-0.375549	
-0.376831	
-0.375854	
-0.374878	
-0.374939	
-0.374084	
-0.373596	
-0.373718	
-0.373291	
-0.373108	
-0.373535	
-0.373108	
-0.37323	
-0.373535	
-0.370911	
-0.371704	
-0.372925	
-0.372009	
-0.371887	
-0.372131	
-0.372742	
-0.37262	
-0.373535	
-0.373718	
-0.373657	
-0.373535	
-0.374512	
-0.374634	
-0.373291	
-0.37384	
-0.374084	
-0.374573	
-0.375061	
-0.375488	
-0.373779	
-0.374817	
-0.375	
-0.374939	
-0.374451	
-0.373962	
-0.374146	
-0.374023	
-0.374146	
-0.373901	
-0.374023	
-0.372925	
-0.374084	
-0.373413	
-0.373413	
-0.373169	
-0.373657	
-0.374512	
-0.374695	
-0.374939	
-0.373901	
-0.374939	
-0.374451	
-0.374939	
-0.375183	
-0.375854	
-0.375427	
-0.375793	
-0.375977	
-0.375854	
-0.376648	
-0.375793	
-0.376099	
-0.376343	
-0.376343	
-0.375977	
-0.374512	
-0.373291	
-0.372559	
-0.372803	
-0.373108	
-0.37262	
-0.372864	
-0.372864	
-0.371643	
-0.372559	
-0.372864	
-0.371521	
-0.371094	
-0.372681	
-0.372559	
-0.372559	
-0.372314	
-0.372192	
-0.372498	
-0.372498	
-0.373291	
-0.374451	
-0.37323	
-0.374023	
-0.375	
-0.373169	
-0.374268	
-0.374817	
-0.374939	
-0.375122	
-0.375061	
-0.376038	
-0.375977	
-0.375366	
-0.375305	
-0.37677	
-0.376282	
-0.375916	
-0.376038	
-0.37616	
-0.375916	
-0.37561	
-0.374939	
-0.375305	
-0.375183	
-0.374756	
-0.375488	
-0.375183	
-0.375	
-0.374756	
-0.375244	
-0.375061	
-0.375122	
-0.374695	
-0.373596	
-0.37439	
-0.374084	
-0.374756	
-0.373474	
-0.374817	
-0.375	
-0.375916	
-0.375977	
-0.375671	
-0.376099	
-0.376282	
-0.376343	
-0.375916	
-0.376099	
-0.375916	
-0.375854	
-0.376404	
-0.377808	
-0.37738	
-0.376953	
-0.376831	
-0.377014	
-0.37677	
-0.37616	
-0.376648	
-0.376587	
-0.376648	
-0.376831	
-0.376892	
-0.376343	
-0.376648	
-0.376526	
-0.376282	
-0.375977	
-0.376526	
-0.37616	
-0.376831	
-0.378052	
-0.378601	
-0.377991	
-0.379395	
-0.380798	
-0.379822	
-0.380432	
-0.379883	
-0.380798	
-0.379333	
-0.380493	
-0.381042	
-0.380737	
-0.380554	
-0.381714	
-0.382202	
-0.381287	
-0.382202	
-0.381104	
-0.381104	
-0.380249	
-0.3797	
-0.37854	
-0.379028	
-0.378601	
-0.379395	
-0.379822	
-0.379395	
-0.379089	
-0.378296	
-0.379028	
-0.378662	
-0.37915	
-0.377991	
-0.378601	
-0.378418	
-0.379395	
-0.380066	
-0.379639	
-0.379517	
-0.379395	
-0.380432	
-0.379333	
-0.379272	
-0.378845	
-0.379639	
-0.379272	
-0.380493	
-0.379822	
-0.379456	
-0.379944	
-0.379639	
-0.380432	
-0.37854	
-0.379456	
-0.378357	
-0.379395	
-0.378906	
-0.380005	
-0.380493	
-0.378967	
-0.379272	
-0.379944	
-0.38092	
-0.380066	
-0.381226	
-0.380432	
-0.380615	
-0.381409	
-0.38208	
-0.383057	
-0.383179	
-0.383362	
-0.383667	
-0.384155	
-0.383362	
-0.384338	
-0.384155	
-0.383789	
-0.38446	
-0.384705	
-0.384338	
-0.38385	
-0.383667	
-0.383545	
-0.383484	
-0.382446	
-0.382019	
-0.381775	
-0.380493	
-0.381104	
-0.380981	
-0.381348	
-0.380859	
-0.381714	
-0.380554	
-0.38031	
-0.381104	
-0.380859	
-0.380676	
-0.380432	
-0.380859	
-0.379761	
-0.380371	
-0.380371	
-0.381531	
-0.380981	
-0.380554	
-0.382446	
-0.382202	
-0.382324	
-0.381409	
-0.38208	
-0.382935	
-0.38269	
-0.382385	
-0.383179	
-0.382568	
-0.381592	
-0.38385	
-0.382935	
-0.382813	
-0.382751	
-0.384155	
-0.382996	
-0.382507	
-0.38324	
-0.38324	
-0.382751	
-0.380859	
-0.382568	
-0.382629	
-0.381958	
-0.381897	
-0.383118	
-0.382446	
-0.382446	
-0.382874	
-0.382568	
-0.382507	
-0.38269	
-0.383179	
-0.383179	
-0.382935	
-0.383118	
-0.383911	
-0.38269	
-0.38385	
-0.383911	
-0.383423	
-0.383728	
-0.383728	
-0.383972	
-0.383667	
-0.383667	
-0.384155	
-0.384094	
-0.383911	
-0.38446	
-0.383728	
-0.384155	
-0.383606	
-0.382996	
-0.383118	
-0.382813	
-0.382324	
-0.381287	
-0.381409	
-0.381409	
-0.381165	
-0.381165	
-0.381348	
-0.38092	
-0.381165	
-0.380737	
-0.382629	
-0.382446	
-0.382874	
-0.383301	
-0.383484	
-0.383423	
-0.382507	
-0.384583	
-0.384216	
-0.383301	
-0.383179	
-0.385315	
-0.384644	
-0.384399	
-0.384521	
-0.38446	
-0.384521	
-0.384399	
-0.385437	
-0.383362	
-0.383301	
-0.382813	
-0.383911	
-0.382751	
-0.382874	
-0.382874	
-0.383728	
-0.383118	
-0.382019	
-0.383118	
-0.382629	
-0.38269	
-0.38269	
-0.383118	
-0.38269	
-0.383545	
-0.38324	
-0.382751	
-0.383301	
-0.383545	
-0.384155	
-0.383545	
-0.383789	
-0.383667	
-0.384399	
-0.38446	
-0.384277	
-0.383423	
-0.383606	
-0.383789	
-0.383179	
-0.383423	
-0.38324	
-0.382813	
-0.383057	
-0.381897	
-0.381958	
-0.382141	
-0.382202	
-0.381104	
-0.381592	
-0.382019	
-0.382996	
-0.382568	
-0.381836	
-0.381409	
-0.382446	
-0.383606	
-0.385132	
-0.384949	
-0.383728	
-0.38562	
-0.38501	
-0.384888	
-0.385803	
-0.385315	
-0.386475	
-0.386047	
-0.386536	
-0.386292	
-0.386536	
-0.384094	
-0.385559	
-0.385681	
-0.385376	
-0.386047	
-0.384644	
-0.384766	
-0.384949	
-0.383667	
-0.383301	
-0.383789	
-0.382751	
-0.383423	
-0.382874	
-0.382202	
-0.382629	
-0.38147	
-0.381531	
-0.381897	
-0.382019	
-0.381287	
-0.381226	
-0.380005	
-0.380493	
-0.38092	
-0.381165	
-0.382446	
-0.381897	
-0.381958	
-0.381775	
-0.382141	
-0.382141	
-0.382324	
-0.380859	
-0.381958	
-0.382813	
-0.381531	
-0.382446	
-0.381653	
-0.382263	
-0.383301	
-0.383789	
-0.382507	
-0.382446	
-0.382019	
-0.381897	
-0.382507	
-0.380737	
-0.38208	
-0.381287	
-0.381897	
-0.381775	
-0.382568	
-0.381531	
-0.381226	
-0.381165	
-0.380737	
-0.380737	
-0.379333	
-0.380981	
-0.380676	
-0.379822	
-0.379944	
-0.381287	
-0.380737	
-0.380066	
-0.38092	
-0.380737	
-0.380981	
-0.380554	
-0.381348	
-0.381042	
-0.38031	
-0.381531	
-0.380676	
-0.380554	
-0.380798	
-0.380676	
-0.37915	
-0.379211	
-0.378296	
-0.377808	
-0.37793	
-0.376526	
-0.377075	
-0.376831	
-0.377319	
-0.377563	
-0.377136	
-0.376343	
-0.376587	
-0.37616	
-0.375977	
-0.377075	
-0.375366	
-0.376221	
-0.377869	
-0.377502	
-0.377747	
-0.378174	
-0.378296	
-0.378662	
-0.378784	
-0.378479	
-0.379211	
-0.377869	
-0.379456	
-0.3797	
-0.379333	
-0.379028	
-0.378479	
-0.378723	
-0.379944	
-0.379456	
-0.378235	
-0.379395	
-0.378113	
-0.37854	
-0.37915	
-0.379211	
-0.378845	
-0.379211	
-0.378845	
-0.379211	
-0.379211	
-0.376953	
-0.379578	
-0.378601	
-0.379028	
-0.379028	
-0.380127	
-0.380005	
-0.379944	
-0.3797	
-0.379517	
-0.380005	
-0.378479	
-0.379822	
-0.380066	
-0.379211	
-0.37915	
-0.378662	
-0.378601	
-0.378113	
-0.377625	
-0.377747	
-0.377869	
-0.376648	
-0.376221	
-0.375061	
-0.374817	
-0.375854	
-0.375366	
-0.375305	
-0.375183	
-0.374207	
-0.375122	
-0.375366	
-0.374573	
-0.375244	
-0.376038	
-0.375671	
-0.376404	
-0.376465	
-0.376282	
-0.376709	
-0.375427	
-0.376465	
-0.377625	
-0.37793	
-0.37854	
-0.378113	
-0.377502	
-0.378235	
-0.378845	
-0.37793	
-0.377869	
-0.377075	
-0.37738	
-0.378235	
-0.377625	
-0.377441	
-0.378174	
-0.377686	
-0.377686	
-0.377502	
-0.376953	
-0.375854	
-0.375732	
-0.375854	
-0.375854	
-0.375488	
-0.375122	
-0.375549	
-0.375183	
-0.37561	
-0.376099	
-0.375671	
-0.375122	
-0.374756	
-0.374939	
-0.375427	
-0.37561	
-0.374268	
-0.375305	
-0.374268	
-0.375671	
-0.376343	
-0.374878	
-0.375366	
-0.375977	
-0.37677	
-0.375793	
-0.375977	
-0.374695	
-0.375671	
-0.374756	
-0.375488	
-0.375549	
-0.373962	
-0.374512	
-0.374329	
-0.375244	
-0.374573	
-0.375305	
-0.373718	
-0.373901	
-0.37439	
-0.374451	
-0.373657	
-0.372803	
-0.373596	
-0.37262	
-0.374512	
-0.373596	
-0.374329	
-0.373169	
-0.373779	
-0.374451	
-0.374146	
-0.374512	
-0.374939	
-0.375366	
-0.374512	
-0.37616	
-0.375549	
-0.376831	
-0.376221	
-0.376099	
-0.376709	
-0.37616	
-0.376587	
-0.375671	
-0.374939	
-0.37323	
-0.373962	
-0.374268	
-0.373901	
-0.373657	
-0.372925	
-0.373169	
-0.373718	
-0.374207	
-0.373291	
-0.37262	
-0.372559	
-0.372498	
-0.372559	
-0.37323	
-0.373413	
-0.371521	
-0.373291	
-0.373596	
-0.374573	
-0.375061	
-0.375122	
-0.374817	
-0.375122	
-0.375549	
-0.374939	
-0.374695	
-0.373779	
-0.374573	
-0.374268	
-0.375854	
-0.375366	
-0.375305	
-0.374512	
-0.374573	
-0.375488	
-0.374634	
-0.374207	
-0.373535	
-0.373352	
-0.372131	
-0.373962	
-0.374573	
-0.37384	
-0.374146	
-0.373779	
-0.375122	
-0.374695	
-0.375305	
-0.374207	
-0.374207	
-0.37384	
-0.375	
-0.375671	
-0.375244	
-0.376404	
-0.375671	
-0.377075	
-0.376709	
-0.377014	
-0.375366	
-0.375183	
-0.37439	
-0.375793	
-0.37616	
-0.374268	
-0.373291	
-0.371521	
-0.373657	
-0.372559	
-0.372742	
-0.372192	
-0.372314	
-0.371643	
-0.37207	
-0.371948	
-0.370544	
-0.371399	
-0.370789	
-0.373657	
-0.372009	
-0.372437	
-0.371399	
-0.372375	
-0.371887	
-0.373108	
-0.373413	
-0.371704	
-0.373718	
-0.373657	
-0.374268	
-0.373718	
-0.375061	
-0.374756	
-0.375488	
-0.374268	
-0.374878	
-0.375366	
-0.374573	
-0.375793	
-0.375427	
-0.37439	
-0.375305	
-0.37677	
-0.375122	
-0.375122	
-0.374634	
-0.374512	
-0.374817	
-0.374146	
-0.374268	
-0.374023	
-0.373291	
-0.374023	
-0.374817	
-0.374084	
-0.373901	
-0.373596	
-0.373901	
-0.37384	
-0.372742	
-0.373779	
-0.373413	
-0.371948	
-0.373962	
-0.374573	
-0.374084	
-0.374634	
-0.374329	
-0.37439	
-0.375305	
-0.374695	
-0.374756	
-0.374756	
-0.37384	
-0.37561	
-0.375366	
-0.375549	
-0.375793	
-0.376099	
-0.375366	
-0.376343	
-0.376038	
-0.375305	
-0.375793	
-0.374817	
-0.375183	
-0.375366	
-0.37561	
-0.375061	
-0.374573	
-0.373718	
-0.375061	
-0.375244	
-0.374817	
-0.375427	
-0.374512	
-0.375977	
-0.376648	
-0.377441	
-0.377258	
-0.378357	
-0.377502	
-0.378296	
-0.37915	
-0.378784	
-0.378784	
-0.378052	
-0.378418	
-0.378967	
-0.379578	
-0.379456	
-0.379944	
-0.378723	
-0.378418	
-0.378479	
-0.377747	
-0.377563	
-0.377136	
-0.376282	
-0.376526	
-0.377319	
-0.375854	
-0.37677	
-0.376282	
-0.37616	
-0.37616	
-0.375305	
-0.376343	
-0.376465	
-0.375061	
-0.375549	
-0.375793	
-0.375122	
-0.37738	
-0.376343	
-0.376282	
-0.376892	
-0.376831	
-0.375671	
-0.376282	
-0.375977	
-0.375916	
-0.376343	
-0.375793	
-0.377747	
-0.376099	
-0.376404	
-0.376892	
-0.376892	
-0.375305	
-0.374634	
-0.375183	
-0.375305	
-0.376282	
-0.375183	
-0.37738	
-0.376099	
-0.376099	
-0.376221	
-0.377563	
-0.377441	
-0.376099	
-0.376465	
-0.377441	
-0.378418	
-0.377563	
-0.379456	
-0.378784	
-0.379822	
-0.38031	
-0.381042	
-0.379761	
-0.378967	
-0.379944	
-0.380798	
-0.381287	
-0.380432	
-0.380554	
-0.379883	
-0.379883	
-0.379333	
-0.37854	
-0.378479	
-0.37793	
-0.378906	
-0.378357	
-0.378479	
-0.377686	
-0.377441	
-0.378235	
-0.377625	
-0.377625	
-0.37616	
-0.377258	
-0.376892	
-0.377075	
-0.376221	
-0.378113	
-0.377686	
-0.37793	
-0.379028	
-0.378357	
-0.377441	
-0.377625	
-0.378906	
-0.379761	
-0.379639	
-0.378845	
-0.379822	
-0.379822	
-0.379578	
-0.381165	
-0.380005	
-0.380554	
-0.380066	
-0.380859	
-0.381531	
-0.380127	
-0.379944	
-0.381165	
-0.38092	
-0.379639	
-0.380798	
-0.380859	
-0.379761	
-0.379761	
-0.379883	
-0.380371	
-0.379578	
-0.379517	
-0.380798	
-0.380249	
-0.38031	
-0.380005	
-0.38092	
-0.379944	
-0.380005	
-0.380859	
-0.381104	
-0.381165	
-0.381836	
-0.380554	
-0.380859	
-0.381836	
-0.381409	
-0.381348	
-0.381775	
-0.382202	
-0.381348	
-0.382996	
-0.382019	
-0.381897	
-0.381897	
-0.381287	
-0.381958	
-0.382446	
-0.382202	
-0.381714	
-0.381409	
-0.379639	
-0.381531	
-0.380676	
-0.379883	
-0.380188	
	
