E:\DOCUMENTS AND SETTINGS\JPOTAS\MEUS DOCUMENTOS\UFRJ\RSCI-BM 12 WK SERIES\070718-RSCI-BM-03\RSCI-BM-03-REMG\070718-RSCI-BM-03-REMG-0002.ACQ
0.025000 msec/sample
1 channel
Analog input
Volts
CH1	
2000	
-0.395508	
-0.395447	
-0.395447	
-0.395569	
-0.396179	
-0.395691	
-0.396851	
-0.396912	
-0.396545	
-0.396545	
-0.397156	
-0.396851	
-0.397217	
-0.396301	
-0.395386	
-0.397217	
-0.396973	
-0.397583	
-0.397278	
-0.397034	
-0.396484	
-0.396423	
-0.396545	
-0.396912	
-0.396057	
-0.395935	
-0.395813	
-0.395935	
-0.39563	
-0.395386	
-0.395813	
-0.395386	
-0.394775	
-0.394714	
-0.394653	
-0.393555	
-0.392761	
-0.39325	
-0.393494	
-0.392822	
-0.393738	
-0.393799	
-0.392456	
-0.391724	
-0.392395	
-0.391724	
-0.391541	
-0.390686	
-0.390503	
-0.392334	
-0.392212	
-0.393555	
-0.393433	
-0.392944	
-0.393005	
-0.3927	
-0.39386	
-0.394104	
-0.392517	
-0.392944	
-0.394043	
-0.3927	
-0.394043	
-0.395508	
-0.395935	
-0.396179	
-0.396484	
-0.397461	
-0.396912	
-0.397156	
-0.396484	
-0.397095	
-0.396362	
-0.397034	
-0.397705	
-0.397217	
-0.396912	
-0.397278	
-0.396912	
-0.397766	
-0.398071	
-0.397278	
-0.396606	
-0.397705	
-0.397339	
-0.39801	
-0.398071	
-0.396606	
-0.396484	
-0.395813	
-0.396423	
-0.39624	
-0.395935	
-0.394714	
-0.394653	
-0.393738	
-0.394714	
-0.394043	
-0.392517	
-0.392517	
-0.392395	
-0.391968	
-0.391174	
-0.392517	
-0.390747	
-0.390808	
-0.389648	
-0.391235	
-0.390625	
-0.390991	
-0.391113	
-0.390137	
-0.390808	
-0.390686	
-0.391785	
-0.390808	
-0.391174	
-0.391052	
-0.392029	
-0.3927	
-0.3927	
-0.393127	
-0.391541	
-0.392029	
-0.392212	
-0.392761	
-0.392578	
-0.393127	
-0.393433	
-0.392944	
-0.393494	
-0.393799	
-0.394348	
-0.393372	
-0.393494	
-0.393188	
-0.394165	
-0.394287	
-0.392212	
-0.392517	
-0.393188	
-0.395142	
-0.394592	
-0.394287	
-0.393188	
-0.394409	
-0.393555	
-0.392761	
-0.394348	
-0.393738	
-0.393616	
-0.393311	
-0.395386	
-0.394897	
-0.395142	
-0.395142	
-0.394775	
-0.393555	
-0.393677	
-0.395325	
-0.394836	
-0.394714	
-0.393738	
-0.394836	
-0.394592	
-0.395813	
-0.394653	
-0.394348	
-0.393982	
-0.393494	
-0.395813	
-0.394348	
-0.395508	
-0.39502	
-0.395264	
-0.395325	
-0.396912	
-0.395874	
-0.395081	
-0.396179	
-0.39502	
-0.396423	
-0.395691	
-0.395752	
-0.395325	
-0.395081	
-0.395264	
-0.395508	
-0.395813	
-0.394714	
-0.394897	
-0.394348	
-0.394104	
-0.393555	
-0.393127	
-0.393372	
-0.39386	
-0.366821	
-0.372131	
-0.378235	
-0.377991	
-0.378967	
-0.379639	
-0.412415	
-0.40094	
-0.393738	
-0.392273	
-0.392639	
-0.393555	
-0.392517	
-0.39209	
-0.392029	
-0.39209	
-0.392456	
-0.393738	
-0.393982	
-0.393433	
-0.394104	
-0.394714	
-0.395874	
-0.39624	
-0.395752	
-0.395569	
-0.396423	
-0.395569	
-0.396851	
-0.397339	
-0.396484	
-0.396667	
-0.396912	
-0.396118	
-0.397644	
-0.397705	
-0.395935	
-0.395142	
-0.396179	
-0.396301	
-0.396301	
-0.396545	
-0.394836	
-0.395569	
-0.394043	
-0.395447	
-0.394836	
-0.393616	
-0.3927	
-0.391052	
-0.392456	
-0.391235	
-0.390991	
-0.389404	
-0.39032	
-0.390686	
-0.391052	
-0.390503	
-0.389648	
-0.38916	
-0.388306	
-0.38916	
-0.38855	
-0.389221	
-0.388245	
-0.388977	
-0.389954	
-0.389893	
-0.391174	
-0.391113	
-0.390442	
-0.391418	
-0.390625	
-0.391052	
-0.391785	
-0.390564	
-0.390381	
-0.390747	
-0.390869	
-0.391785	
-0.391785	
-0.390747	
-0.391724	
-0.391541	
-0.390808	
-0.391602	
-0.392395	
-0.391968	
-0.39325	
-0.393127	
-0.393005	
-0.394653	
-0.394958	
-0.395508	
-0.395752	
-0.397888	
-0.398499	
-0.399414	
-0.400085	
-0.401306	
-0.403015	
-0.404297	
-0.405762	
-0.406799	
-0.408997	
-0.40979	
-0.411499	
-0.413452	
-0.415161	
-0.417603	
-0.419617	
-0.423035	
-0.424438	
-0.42688	
-0.428223	
-0.430359	
-0.432434	
-0.435791	
-0.437195	
-0.440186	
-0.441406	
-0.443054	
-0.445435	
-0.447754	
-0.449646	
-0.450256	
-0.451477	
-0.450745	
-0.452026	
-0.452087	
-0.45166	
-0.450562	
-0.450134	
-0.449951	
-0.448914	
-0.448425	
-0.445862	
-0.44458	
-0.442688	
-0.441772	
-0.439697	
-0.436829	
-0.435059	
-0.432556	
-0.431885	
-0.428833	
-0.428894	
-0.427429	
-0.425964	
-0.425354	
-0.424927	
-0.425903	
-0.425903	
-0.427368	
-0.428711	
-0.429871	
-0.429688	
-0.432556	
-0.433228	
-0.436035	
-0.438416	
-0.440552	
-0.442749	
-0.444397	
-0.446533	
-0.447815	
-0.45105	
-0.452515	
-0.455444	
-0.457703	
-0.461304	
-0.463318	
-0.464539	
-0.467407	
-0.469849	
-0.473206	
-0.474792	
-0.477173	
-0.479004	
-0.481812	
-0.482605	
-0.483398	
-0.484741	
-0.485535	
-0.485596	
-0.485107	
-0.486755	
-0.484985	
-0.483521	
-0.48175	
-0.480225	
-0.476379	
-0.474243	
-0.472839	
-0.469238	
-0.466614	
-0.463257	
-0.461426	
-0.45636	
-0.452881	
-0.447937	
-0.444397	
-0.439697	
-0.435425	
-0.431641	
-0.427185	
-0.423645	
-0.419556	
-0.416687	
-0.412781	
-0.410461	
-0.407104	
-0.404663	
-0.401672	
-0.3974	
-0.394287	
-0.392029	
-0.389526	
-0.386536	
-0.383057	
-0.379089	
-0.375488	
-0.373047	
-0.368896	
-0.365479	
-0.361267	
-0.359192	
-0.355774	
-0.354187	
-0.352173	
-0.349731	
-0.347595	
-0.34552	
-0.344299	
-0.341003	
-0.33905	
-0.335815	
-0.332642	
-0.329468	
-0.329041	
-0.326904	
-0.325012	
-0.32489	
-0.324097	
-0.32428	
-0.322754	
-0.322693	
-0.321655	
-0.322327	
-0.322876	
-0.324158	
-0.325134	
-0.324707	
-0.326416	
-0.326538	
-0.328491	
-0.329102	
-0.329041	
-0.329468	
-0.330627	
-0.333374	
-0.334412	
-0.335876	
-0.337341	
-0.338135	
-0.339233	
-0.340942	
-0.342041	
-0.342224	
-0.34259	
-0.344604	
-0.344604	
-0.345154	
-0.345947	
-0.347412	
-0.347229	
-0.348022	
-0.349243	
-0.348755	
-0.348511	
-0.34845	
-0.349182	
-0.349548	
-0.35022	
-0.349365	
-0.351868	
-0.351868	
-0.352539	
-0.35199	
-0.3526	
-0.352539	
-0.3526	
-0.354431	
-0.354492	
-0.354858	
-0.355896	
-0.356995	
-0.356384	
-0.357361	
-0.357849	
-0.358093	
-0.357422	
-0.357849	
-0.358154	
-0.358948	
-0.358154	
-0.358032	
-0.358154	
-0.360107	
-0.361084	
-0.360291	
-0.359741	
-0.359802	
-0.360474	
-0.361633	
-0.362	
-0.361328	
-0.363281	
-0.364075	
-0.365356	
-0.365479	
-0.365051	
-0.365295	
-0.36615	
-0.36676	
-0.367065	
-0.36792	
-0.368652	
-0.369873	
-0.368896	
-0.370483	
-0.371948	
-0.370117	
-0.370117	
-0.371094	
-0.371399	
-0.372009	
-0.372314	
-0.372986	
-0.375366	
-0.374512	
-0.374573	
-0.375427	
-0.374756	
-0.373169	
-0.375305	
-0.374817	
-0.374756	
-0.374756	
-0.374634	
-0.375671	
-0.374573	
-0.375122	
-0.375427	
-0.373779	
-0.372131	
-0.375061	
-0.373352	
-0.372681	
-0.373596	
-0.373474	
-0.372925	
-0.372559	
-0.374329	
-0.372253	
-0.37262	
-0.371216	
-0.371887	
-0.372253	
-0.37207	
-0.371582	
-0.371948	
-0.372864	
-0.371887	
-0.372681	
-0.371399	
-0.371033	
-0.369202	
-0.37207	
-0.372131	
-0.371887	
-0.371887	
-0.373047	
-0.373413	
-0.373047	
-0.375	
-0.371948	
-0.372375	
-0.371765	
-0.373779	
-0.373291	
-0.373291	
-0.372925	
-0.373291	
-0.37439	
-0.373596	
-0.375488	
-0.373718	
-0.37323	
-0.372192	
-0.375488	
-0.375671	
-0.37561	
-0.37616	
-0.376099	
-0.376892	
-0.377075	
-0.379395	
-0.377869	
-0.377258	
-0.375854	
-0.378113	
-0.37854	
-0.378723	
-0.378052	
-0.377197	
-0.378662	
-0.377991	
-0.378906	
-0.378723	
-0.377014	
-0.374939	
-0.37738	
-0.376831	
-0.376526	
-0.376038	
-0.374207	
-0.375183	
-0.375122	
-0.376648	
-0.375366	
-0.374207	
-0.373291	
-0.374756	
-0.376404	
-0.375977	
-0.375366	
-0.374573	
-0.376099	
-0.376465	
-0.37738	
-0.376892	
-0.376892	
-0.375916	
-0.376892	
-0.377625	
-0.37738	
-0.377197	
-0.376526	
-0.378479	
-0.378052	
-0.379639	
-0.379395	
-0.378479	
-0.37738	
-0.378662	
-0.379028	
-0.37854	
-0.378479	
-0.377502	
-0.377808	
-0.378174	
-0.379333	
-0.379456	
-0.378601	
-0.377502	
-0.378723	
-0.379333	
-0.378174	
-0.37854	
-0.378296	
-0.378784	
-0.37915	
-0.380127	
-0.379761	
-0.3797	
-0.378967	
-0.37854	
-0.380676	
-0.380066	
-0.380798	
-0.380188	
-0.380371	
-0.380371	
-0.380981	
-0.380127	
-0.380859	
-0.380615	
-0.379517	
-0.380554	
-0.380432	
-0.380432	
-0.379639	
-0.380676	
-0.380188	
-0.380615	
-0.379944	
-0.379822	
-0.377502	
-0.377808	
-0.377258	
-0.378113	
-0.379517	
-0.378479	
-0.37854	
-0.377808	
-0.377136	
-0.376587	
-0.376709	
-0.375	
-0.375244	
-0.375793	
-0.375732	
-0.375732	
-0.375183	
-0.375549	
-0.374512	
-0.374756	
-0.375122	
-0.375977	
-0.375305	
-0.375183	
-0.375793	
-0.375671	
-0.375671	
-0.375671	
-0.37677	
-0.376221	
-0.37738	
-0.377991	
-0.377502	
-0.377319	
-0.377808	
-0.37854	
-0.378784	
-0.379822	
-0.378784	
-0.380737	
-0.380615	
-0.380859	
-0.380493	
-0.380981	
-0.380615	
-0.38031	
-0.380676	
-0.381348	
-0.380798	
-0.380615	
-0.382324	
-0.381531	
-0.381226	
-0.381226	
-0.381653	
-0.38031	
-0.380615	
-0.382141	
-0.380371	
-0.380493	
-0.381165	
-0.381531	
-0.380615	
-0.38031	
-0.37915	
-0.379517	
-0.377441	
-0.377258	
-0.378357	
-0.377625	
-0.377991	
-0.377014	
-0.376892	
-0.376038	
-0.375854	
-0.375061	
-0.374939	
-0.373657	
-0.374878	
-0.374268	
-0.373657	
-0.375427	
-0.375488	
-0.375732	
-0.375488	
-0.375854	
-0.374695	
-0.375854	
-0.375244	
-0.375488	
-0.374756	
-0.375122	
-0.376099	
-0.37616	
-0.376587	
-0.377136	
-0.376587	
-0.37561	
-0.377441	
-0.376038	
-0.375671	
-0.375732	
-0.376526	
-0.377441	
-0.377319	
-0.376099	
-0.376099	
-0.375488	
-0.376892	
-0.378235	
-0.376038	
-0.375427	
-0.375732	
-0.375671	
-0.374817	
-0.374878	
-0.375061	
-0.37561	
-0.375244	
-0.375671	
-0.37616	
-0.375366	
-0.375671	
-0.375	
-0.375916	
-0.376221	
-0.375977	
-0.375	
-0.376221	
-0.375549	
-0.376038	
-0.375366	
-0.375244	
-0.374939	
-0.374146	
-0.374695	
-0.373169	
-0.375244	
-0.375122	
-0.375488	
-0.374817	
-0.374939	
-0.373962	
-0.374268	
-0.376099	
-0.375244	
-0.376587	
-0.375671	
-0.375854	
-0.374207	
-0.375549	
-0.375244	
-0.375427	
-0.374207	
-0.374329	
-0.376282	
-0.37439	
-0.374695	
-0.373291	
-0.373413	
-0.373474	
-0.375183	
-0.374146	
-0.372864	
-0.372437	
-0.372375	
-0.372681	
-0.372131	
-0.37207	
-0.372253	
-0.371155	
-0.370483	
-0.371704	
-0.370178	
-0.369446	
-0.369812	
-0.369141	
-0.370056	
-0.368896	
-0.368408	
-0.369446	
-0.369507	
-0.368835	
-0.369934	
-0.369995	
-0.36908	
-0.369324	
-0.370178	
-0.370422	
-0.370178	
-0.36969	
-0.37085	
-0.370789	
-0.370667	
-0.371155	
-0.372192	
-0.371155	
-0.371399	
-0.372253	
-0.37207	
-0.371155	
-0.3703	
-0.371338	
-0.371094	
-0.370422	
-0.370361	
-0.371094	
-0.370422	
-0.36969	
-0.369995	
-0.369568	
-0.368835	
-0.368103	
-0.368591	
-0.366638	
-0.366211	
-0.365906	
-0.36554	
-0.36438	
-0.363831	
-0.364014	
-0.363342	
-0.363159	
-0.363159	
-0.362915	
-0.361328	
-0.363281	
-0.363281	
-0.361755	
-0.361145	
-0.36145	
-0.362183	
-0.362061	
-0.361023	
-0.361694	
-0.361816	
-0.360168	
-0.360901	
-0.362	
-0.361145	
-0.360779	
-0.360168	
-0.361328	
-0.36084	
-0.361572	
-0.360291	
-0.361511	
-0.361877	
-0.362366	
-0.362732	
-0.360901	
-0.362	
-0.362	
-0.362915	
-0.362061	
-0.36438	
-0.363403	
-0.364136	
-0.364624	
-0.365173	
-0.366394	
-0.365601	
-0.366943	
-0.366455	
-0.366577	
-0.365234	
-0.367249	
-0.366943	
-0.36731	
-0.367065	
-0.367188	
-0.367737	
-0.365662	
-0.367737	
-0.367126	
-0.36676	
-0.365173	
-0.366211	
-0.366394	
-0.36676	
-0.367188	
-0.364624	
-0.365967	
-0.364929	
-0.365662	
-0.364807	
-0.365906	
-0.365051	
-0.366089	
-0.366577	
-0.366455	
-0.36676	
-0.365112	
-0.366394	
-0.366028	
-0.36731	
-0.366333	
-0.366882	
-0.367065	
-0.367371	
-0.367432	
-0.366943	
-0.367371	
-0.366699	
-0.367676	
-0.367432	
-0.368408	
-0.366211	
-0.366516	
-0.36731	
-0.367126	
-0.366943	
-0.365601	
-0.367493	
-0.366943	
-0.367737	
-0.367371	
-0.368286	
-0.367371	
-0.367249	
-0.366394	
-0.366394	
-0.367126	
-0.366882	
-0.368225	
-0.367676	
-0.367493	
-0.366577	
-0.367737	
-0.367798	
-0.368164	
-0.368774	
-0.369385	
-0.369446	
-0.36792	
-0.369141	
-0.369385	
-0.369385	
-0.369751	
-0.370728	
-0.370667	
-0.371582	
-0.37146	
-0.371216	
-0.371826	
-0.37146	
-0.37323	
-0.373291	
-0.372925	
-0.373352	
-0.374146	
-0.373474	
-0.372864	
-0.373047	
-0.372559	
-0.372986	
-0.372681	
-0.374268	
-0.373657	
-0.373291	
-0.372498	
-0.373413	
-0.372864	
-0.373657	
-0.37323	
-0.371704	
-0.373169	
-0.372742	
-0.372559	
-0.371338	
-0.371338	
-0.369995	
-0.371155	
-0.371033	
-0.371094	
-0.3703	
-0.369446	
-0.3703	
-0.371155	
-0.371216	
-0.370422	
-0.37085	
-0.370117	
-0.369995	
-0.371094	
-0.371216	
-0.369995	
-0.369873	
-0.370667	
-0.371643	
-0.372009	
-0.371521	
-0.37146	
-0.371582	
-0.372559	
-0.373413	
-0.37323	
-0.373535	
-0.373596	
-0.374939	
-0.375977	
-0.376526	
-0.376282	
-0.37616	
-0.377197	
-0.377747	
-0.377563	
-0.377014	
-0.377991	
-0.377869	
-0.378784	
-0.379456	
-0.3797	
-0.378967	
-0.378784	
-0.378845	
-0.37915	
-0.379395	
-0.379028	
-0.379089	
-0.378601	
-0.379761	
-0.379395	
-0.380066	
-0.379272	
-0.378906	
-0.377991	
-0.378967	
-0.380127	
-0.379578	
-0.378967	
-0.377441	
-0.377869	
-0.378418	
-0.379395	
-0.378052	
-0.377747	
-0.37738	
-0.377625	
-0.378479	
-0.377747	
-0.377258	
-0.377869	
-0.378601	
-0.377136	
-0.377747	
-0.377014	
-0.377869	
-0.378174	
-0.377747	
-0.37854	
-0.378296	
-0.377625	
-0.377502	
-0.378906	
-0.377991	
-0.377563	
-0.376892	
-0.377869	
-0.377625	
-0.377808	
-0.378113	
-0.377991	
-0.377075	
-0.376648	
-0.37793	
-0.377686	
-0.377869	
-0.376831	
-0.377991	
-0.376343	
-0.377625	
-0.379456	
-0.379395	
-0.377197	
-0.377502	
-0.376587	
-0.376282	
-0.377075	
-0.374939	
-0.376831	
-0.376404	
-0.376404	
-0.377258	
-0.37738	
-0.375488	
-0.375549	
-0.374878	
-0.377014	
-0.37677	
-0.376526	
-0.378357	
-0.377075	
-0.376648	
-0.377686	
-0.378662	
-0.378174	
-0.377808	
-0.376099	
-0.377869	
-0.378967	
-0.379333	
-0.379333	
-0.378967	
-0.379883	
-0.379456	
-0.380127	
-0.380554	
-0.38092	
-0.380249	
-0.381226	
-0.380981	
-0.380005	
-0.380493	
-0.381042	
-0.380249	
-0.37915	
-0.381165	
-0.379456	
-0.379578	
-0.379028	
-0.378845	
-0.378357	
-0.378845	
-0.378418	
-0.378357	
-0.37677	
-0.375549	
-0.377747	
-0.376099	
-0.37616	
-0.376343	
-0.376038	
-0.375427	
-0.37677	
-0.375366	
-0.375305	
-0.376038	
-0.377563	
-0.376343	
-0.376282	
-0.377014	
-0.37677	
-0.376221	
-0.377319	
-0.37854	
-0.377808	
-0.378235	
-0.378906	
-0.380371	
-0.381226	
-0.382202	
-0.381958	
-0.383057	
-0.382996	
-0.383423	
-0.382568	
-0.38269	
-0.383362	
-0.382813	
-0.384155	
-0.383728	
-0.383423	
-0.384033	
-0.383789	
-0.383057	
-0.385132	
-0.384399	
-0.384888	
-0.38501	
-0.383789	
-0.385315	
-0.384766	
-0.385071	
-0.384949	
-0.385498	
-0.384583	
-0.384827	
-0.384827	
-0.384583	
-0.384644	
-0.384583	
-0.385864	
-0.384766	
-0.385132	
-0.385315	
-0.385193	
-0.383545	
-0.38446	
-0.383667	
-0.381897	
-0.381714	
-0.38208	
-0.38269	
-0.380859	
-0.380798	
-0.3797	
-0.380371	
-0.378723	
-0.380676	
-0.380981	
-0.378967	
-0.37915	
-0.380188	
-0.380554	
-0.379883	
-0.380615	
-0.380676	
-0.381531	
-0.380188	
-0.381042	
-0.381653	
-0.380676	
-0.380371	
-0.380188	
-0.380676	
-0.382202	
-0.383484	
-0.381714	
-0.381653	
-0.381409	
-0.381348	
-0.381226	
-0.381409	
-0.381409	
-0.380676	
-0.380493	
-0.381897	
-0.382629	
-0.380737	
-0.380371	
-0.380188	
-0.381409	
-0.381958	
-0.380981	
-0.381042	
-0.380249	
-0.379761	
-0.381165	
-0.382141	
-0.380676	
-0.381348	
-0.381226	
-0.381897	
-0.382996	
-0.381897	
-0.382568	
-0.382202	
-0.38147	
-0.382446	
-0.383606	
-0.382507	
-0.380859	
-0.382019	
-0.382141	
-0.383301	
-0.382568	
-0.382629	
-0.382385	
-0.381958	
-0.381592	
-0.382141	
-0.382141	
-0.381104	
-0.382019	
-0.381531	
-0.382568	
-0.381836	
-0.380554	
-0.379639	
-0.379822	
-0.380737	
-0.381348	
-0.379822	
-0.379333	
-0.379395	
-0.379333	
-0.379211	
-0.377625	
-0.377808	
-0.377319	
-0.377747	
-0.379395	
-0.378784	
-0.377563	
-0.377319	
-0.377502	
-0.377441	
-0.378418	
-0.378967	
-0.377808	
-0.377747	
-0.379028	
-0.378845	
-0.378845	
-0.379089	
-0.379517	
-0.379211	
-0.379456	
-0.380737	
-0.380188	
-0.379211	
-0.380859	
-0.381592	
-0.381775	
-0.382324	
-0.382813	
-0.382141	
-0.382874	
-0.383728	
-0.383667	
-0.382996	
-0.382629	
-0.382385	
-0.382507	
-0.382507	
-0.383606	
-0.383362	
-0.383362	
-0.382813	
-0.382874	
-0.384827	
-0.383484	
-0.382263	
-0.382629	
-0.38324	
-0.381958	
-0.382751	
-0.382629	
-0.382996	
-0.38092	
-0.381042	
-0.381897	
-0.379517	
-0.380371	
-0.379761	
-0.3797	
-0.378235	
-0.379333	
-0.378906	
-0.377808	
-0.377197	
-0.377319	
-0.37854	
-0.37677	
-0.376953	
-0.376221	
-0.376648	
-0.375916	
-0.377014	
-0.377747	
-0.377075	
-0.376465	
-0.376404	
-0.378784	
-0.377563	
-0.377441	
-0.377136	
-0.378479	
-0.378601	
-0.379211	
-0.379578	
-0.37915	
-0.378418	
-0.37793	
-0.379211	
-0.37854	
-0.380371	
-0.379456	
-0.379822	
-0.379211	
-0.380676	
-0.380676	
-0.379944	
-0.38031	
-0.380066	
-0.380859	
-0.379639	
-0.380493	
-0.379517	
-0.380371	
-0.379761	
-0.380737	
-0.380493	
-0.379761	
-0.380188	
-0.379211	
-0.381226	
-0.38092	
-0.381042	
-0.380798	
-0.381226	
-0.381653	
-0.381409	
-0.38269	
-0.38092	
-0.380737	
-0.380188	
-0.381653	
-0.38147	
-0.381531	
-0.380737	
-0.380188	
-0.380554	
-0.381287	
-0.381287	
-0.381409	
-0.381287	
-0.380798	
-0.382202	
-0.381714	
-0.382263	
-0.382019	
-0.380859	
-0.382019	
-0.383423	
-0.383179	
-0.382202	
-0.382446	
-0.381897	
-0.382813	
-0.382996	
-0.383179	
-0.381531	
-0.380798	
-0.381714	
-0.381775	
-0.381592	
-0.381775	
-0.381531	
-0.380615	
-0.381897	
-0.381104	
-0.381104	
-0.379944	
-0.379028	
-0.380066	
-0.38031	
-0.380005	
-0.37915	
-0.378662	
-0.377747	
-0.380127	
-0.379883	
-0.379456	
-0.378052	
-0.378479	
-0.379333	
-0.379211	
-0.379578	
-0.3797	
-0.378784	
-0.379211	
-0.381042	
-0.381592	
-0.381653	
-0.380798	
-0.38208	
-0.38208	
-0.382446	
-0.383606	
-0.383179	
-0.382813	
-0.38324	
-0.384399	
-0.384583	
-0.384338	
-0.384155	
-0.383606	
-0.38269	
-0.383728	
-0.384521	
-0.382935	
-0.383057	
-0.382751	
-0.38324	
-0.382874	
-0.382324	
-0.38208	
-0.381653	
-0.380493	
-0.380676	
-0.380737	
-0.3797	
-0.378845	
-0.376404	
-0.37738	
-0.377747	
-0.376648	
-0.375732	
-0.375671	
-0.375854	
-0.376526	
-0.377075	
-0.376221	
-0.375916	
-0.374695	
-0.375366	
-0.376526	
-0.375793	
-0.374939	
-0.374268	
-0.374023	
-0.374207	
-0.375	
-0.375061	
-0.375488	
-0.374878	
-0.373535	
-0.375732	
-0.375854	
-0.375061	
-0.374146	
-0.373901	
-0.374451	
-0.375732	
-0.375977	
-0.375366	
-0.375732	
-0.376343	
-0.376953	
-0.377563	
-0.377502	
-0.37738	
-0.377502	
-0.377869	
-0.380371	
-0.379883	
-0.379761	
-0.380066	
-0.37915	
-0.38092	
-0.381836	
-0.38147	
-0.380249	
-0.379517	
-0.380798	
-0.381836	
-0.380981	
-0.380127	
-0.38031	
-0.380066	
-0.381348	
-0.381226	
-0.379211	
-0.3797	
-0.378967	
-0.380066	
-0.380432	
-0.379944	
-0.379211	
-0.378357	
-0.377808	
-0.379333	
-0.379761	
-0.379517	
-0.378967	
-0.378845	
-0.37854	
-0.379456	
-0.380615	
-0.380432	
-0.379517	
-0.379211	
-0.380371	
-0.380493	
-0.380127	
-0.379944	
-0.379395	
-0.379333	
-0.3797	
-0.380005	
-0.379517	
-0.3797	
-0.378113	
-0.379578	
-0.380371	
-0.378723	
-0.378662	
-0.378784	
-0.379028	
-0.379211	
-0.379272	
-0.379211	
-0.379517	
-0.376953	
-0.378601	
-0.379578	
-0.377808	
-0.378296	
-0.377991	
-0.379333	
-0.37915	
-0.38031	
-0.378601	
-0.378174	
-0.377075	
-0.379211	
-0.381042	
-0.380188	
-0.379272	
-0.378662	
-0.379944	
-0.380127	
-0.381226	
-0.381165	
-0.381653	
-0.380493	
-0.382568	
-0.383057	
-0.381653	
-0.381836	
-0.381165	
-0.381348	
-0.382446	
-0.384827	
-0.383423	
-0.382813	
-0.382996	
-0.383789	
-0.38324	
-0.38269	
-0.383118	
-0.381653	
-0.381409	
-0.383118	
-0.383484	
-0.381836	
-0.382385	
-0.38147	
-0.381897	
-0.382813	
-0.382507	
-0.381348	
-0.38092	
-0.379639	
-0.379822	
-0.380432	
-0.378662	
-0.378784	
-0.37793	
-0.378967	
-0.379333	
-0.379822	
-0.377991	
-0.377136	
-0.377808	
-0.377808	
-0.378723	
-0.378052	
-0.378113	
-0.377808	
-0.377747	
-0.378967	
-0.378784	
-0.377991	
-0.37738	
-0.377686	
-0.378906	
-0.380066	
-0.378906	
-0.378723	
-0.378723	
-0.378662	
-0.380737	
-0.382324	
-0.382568	
-0.381104	
-0.381226	
-0.382813	
-0.383911	
-0.383911	
-0.383789	
-0.383606	
-0.383362	
-0.384338	
-0.385803	
-0.385986	
-0.384338	
-0.383789	
-0.385437	
-0.385925	
-0.385254	
-0.384827	
-0.384827	
-0.384888	
-0.385132	
-0.385803	
-0.385071	
-0.383728	
-0.384338	
-0.383545	
-0.385254	
-0.384644	
-0.384583	
-0.383972	
-0.383911	
-0.38385	
-0.385254	
-0.383728	
-0.382141	
-0.383301	
-0.381897	
-0.382446	
-0.382446	
-0.382935	
-0.382019	
-0.382263	
-0.382629	
-0.38324	
-0.382324	
-0.380859	
-0.382202	
-0.381897	
-0.383545	
-0.381897	
-0.381958	
-0.382141	
-0.382874	
-0.381409	
-0.381775	
-0.383057	
-0.381897	
-0.382324	
-0.380615	
-0.382324	
-0.381348	
-0.381592	
-0.381775	
-0.381653	
-0.381287	
-0.381165	
-0.382507	
-0.381165	
-0.382202	
-0.380249	
-0.382507	
-0.381897	
-0.381287	
-0.381409	
-0.381592	
-0.381653	
-0.381165	
-0.381287	
-0.380249	
-0.381409	
-0.378906	
-0.381042	
-0.38092	
-0.380676	
-0.379639	
-0.380249	
-0.380859	
-0.379883	
-0.381287	
-0.38031	
-0.380554	
-0.379517	
-0.381775	
-0.381226	
-0.380493	
-0.380432	
-0.381042	
-0.382141	
-0.38269	
-0.38269	
-0.381409	
-0.382874	
-0.38147	
-0.383484	
-0.383606	
-0.383423	
-0.383362	
-0.383728	
-0.383667	
-0.384216	
-0.385376	
-0.383423	
-0.384766	
-0.382751	
-0.384644	
-0.384216	
-0.384216	
-0.383728	
-0.38385	
-0.382385	
-0.382751	
-0.382751	
-0.381531	
-0.382751	
-0.38147	
-0.380859	
-0.38208	
-0.38147	
-0.379578	
-0.38031	
-0.38031	
-0.379761	
-0.380432	
-0.379883	
-0.379761	
-0.37915	
-0.378357	
-0.379028	
-0.38031	
-0.379028	
-0.379272	
-0.380432	
-0.380676	
-0.381531	
-0.38031	
-0.381226	
-0.381348	
-0.38147	
-0.38324	
-0.384766	
-0.382874	
-0.384644	
-0.385864	
-0.385803	
-0.387268	
-0.387329	
-0.385925	
-0.38562	
-0.387695	
-0.386841	
-0.388123	
-0.387146	
-0.387512	
-0.388367	
-0.388367	
-0.387451	
-0.388672	
-0.387512	
-0.387512	
-0.388489	
-0.387817	
-0.388611	
-0.389282	
-0.389099	
-0.389221	
-0.388733	
-0.388916	
-0.388855	
-0.388184	
-0.387817	
-0.38916	
-0.389526	
-0.38916	
-0.388855	
-0.388794	
-0.387878	
-0.388	
-0.388611	
-0.387512	
-0.387329	
-0.387268	
-0.387634	
-0.385193	
-0.386536	
-0.385193	
-0.384399	
-0.384399	
-0.383423	
-0.384338	
-0.384521	
-0.383972	
-0.382507	
-0.383301	
-0.382324	
-0.384277	
-0.38501	
-0.384705	
-0.384277	
-0.383728	
-0.38501	
-0.384033	
-0.384338	
-0.384033	
-0.385376	
-0.384827	
-0.386169	
-0.385193	
-0.385681	
-0.385742	
-0.384766	
-0.386169	
-0.386047	
-0.386475	
-0.383789	
-0.385254	
-0.385376	
-0.385559	
-0.385437	
-0.38501	
-0.385864	
-0.384827	
-0.385681	
-0.38446	
-0.385315	
-0.382629	
-0.384949	
-0.384766	
-0.38562	
-0.385559	
	
