E:\DOCUMENTS AND SETTINGS\JPOTAS\MEUS DOCUMENTOS\UFRJ\RSCI-BM 12 WK SERIES\070718-RSCI-BM-03\RSCI-BM-03-REMG\070718-RSCI-BM-03-REMG-0006.ACQ
0.025000 msec/sample
1 channel
Analog input
Volts
CH1	
2000	
-0.391663	
-0.391541	
-0.391785	
-0.392639	
-0.392944	
-0.391418	
-0.393616	
-0.393921	
-0.393311	
-0.393799	
-0.393188	
-0.393616	
-0.394043	
-0.393799	
-0.394043	
-0.394287	
-0.394226	
-0.39563	
-0.39447	
-0.393372	
-0.394104	
-0.394348	
-0.392761	
-0.393677	
-0.392883	
-0.392883	
-0.392883	
-0.391907	
-0.391846	
-0.391418	
-0.390625	
-0.390564	
-0.389893	
-0.389648	
-0.389526	
-0.388916	
-0.38855	
-0.38855	
-0.38855	
-0.389099	
-0.389832	
-0.388489	
-0.389343	
-0.388977	
-0.388794	
-0.389221	
-0.388672	
-0.387939	
-0.388245	
-0.388	
-0.388672	
-0.390259	
-0.389404	
-0.390015	
-0.390442	
-0.389893	
-0.389832	
-0.390808	
-0.390991	
-0.390442	
-0.389404	
-0.390686	
-0.391663	
-0.390625	
-0.39093	
-0.391846	
-0.390076	
-0.391663	
-0.391785	
-0.391907	
-0.392334	
-0.393127	
-0.393494	
-0.393494	
-0.394226	
-0.393799	
-0.394348	
-0.394165	
-0.394165	
-0.393738	
-0.39325	
-0.39386	
-0.394958	
-0.394348	
-0.394836	
-0.394653	
-0.393677	
-0.393799	
-0.393066	
-0.394836	
-0.394592	
-0.392151	
-0.393372	
-0.394287	
-0.394226	
-0.394775	
-0.394592	
-0.393738	
-0.394775	
-0.393555	
-0.393982	
-0.393433	
-0.392578	
-0.394653	
-0.39502	
-0.392517	
-0.39386	
-0.395386	
-0.394104	
-0.394836	
-0.394165	
-0.394287	
-0.393799	
-0.392395	
-0.394043	
-0.393433	
-0.392151	
-0.392456	
-0.393677	
-0.39325	
-0.392883	
-0.392517	
-0.390991	
-0.391602	
-0.39032	
-0.391479	
-0.391846	
-0.390625	
-0.391174	
-0.391541	
-0.391113	
-0.391541	
-0.391968	
-0.390015	
-0.390503	
-0.389709	
-0.390991	
-0.390991	
-0.390381	
-0.391479	
-0.391541	
-0.390747	
-0.390808	
-0.392273	
-0.390686	
-0.390625	
-0.390686	
-0.391113	
-0.391296	
-0.391418	
-0.391602	
-0.392395	
-0.392212	
-0.392212	
-0.393188	
-0.392212	
-0.392212	
-0.392334	
-0.392273	
-0.392212	
-0.393311	
-0.392822	
-0.392517	
-0.394226	
-0.393677	
-0.394043	
-0.391235	
-0.392944	
-0.393555	
-0.392151	
-0.392273	
-0.392273	
-0.391907	
-0.392273	
-0.393005	
-0.391785	
-0.392639	
-0.390381	
-0.391235	
-0.391113	
-0.390198	
-0.391052	
-0.391052	
-0.390503	
-0.390747	
-0.390747	
-0.389465	
-0.390137	
-0.38855	
-0.388733	
-0.390381	
-0.388672	
-0.388916	
-0.388428	
-0.388977	
-0.389465	
-0.389893	
-0.359802	
-0.368408	
-0.372009	
-0.373718	
-0.375549	
-0.374634	
-0.408813	
-0.396729	
-0.39209	
-0.391846	
-0.392761	
-0.391602	
-0.393005	
-0.392029	
-0.392883	
-0.392639	
-0.393311	
-0.394348	
-0.39447	
-0.393433	
-0.394348	
-0.396057	
-0.394958	
-0.395813	
-0.394775	
-0.394226	
-0.395142	
-0.396118	
-0.396912	
-0.396912	
-0.394714	
-0.396606	
-0.397156	
-0.396484	
-0.396484	
-0.395874	
-0.395752	
-0.395691	
-0.395813	
-0.396545	
-0.396423	
-0.39502	
-0.397278	
-0.397583	
-0.397339	
-0.397156	
-0.397644	
-0.395996	
-0.397156	
-0.39679	
-0.397217	
-0.39679	
-0.396606	
-0.397339	
-0.397034	
-0.397583	
-0.397644	
-0.39801	
-0.395081	
-0.395874	
-0.395996	
-0.396179	
-0.396118	
-0.396057	
-0.395203	
-0.396118	
-0.398438	
-0.397949	
-0.39801	
-0.396667	
-0.398743	
-0.398865	
-0.398682	
-0.398438	
-0.397644	
-0.396973	
-0.397095	
-0.398193	
-0.396545	
-0.397095	
-0.39502	
-0.395264	
-0.394592	
-0.394531	
-0.393738	
-0.392517	
-0.392822	
-0.392761	
-0.393616	
-0.392578	
-0.393311	
-0.392334	
-0.392883	
-0.393311	
-0.393433	
-0.394592	
-0.395325	
-0.396179	
-0.397461	
-0.399536	
-0.399231	
-0.400757	
-0.401672	
-0.403198	
-0.405334	
-0.407104	
-0.409546	
-0.411499	
-0.414246	
-0.417236	
-0.419922	
-0.420898	
-0.424072	
-0.425659	
-0.429504	
-0.432251	
-0.435059	
-0.437561	
-0.439758	
-0.442627	
-0.418274	
-0.425842	
-0.43396	
-0.436707	
-0.438721	
-0.441589	
-0.475586	
-0.465088	
-0.461243	
-0.459412	
-0.458618	
-0.459595	
-0.457458	
-0.456055	
-0.455933	
-0.45459	
-0.452698	
-0.453186	
-0.452026	
-0.450012	
-0.448303	
-0.447021	
-0.446106	
-0.442871	
-0.441772	
-0.441956	
-0.440491	
-0.440491	
-0.441589	
-0.441467	
-0.441528	
-0.44281	
-0.444397	
-0.44635	
-0.448425	
-0.451111	
-0.452576	
-0.45459	
-0.457397	
-0.459717	
-0.46106	
-0.464111	
-0.467407	
-0.471436	
-0.47522	
-0.477173	
-0.479797	
-0.482117	
-0.484924	
-0.488342	
-0.490051	
-0.493774	
-0.496765	
-0.498169	
-0.501282	
-0.504395	
-0.506165	
-0.506836	
-0.506775	
-0.509827	
-0.51123	
-0.510986	
-0.513062	
-0.513245	
-0.512878	
-0.51355	
-0.51355	
-0.512146	
-0.510315	
-0.507507	
-0.50647	
-0.504761	
-0.501282	
-0.499695	
-0.49646	
-0.493103	
-0.490784	
-0.487122	
-0.482239	
-0.477661	
-0.4729	
-0.468872	
-0.464539	
-0.458923	
-0.455078	
-0.450195	
-0.445618	
-0.441711	
-0.437988	
-0.434082	
-0.429749	
-0.425293	
-0.420532	
-0.417603	
-0.414734	
-0.410767	
-0.408447	
-0.405701	
-0.403137	
-0.401062	
-0.399048	
-0.395813	
-0.39325	
-0.389221	
-0.386963	
-0.385803	
-0.383606	
-0.382507	
-0.380493	
-0.379883	
-0.380066	
-0.379944	
-0.37738	
-0.378174	
-0.376526	
-0.375244	
-0.377014	
-0.376587	
-0.376465	
-0.374878	
-0.376038	
-0.377563	
-0.378235	
-0.377319	
-0.379883	
-0.380127	
-0.380127	
-0.382568	
-0.383179	
-0.384033	
-0.382935	
-0.386047	
-0.387268	
-0.387573	
-0.387207	
-0.38739	
-0.387085	
-0.386902	
-0.387695	
-0.387512	
-0.387817	
-0.386414	
-0.387512	
-0.387573	
-0.387878	
-0.387451	
-0.386597	
-0.386719	
-0.387634	
-0.389099	
-0.390381	
-0.391724	
-0.393738	
-0.395569	
-0.396301	
-0.399109	
-0.399719	
-0.400452	
-0.403015	
-0.404419	
-0.405457	
-0.408447	
-0.410828	
-0.412231	
-0.414673	
-0.416748	
-0.419739	
-0.422363	
-0.423157	
-0.425903	
-0.429504	
-0.432312	
-0.434753	
-0.436401	
-0.439026	
-0.440735	
-0.4422	
-0.443848	
-0.444519	
-0.444824	
-0.444641	
-0.445618	
-0.446106	
-0.445801	
-0.444275	
-0.444519	
-0.444214	
-0.443481	
-0.4422	
-0.44043	
-0.438171	
-0.436646	
-0.434814	
-0.433899	
-0.431519	
-0.428528	
-0.427612	
-0.425293	
-0.422852	
-0.420044	
-0.41748	
-0.412598	
-0.409119	
-0.405884	
-0.401917	
-0.397705	
-0.394348	
-0.391479	
-0.387939	
-0.385559	
-0.383301	
-0.3797	
-0.374268	
-0.372437	
-0.370361	
-0.366638	
-0.364563	
-0.362244	
-0.358765	
-0.356506	
-0.355225	
-0.3526	
-0.350464	
-0.34668	
-0.344788	
-0.342407	
-0.338928	
-0.335876	
-0.332947	
-0.330933	
-0.329773	
-0.329346	
-0.326477	
-0.326721	
-0.324402	
-0.323364	
-0.322937	
-0.321655	
-0.321594	
-0.320984	
-0.321045	
-0.320007	
-0.320618	
-0.319824	
-0.320313	
-0.316833	
-0.317322	
-0.316895	
-0.317078	
-0.3172	
-0.316772	
-0.316589	
-0.316711	
-0.317505	
-0.316833	
-0.317749	
-0.316589	
-0.318054	
-0.316467	
-0.318848	
-0.318787	
-0.319336	
-0.320923	
-0.321533	
-0.322449	
-0.323242	
-0.322754	
-0.323547	
-0.324951	
-0.325073	
-0.325867	
-0.326782	
-0.328491	
-0.329224	
-0.330078	
-0.331421	
-0.334229	
-0.331787	
-0.333069	
-0.334412	
-0.33606	
-0.336243	
-0.338318	
-0.338867	
-0.340027	
-0.340698	
-0.340698	
-0.341614	
-0.342346	
-0.344666	
-0.342346	
-0.345642	
-0.345764	
-0.347229	
-0.347778	
-0.348999	
-0.350586	
-0.351501	
-0.350586	
-0.351501	
-0.3526	
-0.352905	
-0.353638	
-0.353882	
-0.354919	
-0.355347	
-0.35675	
-0.355591	
-0.357178	
-0.355896	
-0.356689	
-0.357178	
-0.358398	
-0.358398	
-0.357788	
-0.358032	
-0.359558	
-0.360168	
-0.359009	
-0.360718	
-0.359985	
-0.360596	
-0.358826	
-0.360352	
-0.360168	
-0.360718	
-0.361755	
-0.361755	
-0.360535	
-0.362061	
-0.361267	
-0.361877	
-0.361572	
-0.360107	
-0.36145	
-0.360962	
-0.362854	
-0.363708	
-0.363525	
-0.36377	
-0.36438	
-0.364014	
-0.365234	
-0.364929	
-0.365784	
-0.366211	
-0.36615	
-0.367432	
-0.369324	
-0.368164	
-0.36908	
-0.36969	
-0.369324	
-0.371338	
-0.37207	
-0.371643	
-0.371704	
-0.372131	
-0.372925	
-0.373962	
-0.372437	
-0.373291	
-0.374146	
-0.374146	
-0.374573	
-0.373535	
-0.374084	
-0.373657	
-0.373901	
-0.373718	
-0.37439	
-0.374023	
-0.373108	
-0.374207	
-0.37262	
-0.373169	
-0.370239	
-0.372253	
-0.370789	
-0.371399	
-0.37146	
-0.3703	
-0.370361	
-0.369751	
-0.370361	
-0.370667	
-0.370605	
-0.370056	
-0.370239	
-0.368835	
-0.370605	
-0.370728	
-0.369934	
-0.369629	
-0.370911	
-0.370483	
-0.370789	
-0.368713	
-0.369873	
-0.370239	
-0.369263	
-0.370117	
-0.371887	
-0.371216	
-0.370667	
-0.371948	
-0.37207	
-0.372009	
-0.371277	
-0.372131	
-0.371643	
-0.371887	
-0.37207	
-0.372192	
-0.370667	
-0.372681	
-0.372375	
-0.372986	
-0.373108	
-0.371277	
-0.373108	
-0.372009	
-0.372986	
-0.372437	
-0.373352	
-0.372253	
-0.373535	
-0.37262	
-0.372498	
-0.371887	
-0.370544	
-0.37146	
-0.370911	
-0.37146	
-0.369995	
-0.371155	
-0.370728	
-0.37146	
-0.370422	
-0.369995	
-0.370789	
-0.369324	
-0.368958	
-0.36853	
-0.370361	
-0.370117	
-0.369873	
-0.368958	
-0.369446	
-0.369751	
-0.369934	
-0.369812	
-0.368713	
-0.369263	
-0.369873	
-0.370483	
-0.368835	
-0.369629	
-0.368408	
-0.36969	
-0.369568	
-0.36908	
-0.368347	
-0.367493	
-0.367371	
-0.367554	
-0.367859	
-0.36615	
-0.367126	
-0.367004	
-0.367554	
-0.366699	
-0.36554	
-0.366211	
-0.36554	
-0.366211	
-0.36615	
-0.367432	
-0.366882	
-0.366638	
-0.366028	
-0.36676	
-0.368286	
-0.366089	
-0.365784	
-0.365845	
-0.367371	
-0.367432	
-0.36792	
-0.367859	
-0.368286	
-0.368164	
-0.368408	
-0.368469	
-0.366882	
-0.367004	
-0.367737	
-0.368225	
-0.368408	
-0.369751	
-0.368408	
-0.369568	
-0.370361	
-0.368774	
-0.369507	
-0.36908	
-0.369812	
-0.369263	
-0.369263	
-0.368835	
-0.369812	
-0.369507	
-0.368652	
-0.369507	
-0.368958	
-0.369568	
-0.368164	
-0.369446	
-0.368347	
-0.36792	
-0.367126	
-0.368469	
-0.367676	
-0.36676	
-0.367188	
-0.366272	
-0.367432	
-0.366333	
-0.367065	
-0.365234	
-0.365295	
-0.365112	
-0.366455	
-0.365845	
-0.364807	
-0.364807	
-0.365051	
-0.364868	
-0.363892	
-0.363342	
-0.363403	
-0.364807	
-0.363464	
-0.364746	
-0.364563	
-0.364807	
-0.364807	
-0.365234	
-0.365601	
-0.364929	
-0.364746	
-0.365295	
-0.365662	
-0.364624	
-0.366028	
-0.366089	
-0.366089	
-0.368103	
-0.368469	
-0.36792	
-0.368469	
-0.369324	
-0.369263	
-0.369385	
-0.369385	
-0.371094	
-0.370789	
-0.370361	
-0.371338	
-0.372253	
-0.371704	
-0.371826	
-0.371155	
-0.371765	
-0.371338	
-0.37146	
-0.373779	
-0.37262	
-0.372375	
-0.372803	
-0.372925	
-0.372314	
-0.371948	
-0.371704	
-0.373047	
-0.371338	
-0.372375	
-0.373352	
-0.372375	
-0.372253	
-0.372375	
-0.373047	
-0.37262	
-0.373474	
-0.37207	
-0.371826	
-0.370422	
-0.372375	
-0.373718	
-0.372314	
-0.371948	
-0.372131	
-0.372375	
-0.371765	
-0.372253	
-0.371216	
-0.371094	
-0.370239	
-0.371582	
-0.37207	
-0.371582	
-0.370972	
-0.37146	
-0.372253	
-0.372192	
-0.371033	
-0.370544	
-0.371155	
-0.370972	
-0.371887	
-0.372925	
-0.371887	
-0.371948	
-0.371094	
-0.371094	
-0.371643	
-0.372253	
-0.371399	
-0.370667	
-0.371399	
-0.370728	
-0.371704	
-0.370605	
-0.370789	
-0.37085	
-0.371094	
-0.372009	
-0.371094	
-0.368652	
-0.368835	
-0.370239	
-0.370544	
-0.371216	
-0.370361	
-0.369446	
-0.370422	
-0.371094	
-0.371948	
-0.3703	
-0.369385	
-0.369995	
-0.369995	
-0.371277	
-0.372253	
-0.371155	
-0.371399	
-0.372192	
-0.371826	
-0.372437	
-0.371826	
-0.371704	
-0.37207	
-0.372559	
-0.373596	
-0.374329	
-0.373047	
-0.373962	
-0.373962	
-0.374939	
-0.376282	
-0.375732	
-0.374512	
-0.375	
-0.375244	
-0.375793	
-0.376343	
-0.374756	
-0.375244	
-0.374878	
-0.376587	
-0.376587	
-0.375793	
-0.374329	
-0.374634	
-0.374573	
-0.374451	
-0.373718	
-0.374084	
-0.374146	
-0.372925	
-0.373108	
-0.374207	
-0.372803	
-0.372192	
-0.372009	
-0.371521	
-0.372803	
-0.372253	
-0.372314	
-0.372253	
-0.371765	
-0.372192	
-0.373535	
-0.37262	
-0.372375	
-0.373352	
-0.372559	
-0.373657	
-0.37384	
-0.373901	
-0.374878	
-0.376099	
-0.377197	
-0.377625	
-0.377441	
-0.377319	
-0.376282	
-0.376404	
-0.377625	
-0.377441	
-0.37738	
-0.377869	
-0.378845	
-0.379028	
-0.379272	
-0.378723	
-0.37854	
-0.37738	
-0.377319	
-0.379456	
-0.379089	
-0.378235	
-0.378174	
-0.378662	
-0.379028	
-0.378235	
-0.378174	
-0.377869	
-0.376282	
-0.376404	
-0.377869	
-0.376648	
-0.376648	
-0.376343	
-0.377014	
-0.37677	
-0.377197	
-0.377136	
-0.375549	
-0.375366	
-0.375	
-0.376038	
-0.376221	
-0.375305	
-0.37384	
-0.374268	
-0.37439	
-0.374329	
-0.37384	
-0.37262	
-0.372925	
-0.372192	
-0.37323	
-0.373291	
-0.37323	
-0.373352	
-0.37323	
-0.373779	
-0.373901	
-0.37439	
-0.373413	
-0.374146	
-0.371887	
-0.373779	
-0.374084	
-0.373169	
-0.372925	
-0.373535	
-0.374634	
-0.374023	
-0.374207	
-0.371826	
-0.372437	
-0.37207	
-0.374573	
-0.373047	
-0.372009	
-0.37262	
-0.373352	
-0.37439	
-0.372986	
-0.373413	
-0.371948	
-0.372192	
-0.371826	
-0.374023	
-0.373047	
-0.372437	
-0.372498	
-0.373718	
-0.375488	
-0.374512	
-0.374512	
-0.373779	
-0.374451	
-0.373169	
-0.375488	
-0.374878	
-0.375488	
-0.375122	
-0.375977	
-0.377747	
-0.37616	
-0.376099	
-0.375	
-0.37616	
-0.375	
-0.376282	
-0.376282	
-0.37677	
-0.375977	
-0.375793	
-0.375977	
-0.375854	
-0.376038	
-0.374451	
-0.375488	
-0.37439	
-0.374756	
-0.375732	
-0.375488	
-0.37439	
-0.375244	
-0.375549	
-0.374695	
-0.375488	
-0.37384	
-0.373718	
-0.373291	
-0.37323	
-0.373901	
-0.373962	
-0.374451	
-0.374268	
-0.373657	
-0.373413	
-0.373535	
-0.373108	
-0.373047	
-0.372742	
-0.372803	
-0.37323	
-0.374084	
-0.374023	
-0.372925	
-0.374329	
-0.374817	
-0.375	
-0.37384	
-0.374634	
-0.37439	
-0.37439	
-0.375305	
-0.376221	
-0.376099	
-0.375854	
-0.377136	
-0.376953	
-0.377258	
-0.377258	
-0.37793	
-0.376343	
-0.37677	
-0.378662	
-0.377991	
-0.377869	
-0.377991	
-0.378296	
-0.378235	
-0.377441	
-0.37738	
-0.377014	
-0.375793	
-0.377136	
-0.378174	
-0.376648	
-0.376709	
-0.376587	
-0.37616	
-0.376648	
-0.375916	
-0.375244	
-0.374756	
-0.373474	
-0.372681	
-0.373169	
-0.372009	
-0.372314	
-0.372314	
-0.371277	
-0.371643	
-0.372192	
-0.370911	
-0.370117	
-0.369446	
-0.369385	
-0.3703	
-0.370239	
-0.369202	
-0.36853	
-0.36969	
-0.370239	
-0.369446	
-0.369202	
-0.368958	
-0.368164	
-0.368408	
-0.369873	
-0.369995	
-0.369263	
-0.369446	
-0.369568	
-0.369202	
-0.36908	
-0.369995	
-0.368774	
-0.369324	
-0.368469	
-0.370117	
-0.370239	
-0.369934	
-0.368835	
-0.368286	
-0.370117	
-0.369873	
-0.371155	
-0.369324	
-0.369202	
-0.368652	
-0.3703	
-0.369568	
-0.369873	
-0.370239	
-0.369141	
-0.370544	
-0.370117	
-0.369568	
-0.369141	
-0.370056	
-0.369446	
-0.370361	
-0.370422	
-0.371094	
-0.369995	
-0.369873	
-0.371155	
-0.37085	
-0.370483	
-0.371033	
-0.371033	
-0.3703	
-0.371704	
-0.371643	
-0.371216	
-0.370911	
-0.371643	
-0.373352	
-0.371826	
-0.371704	
-0.371216	
-0.372009	
-0.371338	
-0.372375	
-0.371887	
-0.372498	
-0.373108	
-0.373047	
-0.37384	
-0.372131	
-0.373291	
-0.372559	
-0.372803	
-0.371765	
-0.372925	
-0.372742	
-0.372681	
-0.372253	
-0.372437	
-0.372742	
-0.371887	
-0.372803	
-0.371826	
-0.371643	
-0.371338	
-0.37207	
-0.370483	
-0.370605	
-0.370911	
-0.371338	
-0.371338	
-0.370483	
-0.369507	
-0.369202	
-0.369751	
-0.369507	
-0.369202	
-0.369812	
-0.369995	
-0.368713	
-0.369141	
-0.370056	
-0.368652	
-0.368103	
-0.367981	
-0.36969	
-0.370117	
-0.370789	
-0.370728	
-0.370544	
-0.371277	
-0.372253	
-0.372864	
-0.372009	
-0.371582	
-0.371765	
-0.372864	
-0.372253	
-0.372742	
-0.372131	
-0.372559	
-0.373596	
-0.374268	
-0.373352	
-0.373352	
-0.373413	
-0.372131	
-0.372986	
-0.371948	
-0.372803	
-0.372009	
-0.37262	
-0.372803	
-0.37207	
-0.371582	
-0.370361	
-0.369629	
-0.368286	
-0.368958	
-0.368347	
-0.368835	
-0.368652	
-0.367981	
-0.368591	
-0.368347	
-0.369202	
-0.367981	
-0.36792	
-0.367249	
-0.367493	
-0.36676	
-0.367188	
-0.367493	
-0.367737	
-0.367615	
-0.367249	
-0.368469	
-0.36853	
-0.368347	
-0.36731	
-0.36792	
-0.367676	
-0.368225	
-0.369812	
-0.369019	
-0.369019	
-0.369324	
-0.370117	
-0.369263	
-0.370056	
-0.36969	
-0.36969	
-0.369019	
-0.369385	
-0.370239	
-0.370483	
-0.371155	
-0.372253	
-0.371704	
-0.371582	
-0.372009	
-0.371033	
-0.371643	
-0.371887	
-0.372192	
-0.373291	
-0.372803	
-0.372803	
-0.373535	
-0.372375	
-0.372681	
-0.372925	
-0.372192	
-0.372253	
-0.372864	
-0.372742	
-0.372925	
-0.372192	
-0.372559	
-0.372986	
-0.372498	
-0.372375	
-0.372192	
-0.371887	
-0.37207	
-0.371826	
-0.371643	
-0.372192	
-0.37262	
-0.372192	
-0.37323	
-0.372498	
-0.372681	
-0.37262	
-0.37207	
-0.372253	
-0.371887	
-0.372803	
-0.372864	
-0.372314	
-0.372314	
-0.373901	
-0.37146	
-0.371216	
-0.370667	
-0.370361	
-0.369324	
-0.36969	
-0.371094	
-0.370789	
-0.369873	
-0.3703	
-0.370911	
-0.369446	
-0.369446	
-0.368469	
-0.369324	
-0.367859	
-0.368958	
-0.368286	
-0.368774	
-0.36853	
-0.368896	
-0.368713	
-0.368652	
-0.369751	
-0.367981	
-0.368469	
-0.367493	
-0.368835	
-0.368896	
-0.368713	
-0.368958	
-0.368958	
-0.368835	
-0.369263	
-0.369446	
-0.367371	
-0.369446	
-0.368774	
-0.368958	
-0.369507	
-0.369751	
-0.370422	
-0.3703	
-0.369751	
-0.370239	
-0.370544	
-0.368347	
-0.370911	
-0.369812	
-0.369263	
-0.370483	
-0.370728	
-0.370117	
-0.370728	
-0.370544	
-0.370178	
-0.369446	
-0.367615	
-0.370117	
-0.367065	
-0.367798	
-0.369568	
-0.369568	
-0.368896	
-0.369934	
-0.369568	
-0.36792	
-0.367798	
-0.365662	
-0.367065	
-0.366028	
-0.365723	
-0.367065	
-0.366882	
-0.366333	
-0.366272	
-0.366699	
-0.365784	
-0.366821	
-0.364197	
-0.365662	
-0.366028	
-0.366516	
-0.365723	
-0.366577	
-0.366882	
-0.366943	
-0.368103	
-0.367004	
-0.367859	
-0.365784	
-0.366821	
-0.366516	
-0.367737	
-0.368835	
-0.369934	
-0.369385	
-0.370667	
-0.372131	
-0.370605	
-0.371704	
-0.37085	
-0.371521	
-0.370911	
-0.371887	
-0.372253	
-0.37323	
-0.372192	
-0.372803	
-0.374146	
-0.372681	
-0.37439	
-0.373047	
-0.373596	
-0.372314	
-0.372375	
-0.373169	
-0.373474	
-0.372498	
-0.372681	
-0.374023	
-0.372437	
-0.374512	
-0.373108	
-0.372681	
-0.372437	
-0.372864	
-0.373352	
-0.373535	
-0.373413	
-0.373901	
-0.373901	
-0.372498	
-0.374084	
-0.372559	
-0.37262	
-0.371826	
-0.372437	
-0.371704	
-0.372742	
-0.372192	
-0.372437	
-0.372375	
-0.371338	
-0.372986	
-0.371338	
-0.371826	
-0.370728	
-0.371399	
-0.371582	
-0.372864	
-0.371765	
-0.371338	
-0.371948	
-0.371521	
-0.37262	
-0.371338	
-0.37207	
-0.370728	
-0.370911	
-0.370483	
-0.371277	
-0.370789	
-0.370972	
-0.370972	
-0.370117	
-0.37085	
-0.369934	
-0.369934	
-0.368958	
-0.369263	
-0.369141	
-0.369934	
-0.370483	
-0.368469	
-0.36792	
-0.368652	
-0.36969	
-0.36853	
-0.367737	
-0.367004	
-0.368042	
-0.368591	
-0.368652	
-0.368286	
-0.368347	
-0.36792	
-0.36853	
-0.369446	
-0.367981	
-0.367615	
-0.368469	
-0.368958	
-0.369019	
-0.36853	
-0.368896	
-0.369202	
-0.36969	
-0.369873	
-0.370911	
-0.370361	
-0.368774	
-0.3703	
-0.370667	
-0.371521	
-0.371033	
-0.371216	
-0.371277	
-0.372375	
-0.37207	
-0.372681	
-0.371826	
-0.37085	
-0.370605	
-0.370544	
-0.372192	
-0.371216	
-0.370422	
-0.371338	
-0.371582	
-0.371399	
-0.371277	
-0.369263	
-0.368408	
-0.36853	
-0.368164	
-0.369263	
-0.368103	
-0.368286	
-0.368591	
-0.368713	
-0.368042	
-0.368774	
-0.367126	
-0.367432	
-0.366943	
-0.366211	
-0.368347	
-0.367493	
-0.367188	
-0.367432	
-0.368286	
-0.368774	
-0.36908	
-0.368835	
-0.368408	
-0.369507	
-0.369629	
-0.371765	
-0.371094	
-0.371582	
-0.371277	
-0.372437	
-0.371948	
-0.372314	
-0.372009	
-0.371033	
-0.371582	
-0.371521	
-0.372375	
-0.372803	
-0.372742	
-0.371765	
-0.372803	
-0.372681	
-0.372253	
-0.372375	
-0.371704	
-0.371033	
-0.37085	
-0.372131	
-0.371765	
-0.371582	
-0.370483	
-0.371277	
-0.370789	
-0.371155	
-0.370544	
-0.369934	
-0.368835	
-0.368225	
-0.370422	
-0.369812	
-0.370056	
-0.369141	
-0.370056	
-0.369629	
-0.369019	
-0.369324	
-0.36792	
-0.366577	
-0.36554	
-0.368225	
-0.367432	
-0.367188	
-0.366882	
-0.367188	
-0.367004	
-0.367798	
-0.367065	
-0.366089	
-0.365601	
-0.365112	
-0.368103	
-0.367065	
-0.367004	
-0.367249	
-0.368408	
-0.367798	
-0.367798	
-0.367493	
-0.366882	
-0.365967	
-0.365234	
-0.367798	
-0.367615	
-0.367371	
-0.367004	
-0.367676	
-0.366577	
-0.367676	
-0.367676	
-0.366272	
-0.36499	
-0.365295	
-0.366943	
-0.366638	
-0.366211	
-0.366577	
-0.367737	
-0.366333	
-0.366516	
-0.368164	
-0.367126	
-0.365479	
-0.365601	
-0.368225	
-0.36792	
-0.368469	
-0.368408	
-0.368103	
-0.368591	
-0.368896	
-0.36969	
-0.368896	
-0.367737	
-0.369019	
-0.369934	
-0.369873	
-0.369934	
-0.3703	
-0.369446	
-0.369995	
-0.370605	
-0.371399	
-0.369934	
-0.368347	
-0.368774	
-0.369263	
-0.369263	
-0.369568	
-0.369568	
-0.369263	
-0.369995	
-0.369385	
-0.370117	
-0.369385	
-0.368652	
-0.368103	
-0.368958	
-0.368286	
-0.36792	
-0.368408	
-0.367798	
-0.369141	
-0.368042	
-0.368774	
-0.367859	
-0.367249	
-0.366638	
-0.367432	
-0.367615	
-0.367249	
-0.368103	
-0.366028	
-0.367188	
-0.367615	
-0.36908	
-0.368042	
-0.367371	
-0.367432	
-0.368347	
-0.369202	
-0.368774	
-0.369385	
-0.367371	
-0.369507	
-0.369629	
-0.371094	
-0.369385	
-0.36908	
-0.369324	
-0.3703	
-0.371399	
-0.370667	
-0.371216	
-0.37085	
-0.371765	
-0.372009	
-0.372681	
-0.371826	
-0.370972	
-0.370117	
-0.371948	
-0.372131	
-0.371887	
-0.372009	
-0.369507	
-0.371094	
-0.371826	
-0.372131	
-0.370605	
-0.370544	
-0.368835	
-0.3703	
-0.371094	
-0.370056	
-0.369507	
-0.368408	
-0.369019	
-0.369263	
-0.368103	
-0.36731	
-0.366211	
-0.364136	
-0.366028	
-0.36676	
-0.365967	
-0.366699	
-0.365417	
-0.365479	
-0.365967	
-0.36499	
-0.364685	
-0.364319	
-0.362366	
-0.363892	
-0.365479	
-0.365417	
-0.365601	
-0.36438	
-0.364502	
-0.365295	
-0.364929	
-0.365479	
-0.364563	
-0.363525	
-0.364319	
-0.365234	
-0.365356	
-0.366516	
-0.364868	
-0.365173	
-0.366577	
-0.365601	
-0.365173	
-0.364929	
-0.363708	
-0.364929	
-0.366333	
-0.365723	
-0.367004	
-0.366699	
-0.366272	
-0.36676	
-0.367188	
-0.366211	
-0.365723	
-0.365784	
-0.365723	
-0.366943	
-0.36676	
-0.366699	
-0.366211	
-0.366455	
-0.368286	
-0.367065	
-0.366455	
-0.366821	
-0.366943	
-0.36676	
-0.366882	
-0.367004	
-0.367493	
-0.368042	
-0.366699	
-0.368958	
-0.368042	
-0.367859	
-0.367004	
-0.368103	
-0.368164	
-0.368774	
-0.368103	
-0.368469	
-0.368408	
-0.368286	
-0.370667	
-0.369385	
-0.36853	
-0.367859	
-0.369324	
-0.369507	
-0.370422	
-0.369934	
-0.369324	
-0.369568	
-0.368835	
-0.370911	
-0.369812	
-0.369873	
-0.368652	
-0.368652	
-0.369019	
-0.36908	
-0.369873	
-0.369202	
-0.369263	
-0.368347	
-0.369751	
-0.369019	
-0.368713	
-0.367432	
-0.367065	
-0.368347	
-0.367676	
-0.367981	
-0.366943	
-0.367126	
-0.367188	
-0.36731	
-0.365417	
-0.365845	
-0.365295	
-0.365295	
-0.36676	
-0.36731	
-0.367432	
-0.365845	
-0.367004	
-0.36792	
-0.367188	
	
