E:\DOCUMENTS AND SETTINGS\JPOTAS\MEUS DOCUMENTOS\UFRJ\RSCI-BM 12 WK SERIES\070718-RSCI-BM-03\RSCI-BM-03-REMG\070718-RSCI-BM-03-REMG-0004.ACQ
0.025000 msec/sample
1 channel
Analog input
Volts
CH1	
2000	
-0.39209	
-0.392029	
-0.391174	
-0.390991	
-0.391113	
-0.390259	
-0.391479	
-0.39209	
-0.391785	
-0.391907	
-0.391907	
-0.391724	
-0.392273	
-0.392944	
-0.393005	
-0.392517	
-0.391174	
-0.392822	
-0.392517	
-0.392944	
-0.393799	
-0.392944	
-0.392151	
-0.393005	
-0.394226	
-0.394104	
-0.393433	
-0.391785	
-0.393616	
-0.39325	
-0.392639	
-0.39386	
-0.393005	
-0.392639	
-0.392761	
-0.394409	
-0.392639	
-0.393005	
-0.392822	
-0.392944	
-0.391968	
-0.392395	
-0.394409	
-0.392578	
-0.391846	
-0.393433	
-0.394775	
-0.392944	
-0.393005	
-0.392883	
-0.392639	
-0.392761	
-0.392883	
-0.394165	
-0.392944	
-0.3927	
-0.391724	
-0.39447	
-0.393677	
-0.393188	
-0.3927	
-0.391418	
-0.393433	
-0.391907	
-0.393921	
-0.39325	
-0.393616	
-0.391052	
-0.392273	
-0.393127	
-0.3927	
-0.393738	
-0.391907	
-0.392151	
-0.392273	
-0.394348	
-0.393433	
-0.393921	
-0.392822	
-0.39447	
-0.395447	
-0.394653	
-0.394775	
-0.39386	
-0.394409	
-0.393555	
-0.395386	
-0.393677	
-0.394226	
-0.394226	
-0.394653	
-0.394592	
-0.394409	
-0.39502	
-0.392273	
-0.393188	
-0.393311	
-0.395447	
-0.393921	
-0.393616	
-0.393555	
-0.394409	
-0.394897	
-0.39386	
-0.393555	
-0.392334	
-0.393616	
-0.3927	
-0.393921	
-0.393372	
-0.393311	
-0.393616	
-0.39447	
-0.394348	
-0.394165	
-0.395081	
-0.39325	
-0.393738	
-0.394531	
-0.395874	
-0.395508	
-0.395508	
-0.395264	
-0.39563	
-0.396729	
-0.396118	
-0.397644	
-0.395386	
-0.395569	
-0.397095	
-0.397156	
-0.396606	
-0.397278	
-0.396912	
-0.39563	
-0.398315	
-0.398071	
-0.397705	
-0.396667	
-0.396362	
-0.395752	
-0.397156	
-0.397766	
-0.396912	
-0.396484	
-0.394775	
-0.396912	
-0.396179	
-0.395447	
-0.393433	
-0.393921	
-0.394348	
-0.394287	
-0.395508	
-0.393921	
-0.393433	
-0.39386	
-0.395203	
-0.394836	
-0.394714	
-0.394714	
-0.394897	
-0.395386	
-0.394165	
-0.396851	
-0.395142	
-0.395203	
-0.395142	
-0.395874	
-0.39447	
-0.395203	
-0.395264	
-0.394043	
-0.394653	
-0.394348	
-0.395325	
-0.395569	
-0.396484	
-0.396118	
-0.39563	
-0.397278	
-0.3974	
-0.397461	
-0.395752	
-0.396118	
-0.396118	
-0.397827	
-0.397644	
-0.397278	
-0.397522	
-0.395935	
-0.398376	
-0.398682	
-0.399048	
-0.397766	
-0.397766	
-0.398743	
-0.370911	
-0.37854	
-0.382507	
-0.384155	
-0.383179	
-0.385742	
-0.418823	
-0.407349	
-0.401123	
-0.399292	
-0.399658	
-0.399719	
-0.39917	
-0.397766	
-0.397217	
-0.396179	
-0.39856	
-0.397949	
-0.397705	
-0.397095	
-0.397095	
-0.396118	
-0.396423	
-0.3974	
-0.396667	
-0.396973	
-0.396606	
-0.398376	
-0.397705	
-0.397461	
-0.397644	
-0.397156	
-0.397217	
-0.396851	
-0.399048	
-0.397278	
-0.397766	
-0.396912	
-0.396851	
-0.396973	
-0.366821	
-0.375549	
-0.379272	
-0.380859	
-0.382629	
-0.383484	
-0.416321	
-0.403931	
-0.399231	
-0.396179	
-0.397949	
-0.397888	
-0.396912	
-0.39502	
-0.39624	
-0.397034	
-0.397278	
-0.396973	
-0.395264	
-0.395935	
-0.395203	
-0.395935	
-0.395447	
-0.395569	
-0.394348	
-0.396057	
-0.397034	
-0.397034	
-0.398132	
-0.3974	
-0.397766	
-0.398254	
-0.399597	
-0.398254	
-0.397949	
-0.397339	
-0.397766	
-0.397461	
-0.397888	
-0.398499	
-0.396973	
-0.396301	
-0.395569	
-0.395935	
-0.395752	
-0.395874	
-0.394348	
-0.394897	
-0.394897	
-0.394348	
-0.396362	
-0.395569	
-0.396118	
-0.39624	
-0.396057	
-0.39801	
-0.39856	
-0.399048	
-0.400452	
-0.399719	
-0.401062	
-0.403625	
-0.403992	
-0.404968	
-0.406006	
-0.407166	
-0.411194	
-0.412354	
-0.414612	
-0.416931	
-0.418335	
-0.420288	
-0.424438	
-0.425903	
-0.427734	
-0.430481	
-0.43396	
-0.43573	
-0.437439	
-0.439758	
-0.441772	
-0.443848	
-0.445984	
-0.448364	
-0.448669	
-0.450562	
-0.453186	
-0.453674	
-0.45459	
-0.454346	
-0.454102	
-0.453491	
-0.453186	
-0.452087	
-0.451599	
-0.451721	
-0.451355	
-0.45105	
-0.449402	
-0.448303	
-0.445862	
-0.444397	
-0.442688	
-0.441101	
-0.437744	
-0.43689	
-0.435669	
-0.434265	
-0.433167	
-0.434326	
-0.434814	
-0.434875	
-0.435974	
-0.43573	
-0.436829	
-0.437439	
-0.439636	
-0.441345	
-0.443176	
-0.444763	
-0.447571	
-0.44928	
-0.450256	
-0.452515	
-0.455078	
-0.456848	
-0.457703	
-0.461182	
-0.462585	
-0.465149	
-0.467407	
-0.47113	
-0.47406	
-0.475037	
-0.477661	
-0.479309	
-0.481079	
-0.48291	
-0.485413	
-0.485901	
-0.486877	
-0.488098	
-0.490662	
-0.490967	
-0.490173	
-0.490173	
-0.490906	
-0.490479	
-0.490051	
-0.489014	
-0.486816	
-0.486084	
-0.485291	
-0.484436	
-0.482788	
-0.47998	
-0.477539	
-0.475525	
-0.473572	
-0.471802	
-0.469238	
-0.464905	
-0.462769	
-0.460571	
-0.458008	
-0.454651	
-0.451416	
-0.448914	
-0.44635	
-0.442383	
-0.440613	
-0.439209	
-0.434937	
-0.431641	
-0.428223	
-0.425415	
-0.42334	
-0.420044	
-0.417114	
-0.413269	
-0.408691	
-0.405029	
-0.402832	
-0.397156	
-0.393494	
-0.388977	
-0.383972	
-0.380737	
-0.377258	
-0.374084	
-0.370178	
-0.367432	
-0.365051	
-0.363037	
-0.358643	
-0.355408	
-0.352417	
-0.348694	
-0.345581	
-0.343689	
-0.341248	
-0.339233	
-0.338257	
-0.337036	
-0.336914	
-0.335327	
-0.335449	
-0.336182	
-0.336121	
-0.337036	
-0.339478	
-0.341431	
-0.341309	
-0.341675	
-0.342773	
-0.347351	
-0.348022	
-0.350281	
-0.352966	
-0.354004	
-0.356567	
-0.357971	
-0.358826	
-0.36084	
-0.361511	
-0.363831	
-0.36676	
-0.367676	
-0.36792	
-0.368103	
-0.370728	
-0.372375	
-0.372681	
-0.375916	
-0.377502	
-0.377197	
-0.379456	
-0.381165	
-0.381104	
-0.381531	
-0.380676	
-0.383972	
-0.384827	
-0.386047	
-0.38623	
-0.386169	
-0.385254	
-0.386414	
-0.38623	
-0.384949	
-0.384888	
-0.383911	
-0.383057	
-0.382874	
-0.381226	
-0.380371	
-0.379883	
-0.377808	
-0.379089	
-0.377991	
-0.377502	
-0.377747	
-0.376831	
-0.376709	
-0.377319	
-0.375671	
-0.374817	
-0.375061	
-0.374878	
-0.374023	
-0.371887	
-0.370911	
-0.369568	
-0.367859	
-0.367432	
-0.367493	
-0.365234	
-0.364014	
-0.361938	
-0.360596	
-0.360718	
-0.358521	
-0.358643	
-0.357056	
-0.356323	
-0.35553	
-0.355347	
-0.354004	
-0.352661	
-0.351868	
-0.351929	
-0.351746	
-0.348572	
-0.347717	
-0.345581	
-0.345276	
-0.344482	
-0.344238	
-0.342529	
-0.341553	
-0.338745	
-0.339478	
-0.339355	
-0.337952	
-0.336853	
-0.333008	
-0.334167	
-0.335205	
-0.334595	
-0.333862	
-0.334167	
-0.332581	
-0.334351	
-0.334351	
-0.33374	
-0.335022	
-0.333618	
-0.334534	
-0.335083	
-0.334106	
-0.335266	
-0.336121	
-0.337463	
-0.338074	
-0.338318	
-0.339661	
-0.339661	
-0.340637	
-0.342041	
-0.343384	
-0.342651	
-0.343262	
-0.344299	
-0.346619	
-0.348328	
-0.346924	
-0.347412	
-0.346497	
-0.348267	
-0.348389	
-0.348938	
-0.348328	
-0.348511	
-0.346497	
-0.349121	
-0.349731	
-0.348694	
-0.349487	
-0.348206	
-0.350098	
-0.350952	
-0.35022	
-0.350769	
-0.350952	
-0.350769	
-0.35144	
-0.351929	
-0.3526	
-0.353943	
-0.352539	
-0.353271	
-0.353821	
-0.353821	
-0.353943	
-0.353149	
-0.353882	
-0.355225	
-0.355103	
-0.355835	
-0.356201	
-0.355469	
-0.357056	
-0.359436	
-0.359375	
-0.360046	
-0.359802	
-0.361694	
-0.363892	
-0.363464	
-0.364075	
-0.363586	
-0.363953	
-0.365601	
-0.366638	
-0.366943	
-0.36676	
-0.365723	
-0.367737	
-0.369446	
-0.368713	
-0.368469	
-0.368774	
-0.369995	
-0.370911	
-0.370544	
-0.370972	
-0.370483	
-0.370544	
-0.372375	
-0.374084	
-0.373535	
-0.373291	
-0.373291	
-0.373108	
-0.375	
-0.374329	
-0.374146	
-0.374146	
-0.375549	
-0.37616	
-0.377075	
-0.376587	
-0.376587	
-0.374939	
-0.375488	
-0.376953	
-0.376221	
-0.37677	
-0.376221	
-0.376587	
-0.376587	
-0.376404	
-0.376038	
-0.375488	
-0.375183	
-0.375732	
-0.376709	
-0.375549	
-0.375916	
-0.374512	
-0.374084	
-0.375244	
-0.375122	
-0.37323	
-0.373474	
-0.374146	
-0.374939	
-0.375488	
-0.375427	
-0.375183	
-0.375305	
-0.37677	
-0.377014	
-0.378296	
-0.37616	
-0.376038	
-0.375916	
-0.377258	
-0.377686	
-0.378357	
-0.377625	
-0.376953	
-0.379211	
-0.378357	
-0.379639	
-0.378296	
-0.378601	
-0.376953	
-0.378784	
-0.378601	
-0.377747	
-0.378113	
-0.378296	
-0.378723	
-0.379272	
-0.378662	
-0.377563	
-0.377441	
-0.375671	
-0.378174	
-0.377686	
-0.37616	
-0.376587	
-0.378296	
-0.377197	
-0.377808	
-0.37677	
-0.377014	
-0.376587	
-0.37677	
-0.376892	
-0.375793	
-0.375366	
-0.375916	
-0.378418	
-0.377563	
-0.376953	
-0.375488	
-0.376343	
-0.37677	
-0.376953	
-0.375854	
-0.375549	
-0.374939	
-0.376099	
-0.377014	
-0.37616	
-0.376099	
-0.374084	
-0.375305	
-0.374512	
-0.375488	
-0.374756	
-0.37561	
-0.374268	
-0.374451	
-0.375183	
-0.375183	
-0.376038	
-0.374573	
-0.375061	
-0.374573	
-0.376587	
-0.374512	
-0.374084	
-0.373474	
-0.374451	
-0.374451	
-0.372986	
-0.373108	
-0.371887	
-0.372681	
-0.37207	
-0.372253	
-0.372009	
-0.371521	
-0.370911	
-0.37085	
-0.37146	
-0.370667	
-0.370667	
-0.369263	
-0.370422	
-0.370239	
-0.369263	
-0.369202	
-0.369873	
-0.368591	
-0.36908	
-0.370483	
-0.36969	
-0.368591	
-0.368164	
-0.368896	
-0.368774	
-0.369568	
-0.36969	
-0.369934	
-0.368713	
-0.370239	
-0.371704	
-0.370728	
-0.370667	
-0.37085	
-0.370422	
-0.3703	
-0.370789	
-0.370361	
-0.369934	
-0.371094	
-0.372131	
-0.372314	
-0.371521	
-0.372314	
-0.372314	
-0.37146	
-0.371399	
-0.372192	
-0.372009	
-0.371948	
-0.372009	
-0.371887	
-0.372009	
-0.371948	
-0.372803	
-0.371765	
-0.371765	
-0.371216	
-0.370972	
-0.370605	
-0.370483	
-0.369751	
-0.369507	
-0.369995	
-0.370972	
-0.37146	
-0.371033	
-0.371826	
-0.371277	
-0.371399	
-0.371826	
-0.371826	
-0.370239	
-0.371887	
-0.373352	
-0.373169	
-0.373779	
-0.372864	
-0.371887	
-0.371338	
-0.372192	
-0.371521	
-0.370728	
-0.371338	
-0.371765	
-0.372314	
-0.372192	
-0.373596	
-0.373291	
-0.373108	
-0.373291	
-0.37439	
-0.37439	
-0.374023	
-0.373474	
-0.373291	
-0.374512	
-0.374573	
-0.375549	
-0.375793	
-0.374756	
-0.374146	
-0.375427	
-0.375305	
-0.375305	
-0.375183	
-0.375244	
-0.375916	
-0.375977	
-0.376831	
-0.375916	
-0.374817	
-0.375366	
-0.375977	
-0.376038	
-0.375122	
-0.374573	
-0.37439	
-0.375305	
-0.375244	
-0.376282	
-0.375061	
-0.37439	
-0.374207	
-0.374207	
-0.373718	
-0.37384	
-0.373901	
-0.37323	
-0.374146	
-0.374146	
-0.374878	
-0.374023	
-0.373535	
-0.373962	
-0.374756	
-0.374573	
-0.373596	
-0.372925	
-0.372375	
-0.374634	
-0.373962	
-0.374329	
-0.373657	
-0.373413	
-0.372803	
-0.373413	
-0.372131	
-0.371399	
-0.37146	
-0.369873	
-0.371887	
-0.37146	
-0.372742	
-0.37262	
-0.372559	
-0.371399	
-0.371887	
-0.37207	
-0.372437	
-0.372253	
-0.370056	
-0.371704	
-0.37207	
-0.372742	
-0.371277	
-0.370667	
-0.370483	
-0.370911	
-0.371582	
-0.371094	
-0.371704	
-0.370544	
-0.370789	
-0.371094	
-0.372498	
-0.371582	
-0.371216	
-0.371033	
-0.372192	
-0.373413	
-0.371643	
-0.371338	
-0.371277	
-0.371765	
-0.371399	
-0.372925	
-0.371765	
-0.370972	
-0.371155	
-0.371643	
-0.372681	
-0.371582	
-0.371582	
-0.371033	
-0.372192	
-0.372498	
-0.37207	
-0.371704	
-0.371826	
-0.371033	
-0.372009	
-0.372009	
-0.371643	
-0.37146	
-0.370544	
-0.370728	
-0.371948	
-0.371826	
-0.370544	
-0.370728	
-0.369568	
-0.369934	
-0.3703	
-0.370789	
-0.3703	
-0.370056	
-0.370972	
-0.371643	
-0.370056	
-0.370483	
-0.370605	
-0.369324	
-0.370972	
-0.370483	
-0.371399	
-0.371033	
-0.370239	
-0.370056	
-0.371277	
-0.370789	
-0.37207	
-0.371582	
-0.370789	
-0.372925	
-0.371826	
-0.372375	
-0.373169	
-0.372681	
-0.371887	
-0.375	
-0.374268	
-0.374268	
-0.374939	
-0.37384	
-0.374695	
-0.375305	
-0.375671	
-0.375488	
-0.375366	
-0.374451	
-0.377625	
-0.375671	
-0.375549	
-0.375061	
-0.373657	
-0.374451	
-0.374329	
-0.375854	
-0.374756	
-0.374573	
-0.373779	
-0.375793	
-0.374756	
-0.374207	
-0.373901	
-0.373779	
-0.374268	
-0.374512	
-0.375366	
-0.375305	
-0.374939	
-0.373047	
-0.375671	
-0.374817	
-0.375427	
-0.374634	
-0.374268	
-0.374329	
-0.376099	
-0.377075	
-0.375854	
-0.375977	
-0.374023	
-0.377014	
-0.376221	
-0.376953	
-0.375793	
-0.374695	
-0.375305	
-0.37677	
-0.377319	
-0.375793	
-0.375793	
-0.374817	
-0.377319	
-0.376648	
-0.376892	
-0.376404	
-0.37616	
-0.376282	
-0.377686	
-0.378296	
-0.377197	
-0.376892	
-0.376404	
-0.378601	
-0.378601	
-0.378723	
-0.377075	
-0.377258	
-0.377869	
-0.378662	
-0.37915	
-0.37854	
-0.378174	
-0.37793	
-0.378479	
-0.377319	
-0.377075	
-0.376709	
-0.376343	
-0.375977	
-0.377075	
-0.376587	
-0.375793	
-0.375671	
-0.376709	
-0.378235	
-0.37677	
-0.376648	
-0.376038	
-0.376465	
-0.37677	
-0.37793	
-0.377808	
-0.377014	
-0.376648	
-0.377136	
-0.378784	
-0.378296	
-0.377869	
-0.376465	
-0.37738	
-0.377686	
-0.378784	
-0.378967	
-0.37793	
-0.377258	
-0.377808	
-0.379089	
-0.379211	
-0.378662	
-0.377747	
-0.37793	
-0.378479	
-0.378174	
-0.377747	
-0.377869	
-0.377075	
-0.377075	
-0.378174	
-0.377747	
-0.376404	
-0.375427	
-0.375122	
-0.376831	
-0.377197	
-0.37616	
-0.375854	
-0.374329	
-0.375	
-0.377075	
-0.376099	
-0.374878	
-0.374878	
-0.375	
-0.375183	
-0.375244	
-0.375488	
-0.375	
-0.374573	
-0.375732	
-0.377197	
-0.375916	
-0.375122	
-0.374878	
-0.374817	
-0.375977	
-0.376648	
-0.377808	
-0.377075	
-0.377808	
-0.37854	
-0.379395	
-0.378784	
-0.378967	
-0.377319	
-0.377441	
-0.379028	
-0.378357	
-0.378357	
-0.377991	
-0.378296	
-0.377747	
-0.378052	
-0.37738	
-0.377075	
-0.376038	
-0.377502	
-0.378418	
-0.377991	
-0.378784	
-0.378662	
-0.378174	
-0.378967	
-0.379395	
-0.378784	
-0.378357	
-0.376404	
-0.376587	
-0.377136	
-0.376526	
-0.376282	
-0.376038	
-0.376465	
-0.376648	
-0.375854	
-0.375122	
-0.375427	
-0.373779	
-0.374512	
-0.375427	
-0.375122	
-0.374939	
-0.37384	
-0.373779	
-0.374756	
-0.374573	
-0.374451	
-0.373657	
-0.37323	
-0.374207	
-0.374146	
-0.373413	
-0.374695	
-0.375061	
-0.374695	
-0.37439	
-0.374023	
-0.375	
-0.375122	
-0.374634	
-0.374512	
-0.375854	
-0.375122	
-0.374817	
-0.375305	
-0.376038	
-0.375793	
-0.375671	
-0.375854	
-0.375671	
-0.375061	
-0.374573	
-0.376404	
-0.376221	
-0.375732	
-0.375183	
-0.37616	
-0.375793	
-0.375793	
-0.376587	
-0.376282	
-0.376526	
-0.375549	
-0.37677	
-0.376709	
-0.376709	
-0.375732	
-0.377075	
-0.37738	
-0.377686	
-0.378845	
-0.376709	
-0.376587	
-0.375122	
-0.377258	
-0.377625	
-0.377563	
-0.377625	
-0.377075	
-0.376587	
-0.376038	
-0.377441	
-0.376648	
-0.377625	
-0.375793	
-0.377991	
-0.378357	
-0.37793	
-0.378174	
-0.378357	
-0.378357	
-0.376892	
-0.378357	
-0.377014	
-0.378357	
-0.37677	
-0.377502	
-0.377747	
-0.377197	
-0.377075	
-0.37738	
-0.377686	
-0.37738	
-0.378357	
-0.376038	
-0.377808	
-0.377625	
-0.37854	
-0.378113	
-0.37738	
-0.378357	
-0.378967	
-0.378357	
-0.377502	
-0.379456	
-0.377075	
-0.377502	
-0.376282	
-0.377808	
-0.378052	
-0.377625	
-0.378296	
-0.378723	
-0.378906	
-0.378357	
-0.380127	
-0.378235	
-0.379333	
-0.378906	
-0.380249	
-0.380676	
-0.380005	
-0.380188	
-0.380615	
-0.380188	
-0.38031	
-0.381897	
-0.379456	
-0.380615	
-0.379883	
-0.380737	
-0.380432	
-0.380432	
-0.379578	
-0.380859	
-0.380371	
-0.381165	
-0.382324	
-0.379456	
-0.380798	
-0.380066	
-0.380005	
-0.379761	
-0.380432	
-0.379639	
-0.380249	
-0.379028	
-0.378845	
-0.378967	
-0.377136	
-0.378296	
-0.377319	
-0.377014	
-0.377136	
-0.377747	
-0.376831	
-0.377075	
-0.375977	
-0.376587	
-0.377258	
-0.375793	
-0.377136	
-0.376282	
-0.377502	
-0.377747	
-0.377625	
-0.377686	
-0.377869	
-0.377258	
-0.377563	
-0.37854	
-0.377258	
-0.376709	
-0.376404	
-0.377075	
-0.377625	
-0.378601	
-0.378784	
-0.378906	
-0.378845	
-0.379089	
-0.378662	
-0.377991	
-0.378296	
-0.37738	
-0.377014	
-0.37738	
-0.378601	
-0.37793	
-0.378052	
-0.378418	
-0.377808	
-0.377625	
-0.377563	
-0.378113	
-0.377441	
-0.376343	
-0.377747	
-0.377319	
-0.377258	
-0.378235	
-0.378662	
-0.378601	
-0.377502	
-0.377502	
-0.377808	
-0.377441	
-0.375	
-0.376953	
-0.377991	
-0.378357	
-0.379028	
-0.377563	
-0.377258	
-0.377014	
-0.377625	
-0.377136	
-0.377075	
-0.375122	
-0.377075	
-0.376648	
-0.376892	
-0.377625	
-0.377258	
-0.376404	
-0.376587	
-0.376892	
-0.377502	
-0.377441	
-0.375916	
-0.377991	
-0.378235	
-0.377991	
-0.379089	
-0.378174	
-0.378479	
-0.378662	
-0.379211	
-0.37854	
-0.378601	
-0.37561	
-0.378357	
-0.377869	
-0.377502	
-0.37854	
-0.378296	
-0.378662	
-0.378845	
-0.378479	
-0.378052	
-0.378113	
-0.375671	
-0.37738	
-0.37677	
-0.37738	
-0.378479	
-0.376892	
-0.377625	
-0.377991	
-0.377747	
-0.377258	
-0.37738	
-0.374512	
-0.377014	
-0.377625	
-0.378235	
-0.378174	
-0.377014	
-0.377869	
-0.378723	
-0.378357	
-0.378296	
-0.379944	
-0.37738	
-0.378174	
-0.378662	
-0.379883	
-0.380066	
-0.379089	
-0.380249	
-0.38031	
-0.380615	
-0.380066	
-0.380493	
-0.379028	
-0.380432	
-0.38031	
-0.381409	
-0.381714	
-0.379639	
-0.38031	
-0.380981	
-0.380615	
-0.379517	
-0.380737	
-0.379517	
-0.380188	
-0.380676	
-0.380493	
-0.379517	
-0.377991	
-0.378235	
-0.37854	
-0.378052	
-0.377625	
-0.378784	
-0.376587	
-0.377136	
-0.377563	
-0.376953	
-0.377258	
-0.377441	
-0.377808	
-0.378418	
-0.379456	
-0.377991	
-0.378845	
-0.378113	
-0.378235	
-0.378296	
-0.378235	
-0.378723	
-0.377563	
-0.377136	
-0.377563	
-0.377991	
-0.376831	
-0.377991	
-0.378479	
-0.378601	
-0.379028	
-0.379761	
-0.379517	
-0.378723	
-0.379822	
-0.38031	
-0.379761	
-0.379517	
-0.380859	
-0.380005	
-0.379395	
-0.380676	
-0.380676	
-0.38092	
-0.380493	
-0.380859	
-0.38092	
-0.381165	
-0.381287	
-0.380798	
-0.380615	
-0.381531	
-0.381714	
-0.381836	
-0.381836	
-0.38092	
-0.381165	
-0.381897	
-0.380676	
-0.38092	
-0.381348	
-0.381653	
-0.381592	
-0.380371	
-0.381042	
-0.381653	
-0.380798	
-0.379883	
-0.380188	
-0.380066	
-0.379517	
-0.37915	
-0.379333	
-0.38031	
-0.379944	
-0.380066	
-0.379822	
-0.379028	
-0.378113	
-0.379639	
-0.379944	
-0.3797	
-0.380127	
-0.379639	
-0.379578	
-0.379211	
-0.380432	
-0.379089	
-0.378296	
-0.378113	
-0.37915	
-0.378967	
-0.378784	
-0.37738	
-0.376892	
-0.377075	
-0.377625	
-0.379333	
-0.379333	
-0.378296	
-0.377686	
-0.377136	
-0.377625	
-0.377991	
-0.377502	
-0.377502	
-0.377502	
-0.377441	
-0.378357	
-0.377502	
-0.376648	
-0.376404	
-0.376465	
-0.376648	
-0.376343	
-0.375488	
-0.376587	
-0.377197	
-0.377319	
-0.377625	
-0.377319	
-0.376648	
-0.376404	
-0.37677	
-0.376953	
-0.376831	
-0.377197	
-0.376648	
-0.376526	
-0.376526	
-0.376282	
-0.376282	
-0.375793	
-0.376282	
-0.375732	
-0.374512	
-0.375732	
-0.376526	
-0.37616	
-0.375671	
-0.375916	
-0.376221	
-0.376099	
-0.376038	
-0.375916	
-0.375671	
-0.374634	
-0.375671	
-0.376099	
-0.374695	
-0.373901	
-0.373718	
-0.374329	
-0.374512	
-0.374207	
-0.374695	
-0.374329	
-0.372803	
-0.373535	
-0.373962	
-0.373047	
-0.372742	
-0.373596	
-0.373596	
-0.37384	
-0.37384	
-0.373718	
-0.37262	
-0.372681	
-0.372925	
-0.373413	
-0.373108	
-0.372375	
-0.373108	
-0.37262	
-0.373596	
-0.373108	
-0.373596	
-0.373352	
-0.373535	
-0.374207	
-0.375061	
-0.374878	
-0.37439	
-0.376099	
-0.375488	
-0.375671	
-0.376343	
-0.375854	
-0.37616	
-0.37677	
-0.376404	
-0.377075	
-0.377136	
-0.374512	
-0.375488	
-0.375305	
-0.375916	
-0.376465	
-0.376221	
-0.375061	
-0.373474	
-0.37561	
-0.375671	
-0.375427	
-0.373535	
-0.374634	
-0.374329	
-0.375122	
-0.374756	
-0.374207	
-0.373779	
-0.373047	
-0.374268	
-0.374207	
-0.375122	
-0.373169	
-0.373779	
-0.37384	
-0.374756	
-0.375549	
-0.374084	
-0.373047	
-0.373596	
-0.375366	
-0.374512	
-0.375427	
-0.373596	
-0.375122	
-0.374512	
-0.374634	
-0.374756	
-0.374756	
-0.373291	
-0.374146	
-0.375	
-0.373657	
-0.374817	
-0.373291	
-0.374207	
-0.374207	
-0.374512	
-0.374878	
-0.375977	
-0.374634	
-0.373474	
-0.374268	
-0.373901	
-0.37677	
-0.375244	
-0.374756	
-0.374634	
-0.376099	
-0.375854	
-0.376404	
-0.374695	
-0.374268	
-0.375061	
-0.374023	
-0.375977	
-0.375488	
-0.375549	
-0.373596	
-0.37384	
-0.373169	
-0.372986	
-0.372375	
-0.372864	
-0.373596	
-0.372192	
-0.373291	
-0.372986	
-0.373291	
-0.372803	
-0.372925	
-0.372314	
-0.373352	
-0.37262	
-0.373596	
-0.373657	
-0.37207	
-0.37384	
-0.372742	
-0.372742	
-0.373535	
-0.37439	
-0.373535	
-0.37323	
-0.37262	
-0.373596	
-0.37323	
-0.372314	
-0.374207	
-0.373901	
-0.373474	
-0.37323	
-0.373657	
-0.373596	
-0.373901	
-0.372986	
-0.373413	
-0.372559	
-0.371948	
-0.373169	
-0.372192	
-0.37262	
-0.371948	
-0.371521	
-0.371826	
-0.371643	
-0.370239	
-0.370605	
-0.370544	
-0.370789	
-0.371277	
-0.370239	
-0.370056	
-0.369934	
-0.369507	
-0.370728	
-0.370422	
-0.369995	
-0.369507	
-0.370056	
-0.369934	
-0.370361	
-0.369629	
-0.369934	
-0.370239	
-0.370544	
-0.370911	
-0.371216	
-0.370972	
-0.371277	
-0.372498	
-0.371277	
-0.371948	
-0.372925	
-0.373596	
-0.372559	
-0.373291	
-0.374207	
-0.37146	
-0.371765	
-0.373169	
-0.371826	
-0.370911	
-0.372681	
-0.372009	
-0.371948	
-0.371887	
-0.371338	
-0.37207	
-0.372009	
-0.371765	
-0.372986	
-0.372803	
-0.372803	
-0.373535	
-0.372742	
-0.372864	
-0.372314	
-0.371765	
-0.372009	
-0.371643	
-0.370361	
-0.370789	
-0.369995	
-0.368896	
-0.369873	
-0.369629	
-0.369995	
-0.369202	
-0.36969	
-0.36969	
-0.36908	
-0.367859	
-0.368408	
-0.36853	
-0.367371	
-0.36853	
-0.368408	
-0.368591	
-0.367004	
-0.368713	
-0.369324	
-0.368408	
-0.366943	
-0.36792	
-0.367126	
-0.366821	
-0.369507	
-0.368591	
-0.368408	
-0.368652	
-0.369568	
-0.369629	
-0.368469	
-0.368103	
-0.368774	
-0.369019	
-0.368347	
-0.370056	
-0.369263	
-0.369812	
-0.370117	
-0.370911	
-0.369995	
-0.368652	
-0.368164	
-0.369385	
-0.369751	
-0.369446	
-0.371094	
-0.369751	
-0.370911	
-0.370605	
-0.37085	
-0.370544	
-0.370422	
-0.369934	
-0.37085	
-0.371155	
-0.370544	
-0.371887	
-0.371033	
-0.372131	
-0.371033	
-0.371521	
-0.372314	
-0.371338	
-0.369934	
-0.370483	
-0.370605	
-0.37085	
-0.371582	
-0.370483	
-0.370361	
-0.370239	
-0.372009	
-0.372375	
-0.371521	
-0.370667	
-0.371582	
-0.372375	
-0.371155	
-0.371704	
-0.37146	
-0.372314	
-0.371216	
-0.372437	
-0.37207	
-0.371399	
-0.370911	
-0.372192	
-0.373535	
-0.370422	
-0.371399	
-0.3703	
-0.371582	
-0.372131	
-0.372681	
-0.372375	
-0.372375	
-0.37207	
-0.37207	
-0.373657	
-0.371826	
-0.372925	
-0.372314	
-0.37262	
-0.372681	
-0.372742	
-0.373291	
-0.372437	
-0.371765	
-0.372131	
-0.373718	
-0.371521	
-0.372498	
-0.372681	
-0.373535	
-0.373901	
-0.374023	
-0.374695	
-0.37439	
-0.374573	
-0.37384	
-0.375	
-0.374512	
-0.375427	
-0.375	
-0.375	
-0.374634	
-0.374207	
-0.375732	
-0.375488	
-0.374939	
-0.375122	
-0.376038	
-0.375244	
-0.375732	
-0.374573	
-0.375	
-0.375732	
-0.375366	
-0.375854	
-0.37561	
-0.375183	
-0.374329	
-0.375916	
-0.374451	
-0.37439	
-0.374329	
-0.373108	
-0.374329	
-0.374207	
-0.373962	
-0.373352	
-0.373352	
	
