E:\DOCUMENTS AND SETTINGS\JPOTAS\MEUS DOCUMENTOS\UFRJ\RSCI-BM 12 WK SERIES\070718-RSCI-BM-03\RSCI-BM-03-REMG\070718-RSCI-BM-03-REMG-0005.ACQ
0.025000 msec/sample
1 channel
Analog input
Volts
CH1	
2000	
-0.395325	
-0.395325	
-0.39563	
-0.395996	
-0.395691	
-0.396484	
-0.395874	
-0.397705	
-0.395874	
-0.396484	
-0.396484	
-0.396362	
-0.396362	
-0.395996	
-0.396545	
-0.39679	
-0.397583	
-0.396606	
-0.398438	
-0.397461	
-0.397034	
-0.397156	
-0.398132	
-0.39856	
-0.398376	
-0.397522	
-0.397461	
-0.399292	
-0.397705	
-0.398804	
-0.399475	
-0.398926	
-0.398315	
-0.398865	
-0.398438	
-0.398438	
-0.398987	
-0.398926	
-0.399536	
-0.399719	
-0.39978	
-0.398682	
-0.398132	
-0.39801	
-0.398743	
-0.398987	
-0.399292	
-0.399353	
-0.397522	
-0.397766	
-0.396729	
-0.397766	
-0.397583	
-0.397217	
-0.396973	
-0.39563	
-0.397095	
-0.397522	
-0.397461	
-0.397583	
-0.396973	
-0.396362	
-0.396301	
-0.397217	
-0.396423	
-0.396545	
-0.394226	
-0.397217	
-0.397644	
-0.397766	
-0.396606	
-0.397949	
-0.397644	
-0.395874	
-0.397827	
-0.396606	
-0.397095	
-0.394897	
-0.396851	
-0.39679	
-0.396729	
-0.397095	
-0.397217	
-0.397156	
-0.397095	
-0.397766	
-0.395874	
-0.396484	
-0.395569	
-0.396851	
-0.395874	
-0.396118	
-0.396057	
-0.395996	
-0.396912	
-0.396484	
-0.397278	
-0.395325	
-0.395691	
-0.394592	
-0.397278	
-0.39624	
-0.396118	
-0.396851	
-0.39624	
-0.39679	
-0.395874	
-0.397644	
-0.395325	
-0.396362	
-0.395569	
-0.397156	
-0.39679	
-0.396484	
-0.396606	
-0.39624	
-0.396912	
-0.396118	
-0.396057	
-0.395081	
-0.395691	
-0.395203	
-0.394592	
-0.395386	
-0.394714	
-0.394104	
-0.395081	
-0.394958	
-0.39386	
-0.393921	
-0.39325	
-0.392578	
-0.392517	
-0.391357	
-0.392517	
-0.392334	
-0.392822	
-0.392761	
-0.393616	
-0.392944	
-0.393127	
-0.394104	
-0.393372	
-0.393188	
-0.392517	
-0.394348	
-0.394104	
-0.394287	
-0.393799	
-0.394348	
-0.394287	
-0.394409	
-0.394226	
-0.393921	
-0.39386	
-0.392334	
-0.39447	
-0.393982	
-0.39447	
-0.394165	
-0.395325	
-0.395081	
-0.395142	
-0.394714	
-0.394653	
-0.393799	
-0.392883	
-0.394775	
-0.394226	
-0.394592	
-0.39386	
-0.394958	
-0.395813	
-0.39502	
-0.395081	
-0.39447	
-0.394897	
-0.394409	
-0.395081	
-0.394592	
-0.394836	
-0.395569	
-0.395935	
-0.395447	
-0.394165	
-0.394287	
-0.394409	
-0.394592	
-0.394653	
-0.393921	
-0.394592	
-0.39502	
-0.394775	
-0.393555	
-0.394226	
-0.395142	
-0.395203	
-0.365723	
-0.373413	
-0.377258	
-0.378906	
-0.38092	
-0.381592	
-0.413574	
-0.401245	
-0.397339	
-0.395935	
-0.395447	
-0.393738	
-0.395569	
-0.395081	
-0.393982	
-0.395752	
-0.394775	
-0.395691	
-0.39502	
-0.395325	
-0.395447	
-0.395813	
-0.393799	
-0.395264	
-0.394592	
-0.392761	
-0.395569	
-0.39386	
-0.394348	
-0.394714	
-0.394958	
-0.394348	
-0.393921	
-0.394348	
-0.394409	
-0.393372	
-0.392944	
-0.394592	
-0.393005	
-0.392822	
-0.394287	
-0.394287	
-0.393433	
-0.392761	
-0.393982	
-0.393555	
-0.393188	
-0.393066	
-0.394531	
-0.394287	
-0.394226	
-0.394409	
-0.39502	
-0.394348	
-0.394348	
-0.396118	
-0.395508	
-0.394592	
-0.393677	
-0.395386	
-0.394226	
-0.394287	
-0.394653	
-0.394958	
-0.394531	
-0.394592	
-0.395691	
-0.394592	
-0.395996	
-0.396179	
-0.396423	
-0.396179	
-0.396851	
-0.396057	
-0.394836	
-0.395447	
-0.395325	
-0.395447	
-0.394165	
-0.394775	
-0.365723	
-0.372803	
-0.378845	
-0.378723	
-0.378662	
-0.378784	
-0.410522	
-0.397339	
-0.39386	
-0.392151	
-0.391846	
-0.39209	
-0.391663	
-0.392517	
-0.393433	
-0.393494	
-0.394348	
-0.395752	
-0.395691	
-0.396362	
-0.398315	
-0.399353	
-0.399902	
-0.401062	
-0.403076	
-0.405151	
-0.408203	
-0.410828	
-0.41272	
-0.414734	
-0.416626	
-0.418396	
-0.422119	
-0.424316	
-0.427612	
-0.429932	
-0.433167	
-0.435669	
-0.437805	
-0.440613	
-0.442444	
-0.445557	
-0.446228	
-0.448792	
-0.449158	
-0.451782	
-0.453613	
-0.453857	
-0.454163	
-0.45459	
-0.454224	
-0.45343	
-0.453369	
-0.451172	
-0.45105	
-0.449829	
-0.449829	
-0.448547	
-0.447327	
-0.445618	
-0.444397	
-0.442688	
-0.440308	
-0.439087	
-0.436279	
-0.436584	
-0.434631	
-0.435791	
-0.435303	
-0.435974	
-0.436279	
-0.437744	
-0.439575	
-0.439941	
-0.442322	
-0.44281	
-0.44574	
-0.447327	
-0.450073	
-0.451721	
-0.454651	
-0.456848	
-0.458679	
-0.461243	
-0.462585	
-0.466187	
-0.465942	
-0.468872	
-0.470764	
-0.474426	
-0.476135	
-0.478027	
-0.481018	
-0.482605	
-0.485046	
-0.485901	
-0.488586	
-0.488525	
-0.491211	
-0.492188	
-0.4953	
-0.495361	
-0.495239	
-0.496521	
-0.49762	
-0.498901	
-0.49884	
-0.49823	
-0.495239	
-0.494812	
-0.493835	
-0.494629	
-0.49176	
-0.490112	
-0.489746	
-0.487549	
-0.485657	
-0.483154	
-0.481506	
-0.477722	
-0.476257	
-0.47345	
-0.473572	
-0.469849	
-0.467163	
-0.465881	
-0.463623	
-0.461243	
-0.459595	
-0.459534	
-0.457764	
-0.455933	
-0.454102	
-0.45282	
-0.449951	
-0.448425	
-0.446533	
-0.443909	
-0.441956	
-0.438599	
-0.436646	
-0.432861	
-0.428406	
-0.424316	
-0.422424	
-0.418274	
-0.415222	
-0.411743	
-0.408203	
-0.404541	
-0.400146	
-0.397583	
-0.392334	
-0.388977	
-0.384521	
-0.381592	
-0.377014	
-0.373779	
-0.370911	
-0.366455	
-0.36615	
-0.364258	
-0.364746	
-0.362793	
-0.362305	
-0.361938	
-0.36261	
-0.362732	
-0.364197	
-0.365356	
-0.364807	
-0.367615	
-0.367615	
-0.370483	
-0.370911	
-0.373291	
-0.374451	
-0.377686	
-0.380005	
-0.382385	
-0.384949	
-0.387695	
-0.390137	
-0.391846	
-0.395996	
-0.397644	
-0.401123	
-0.40271	
-0.406494	
-0.408508	
-0.411011	
-0.412109	
-0.414307	
-0.416016	
-0.41748	
-0.41925	
-0.41803	
-0.42041	
-0.419495	
-0.420959	
-0.420715	
-0.421387	
-0.420166	
-0.420227	
-0.420288	
-0.418518	
-0.41925	
-0.416321	
-0.416931	
-0.414673	
-0.414185	
-0.41333	
-0.411438	
-0.409546	
-0.406738	
-0.405212	
-0.4021	
-0.400452	
-0.395325	
-0.39325	
-0.390076	
-0.388306	
-0.385254	
-0.381409	
-0.377808	
-0.375793	
-0.373291	
-0.371094	
-0.369629	
-0.364807	
-0.363953	
-0.361755	
-0.360474	
-0.359192	
-0.357605	
-0.355957	
-0.353394	
-0.352112	
-0.350281	
-0.348938	
-0.346008	
-0.34491	
-0.342041	
-0.34082	
-0.338562	
-0.337341	
-0.333984	
-0.331482	
-0.330688	
-0.328735	
-0.328186	
-0.324585	
-0.322693	
-0.321411	
-0.321472	
-0.320618	
-0.320557	
-0.318115	
-0.318604	
-0.316345	
-0.317078	
-0.315918	
-0.315674	
-0.315186	
-0.313477	
-0.315002	
-0.31366	
-0.313782	
-0.313293	
-0.313599	
-0.312805	
-0.31366	
-0.312378	
-0.313477	
-0.313782	
-0.314819	
-0.31604	
-0.316833	
-0.316772	
-0.316895	
-0.319458	
-0.320984	
-0.321777	
-0.322876	
-0.32428	
-0.323914	
-0.326172	
-0.327515	
-0.328735	
-0.329285	
-0.331055	
-0.330261	
-0.332764	
-0.333008	
-0.33374	
-0.334473	
-0.334778	
-0.336365	
-0.337158	
-0.336304	
-0.334839	
-0.336731	
-0.337585	
-0.338379	
-0.337585	
-0.338806	
-0.338257	
-0.340027	
-0.340942	
-0.340759	
-0.341492	
-0.34375	
-0.343628	
-0.345093	
-0.346497	
-0.345886	
-0.346619	
-0.348938	
-0.349731	
-0.350769	
-0.352661	
-0.351868	
-0.351807	
-0.353882	
-0.355164	
-0.354065	
-0.35553	
-0.356445	
-0.356873	
-0.357544	
-0.357788	
-0.358215	
-0.358765	
-0.358887	
-0.359863	
-0.360168	
-0.360718	
-0.361633	
-0.360413	
-0.362671	
-0.362915	
-0.361816	
-0.361877	
-0.362061	
-0.363281	
-0.364258	
-0.364685	
-0.364319	
-0.365356	
-0.364502	
-0.365967	
-0.365906	
-0.367249	
-0.36731	
-0.368164	
-0.36853	
-0.368652	
-0.369812	
-0.369324	
-0.369202	
-0.369507	
-0.371704	
-0.370972	
-0.371887	
-0.372253	
-0.371948	
-0.372131	
-0.373108	
-0.373291	
-0.372742	
-0.372498	
-0.372131	
-0.372986	
-0.372803	
-0.372925	
-0.372803	
-0.374146	
-0.374146	
-0.374512	
-0.374939	
-0.374939	
-0.374878	
-0.375183	
-0.376404	
-0.376282	
-0.376221	
-0.37616	
-0.376709	
-0.376404	
-0.378418	
-0.377136	
-0.376465	
-0.37616	
-0.377808	
-0.37738	
-0.377502	
-0.377625	
-0.375488	
-0.377014	
-0.37738	
-0.377991	
-0.376587	
-0.376587	
-0.375671	
-0.377686	
-0.376282	
-0.376526	
-0.375977	
-0.376282	
-0.376343	
-0.375793	
-0.376892	
-0.376648	
-0.375671	
-0.376343	
-0.377319	
-0.376404	
-0.376648	
-0.374756	
-0.376953	
-0.377136	
-0.37738	
-0.376648	
-0.37677	
-0.375854	
-0.376953	
-0.376526	
-0.376282	
-0.376038	
-0.376465	
-0.376831	
-0.37616	
-0.376648	
-0.374939	
-0.375549	
-0.374084	
-0.376099	
-0.373718	
-0.372864	
-0.373413	
-0.373474	
-0.373474	
-0.372681	
-0.374512	
-0.372864	
-0.372559	
-0.373169	
-0.374146	
-0.373108	
-0.372559	
-0.372864	
-0.373352	
-0.373718	
-0.374023	
-0.373718	
-0.37384	
-0.373474	
-0.373718	
-0.373779	
-0.374817	
-0.374939	
-0.373352	
-0.373779	
-0.373779	
-0.374573	
-0.373291	
-0.373718	
-0.373596	
-0.373718	
-0.37439	
-0.37439	
-0.373474	
-0.37262	
-0.373962	
-0.374573	
-0.373779	
-0.373596	
-0.373108	
-0.37207	
-0.372864	
-0.37323	
-0.373474	
-0.373108	
-0.372742	
-0.373108	
-0.373962	
-0.373047	
-0.373779	
-0.373596	
-0.373291	
-0.373657	
-0.374207	
-0.375061	
-0.373596	
-0.374695	
-0.374756	
-0.374268	
-0.374756	
-0.374634	
-0.373718	
-0.374268	
-0.37439	
-0.374084	
-0.375183	
-0.37384	
-0.37384	
-0.374084	
-0.373657	
-0.373169	
-0.373169	
-0.372253	
-0.372314	
-0.371948	
-0.372009	
-0.372498	
-0.371765	
-0.370911	
-0.370789	
-0.370972	
-0.369385	
-0.369141	
-0.368469	
-0.368408	
-0.368652	
-0.36853	
-0.369019	
-0.367859	
-0.368591	
-0.368469	
-0.369324	
-0.368164	
-0.368164	
-0.368774	
-0.36853	
-0.368958	
-0.368835	
-0.36908	
-0.368164	
-0.36908	
-0.369141	
-0.370117	
-0.368896	
-0.368103	
-0.367615	
-0.36853	
-0.369751	
-0.369202	
-0.369568	
-0.367737	
-0.368713	
-0.368286	
-0.369385	
-0.3703	
-0.369385	
-0.36731	
-0.368835	
-0.36908	
-0.368958	
-0.369263	
-0.368774	
-0.369446	
-0.369507	
-0.370789	
-0.369751	
-0.369629	
-0.368774	
-0.370422	
-0.370239	
-0.3703	
-0.370544	
-0.369751	
-0.370178	
-0.370056	
-0.370911	
-0.370972	
-0.370239	
-0.369446	
-0.37085	
-0.370911	
-0.370544	
-0.370483	
-0.370178	
-0.369812	
-0.370361	
-0.370667	
-0.370422	
-0.369507	
-0.368652	
-0.369568	
-0.369019	
-0.36908	
-0.369812	
-0.370239	
-0.369812	
-0.370544	
-0.370422	
-0.370544	
-0.370483	
-0.369934	
-0.370911	
-0.369934	
-0.370911	
-0.370605	
-0.371216	
-0.370667	
-0.370728	
-0.371338	
-0.371399	
-0.370422	
-0.369751	
-0.372009	
-0.370361	
-0.370667	
-0.370422	
-0.371216	
-0.370544	
-0.370422	
-0.370422	
-0.370789	
-0.370361	
-0.369995	
-0.370117	
-0.369446	
-0.370728	
-0.369995	
-0.371582	
-0.370056	
-0.369629	
-0.370056	
-0.370239	
-0.369812	
-0.369263	
-0.369446	
-0.36969	
-0.369812	
-0.368896	
-0.371033	
-0.369995	
-0.370544	
-0.370789	
-0.371094	
-0.3703	
-0.36969	
-0.368774	
-0.369995	
-0.370422	
-0.369507	
-0.371643	
-0.371094	
-0.370117	
-0.370728	
-0.371399	
-0.370483	
-0.369995	
-0.369934	
-0.371521	
-0.370667	
-0.370483	
-0.371399	
-0.370605	
-0.370117	
-0.370483	
-0.37146	
-0.370544	
-0.370361	
-0.369141	
-0.370361	
-0.368958	
-0.369873	
-0.36969	
-0.368347	
-0.369568	
-0.36908	
-0.369873	
-0.369995	
-0.369629	
-0.367188	
-0.36908	
-0.369446	
-0.36908	
-0.370178	
-0.370056	
-0.36969	
-0.369446	
-0.36969	
-0.368591	
-0.368164	
-0.367615	
-0.369141	
-0.368835	
-0.368713	
-0.369324	
-0.369324	
-0.368713	
-0.369202	
-0.369324	
-0.369141	
-0.369995	
-0.368469	
-0.369507	
-0.369263	
-0.370239	
-0.370605	
-0.371521	
-0.37146	
-0.371765	
-0.371338	
-0.371948	
-0.371948	
-0.369629	
-0.371277	
-0.372803	
-0.371826	
-0.372009	
-0.371948	
-0.372192	
-0.372375	
-0.372742	
-0.372375	
-0.372925	
-0.371399	
-0.370911	
-0.372009	
-0.372253	
-0.371643	
-0.37207	
-0.371887	
-0.371582	
-0.372192	
-0.371948	
-0.372437	
-0.371155	
-0.369873	
-0.371521	
-0.372559	
-0.372253	
-0.371765	
-0.371216	
-0.371704	
-0.372681	
-0.372559	
-0.372803	
-0.3703	
-0.370972	
-0.371521	
-0.372986	
-0.372192	
-0.372009	
-0.371643	
-0.371826	
-0.372314	
-0.371948	
-0.371521	
-0.370422	
-0.370178	
-0.37085	
-0.370667	
-0.370728	
-0.370789	
-0.371155	
-0.371582	
-0.372986	
-0.371277	
-0.371094	
-0.371216	
-0.370544	
-0.371155	
-0.371887	
-0.371826	
-0.371765	
-0.37262	
-0.373596	
-0.37262	
-0.37262	
-0.37262	
-0.372803	
-0.371155	
-0.37262	
-0.373596	
-0.373474	
-0.373535	
-0.373718	
-0.374146	
-0.374451	
-0.374084	
-0.372437	
-0.37323	
-0.371765	
-0.373169	
-0.374329	
-0.374329	
-0.374146	
-0.37384	
-0.373352	
-0.374146	
-0.374329	
-0.373413	
-0.374329	
-0.371765	
-0.372925	
-0.374268	
-0.375427	
-0.37439	
-0.374817	
-0.374268	
-0.374634	
-0.37439	
-0.374634	
-0.373962	
-0.372253	
-0.374207	
-0.374573	
-0.375732	
-0.375	
-0.375122	
-0.37439	
-0.375122	
-0.375977	
-0.375122	
-0.374756	
-0.373291	
-0.373535	
-0.375061	
-0.375183	
-0.374512	
-0.37561	
-0.374634	
-0.374573	
-0.375488	
-0.37561	
-0.374023	
-0.373596	
-0.373596	
-0.374329	
-0.375671	
-0.374451	
-0.375	
-0.374878	
-0.374817	
-0.375488	
-0.375488	
-0.374268	
-0.374756	
-0.374695	
-0.375488	
-0.376831	
-0.375854	
-0.37677	
-0.376526	
-0.37616	
-0.376404	
-0.37793	
-0.377319	
-0.376831	
-0.37793	
-0.378479	
-0.379639	
-0.378723	
-0.378113	
-0.377625	
-0.378113	
-0.37793	
-0.378113	
-0.377319	
-0.375488	
-0.375977	
-0.377319	
-0.378296	
-0.376892	
-0.377441	
-0.377075	
-0.376892	
-0.375916	
-0.376831	
-0.375854	
-0.375427	
-0.376221	
-0.376648	
-0.377014	
-0.376587	
-0.376282	
-0.375671	
-0.376953	
-0.377502	
-0.377563	
-0.37616	
-0.374817	
-0.376343	
-0.375793	
-0.376587	
-0.375977	
-0.376587	
-0.37561	
-0.376709	
-0.377014	
-0.37677	
-0.376587	
-0.374817	
-0.375916	
-0.37616	
-0.376282	
-0.376099	
-0.376404	
-0.375488	
-0.375854	
-0.376404	
-0.377197	
-0.375793	
-0.375793	
-0.376953	
-0.376465	
-0.376404	
-0.377441	
-0.377625	
-0.37616	
-0.378113	
-0.377625	
-0.377686	
-0.377014	
-0.377869	
-0.377747	
-0.377502	
-0.376831	
-0.377441	
-0.377197	
-0.375916	
-0.376343	
-0.376831	
-0.376648	
-0.375916	
-0.374939	
-0.375	
-0.375793	
-0.37616	
-0.376099	
-0.375916	
-0.374634	
-0.375488	
-0.375732	
-0.375854	
-0.375488	
-0.375793	
-0.374939	
-0.375122	
-0.375427	
-0.37561	
-0.375854	
-0.375549	
-0.376343	
-0.376892	
-0.376587	
-0.375488	
-0.376038	
-0.375671	
-0.376404	
-0.375549	
-0.376282	
-0.376892	
-0.376038	
-0.377625	
-0.378357	
-0.37793	
-0.376343	
-0.37677	
-0.376709	
-0.377258	
-0.376709	
-0.37677	
-0.377197	
-0.376221	
-0.377258	
-0.377869	
-0.376343	
-0.376221	
-0.375916	
-0.375488	
-0.377319	
-0.376038	
-0.375488	
-0.376892	
-0.376953	
-0.376648	
-0.377625	
-0.376404	
-0.375916	
-0.375549	
-0.375427	
-0.376831	
-0.375916	
-0.37616	
-0.376526	
-0.376892	
-0.377686	
-0.377502	
-0.376221	
-0.375793	
-0.376343	
-0.376099	
-0.37738	
-0.377502	
-0.377869	
-0.376831	
-0.377808	
-0.3797	
-0.378784	
-0.377319	
-0.378418	
-0.377625	
-0.376953	
-0.37854	
-0.37793	
-0.377869	
-0.377991	
-0.378662	
-0.378601	
-0.378235	
-0.377991	
-0.378296	
-0.378235	
-0.378601	
-0.379639	
-0.378479	
-0.37854	
-0.378784	
-0.379211	
-0.378784	
-0.379761	
-0.379028	
-0.377502	
-0.378113	
-0.377991	
-0.378052	
-0.377869	
-0.378113	
-0.378052	
-0.37854	
-0.37793	
-0.377014	
-0.377502	
-0.376526	
-0.375854	
-0.375671	
-0.377136	
-0.376953	
-0.375793	
-0.375671	
-0.377136	
-0.377136	
-0.37616	
-0.376587	
-0.375916	
-0.376038	
-0.37561	
-0.376099	
-0.376892	
-0.37616	
-0.376221	
-0.376648	
-0.377319	
-0.377808	
-0.377319	
-0.376526	
-0.376343	
-0.37738	
-0.377686	
-0.377441	
-0.377808	
-0.37738	
-0.376953	
-0.378113	
-0.378296	
-0.378174	
-0.37738	
-0.376648	
-0.376526	
-0.378845	
-0.37915	
-0.378235	
-0.377258	
-0.377686	
-0.379211	
-0.379272	
-0.37915	
-0.377747	
-0.378052	
-0.379211	
-0.379456	
-0.378845	
-0.378601	
-0.379333	
-0.379211	
-0.380615	
-0.379578	
-0.379028	
-0.37854	
-0.37854	
-0.378906	
-0.379333	
-0.379395	
-0.379761	
-0.37915	
-0.378357	
-0.378052	
-0.378235	
-0.378174	
-0.378174	
-0.375549	
-0.376953	
-0.377075	
-0.377258	
-0.376892	
-0.377258	
-0.377563	
-0.376953	
-0.377625	
-0.377136	
-0.376038	
-0.37439	
-0.376343	
-0.377686	
-0.377258	
-0.376465	
-0.377014	
-0.377258	
-0.376526	
-0.376831	
-0.376953	
-0.376404	
-0.374695	
-0.375244	
-0.376648	
-0.37793	
-0.376404	
-0.376404	
-0.375916	
-0.376099	
-0.377075	
-0.375671	
-0.375671	
-0.374634	
-0.374634	
-0.376099	
-0.376404	
-0.37561	
-0.37561	
-0.375732	
-0.375122	
-0.376526	
-0.374573	
-0.375122	
-0.373596	
-0.373779	
-0.374634	
-0.375427	
-0.374939	
-0.374817	
-0.375366	
-0.375061	
-0.376648	
-0.374146	
-0.374756	
-0.373352	
-0.374207	
-0.375	
-0.375488	
-0.374756	
-0.375244	
-0.374878	
-0.375244	
-0.375854	
-0.373779	
-0.37439	
-0.373596	
-0.373352	
-0.374084	
-0.374146	
-0.373596	
-0.37384	
-0.37384	
-0.373169	
-0.374207	
-0.372681	
-0.372803	
-0.371826	
-0.370972	
-0.372131	
-0.371887	
-0.370422	
-0.370117	
-0.370667	
-0.370422	
-0.372192	
-0.370544	
-0.370422	
-0.370605	
-0.370422	
-0.37146	
-0.371338	
-0.371399	
-0.370911	
-0.372009	
-0.371216	
-0.372375	
-0.371521	
-0.370972	
-0.371643	
-0.37085	
-0.37085	
-0.371826	
-0.372498	
-0.372681	
-0.372559	
-0.371338	
-0.372559	
-0.372864	
-0.371521	
-0.37085	
-0.370361	
-0.371399	
-0.371948	
-0.371338	
-0.371704	
-0.372498	
-0.372314	
-0.37262	
-0.372498	
-0.371399	
-0.371704	
-0.369995	
-0.371399	
-0.372375	
-0.372437	
-0.371887	
-0.372009	
-0.371704	
-0.37207	
-0.37262	
-0.371887	
-0.371887	
-0.369568	
-0.371643	
-0.371704	
-0.371277	
-0.371521	
-0.372131	
-0.371582	
-0.37207	
-0.372192	
-0.370789	
-0.371338	
-0.369751	
-0.371338	
-0.371094	
-0.369446	
-0.370483	
-0.37085	
-0.37085	
-0.370605	
-0.370911	
-0.372009	
-0.371094	
-0.36853	
-0.3703	
-0.371765	
-0.372314	
-0.372498	
-0.371765	
-0.371582	
-0.372192	
-0.371765	
-0.371887	
-0.37085	
-0.370544	
-0.37146	
-0.371521	
-0.371277	
-0.371887	
-0.37146	
-0.37085	
-0.371643	
-0.371216	
-0.371582	
-0.370789	
-0.368652	
-0.3703	
-0.370544	
-0.370605	
-0.370728	
-0.370422	
-0.370117	
-0.371033	
-0.370911	
-0.369141	
-0.368042	
-0.368286	
-0.36908	
-0.369446	
-0.368286	
-0.368958	
-0.369446	
-0.369568	
-0.370972	
-0.369507	
-0.369507	
-0.368774	
-0.368042	
-0.36908	
-0.370728	
-0.369629	
-0.369385	
-0.370239	
-0.369995	
-0.370544	
-0.369141	
-0.369629	
-0.368896	
-0.368652	
-0.369324	
-0.369995	
-0.369751	
-0.369568	
-0.369324	
-0.369507	
-0.371338	
-0.368958	
-0.368896	
-0.368408	
-0.367493	
-0.369446	
-0.369446	
-0.368225	
-0.368652	
-0.368469	
-0.367004	
-0.369202	
-0.36853	
-0.366882	
-0.366333	
-0.366577	
-0.366028	
-0.367615	
-0.367065	
-0.366699	
-0.367004	
-0.36731	
-0.369141	
-0.368225	
-0.367004	
-0.366943	
-0.366638	
-0.366333	
-0.367188	
-0.36615	
-0.365845	
-0.366943	
-0.366455	
-0.36676	
-0.366455	
-0.365723	
-0.365173	
-0.365662	
-0.36676	
-0.365906	
-0.365967	
-0.366577	
-0.366516	
-0.365356	
-0.367676	
-0.367371	
-0.367126	
-0.367615	
-0.367065	
-0.367493	
-0.368652	
-0.368774	
-0.367737	
-0.367737	
-0.366882	
-0.368774	
-0.368042	
-0.367493	
-0.368164	
-0.368835	
-0.367432	
-0.36792	
-0.368958	
-0.368103	
-0.368591	
-0.367188	
-0.367615	
-0.367126	
-0.367615	
-0.367065	
-0.367065	
-0.366821	
-0.367371	
-0.367371	
-0.366272	
-0.36676	
-0.366272	
-0.366943	
-0.366577	
-0.366455	
-0.36615	
-0.365723	
-0.365356	
-0.366699	
-0.367676	
-0.366028	
-0.366272	
-0.366089	
-0.367432	
-0.366577	
-0.366211	
-0.365173	
-0.365662	
-0.364868	
-0.365601	
-0.365601	
-0.36499	
-0.365906	
-0.365051	
-0.364441	
-0.363892	
-0.365417	
-0.364197	
-0.36499	
-0.363831	
-0.364563	
-0.365723	
-0.36499	
-0.365234	
-0.363708	
-0.365295	
-0.364929	
-0.365967	
-0.365356	
-0.365845	
-0.364929	
-0.364746	
-0.365479	
-0.365234	
-0.366882	
-0.366272	
-0.367065	
-0.365906	
-0.366699	
-0.366394	
-0.365723	
-0.365601	
-0.365601	
-0.367371	
-0.366211	
-0.36731	
-0.365906	
-0.366455	
-0.365723	
-0.366699	
-0.366089	
-0.365723	
-0.366089	
-0.366211	
-0.367065	
-0.365784	
-0.366089	
-0.365906	
-0.366821	
-0.365662	
-0.367004	
-0.365601	
-0.365601	
-0.366272	
-0.366394	
-0.367554	
-0.367249	
-0.367737	
-0.366577	
-0.367004	
-0.365784	
-0.368286	
-0.366638	
-0.366272	
-0.36731	
-0.367126	
-0.367798	
-0.367249	
-0.367188	
-0.36731	
-0.368042	
-0.366028	
-0.367371	
-0.367065	
-0.365723	
-0.367188	
-0.367065	
-0.367676	
-0.367249	
-0.367493	
-0.366943	
-0.367249	
-0.366699	
-0.367432	
-0.367371	
-0.365845	
-0.367004	
-0.367371	
-0.367798	
-0.36792	
-0.368042	
-0.367859	
-0.368896	
-0.368469	
-0.368469	
-0.368591	
-0.367065	
-0.368042	
-0.369324	
-0.369751	
-0.369446	
-0.371582	
-0.370911	
-0.370972	
-0.371643	
-0.37085	
-0.370117	
-0.369141	
-0.370239	
-0.36969	
-0.370605	
-0.369873	
-0.370361	
-0.369263	
-0.370178	
-0.370789	
-0.36969	
-0.369934	
-0.368042	
-0.369568	
-0.368469	
-0.370239	
-0.370422	
-0.370667	
-0.368469	
-0.368042	
-0.369568	
-0.369446	
-0.369873	
-0.36792	
-0.369385	
-0.368591	
-0.369446	
-0.369385	
-0.370544	
-0.369873	
-0.369324	
-0.369446	
-0.36908	
-0.368958	
-0.367981	
-0.369263	
-0.368286	
-0.369446	
-0.368652	
-0.369507	
-0.368164	
-0.368958	
-0.369324	
-0.368835	
-0.369324	
-0.367981	
-0.36908	
-0.367981	
-0.369324	
-0.368408	
-0.36908	
-0.369202	
-0.36908	
-0.3703	
-0.370239	
-0.370911	
-0.368835	
-0.369751	
-0.368774	
-0.370239	
-0.370544	
-0.371155	
-0.370972	
-0.370789	
-0.371826	
-0.371155	
-0.369873	
-0.367188	
-0.368347	
-0.368713	
-0.370667	
-0.368835	
-0.36908	
-0.368347	
-0.369263	
-0.369263	
-0.368652	
-0.368713	
-0.367798	
-0.368835	
-0.367371	
-0.369446	
-0.368896	
-0.369019	
-0.367676	
-0.368469	
-0.369812	
-0.369263	
-0.369446	
-0.36731	
-0.36853	
-0.368835	
-0.370667	
-0.3703	
-0.370422	
-0.367737	
-0.369019	
-0.370483	
-0.369446	
-0.370117	
-0.368286	
-0.370667	
-0.3703	
-0.370667	
-0.371155	
-0.372009	
-0.370667	
-0.371033	
-0.371338	
-0.369568	
-0.370605	
-0.368286	
-0.369934	
-0.370178	
-0.37085	
-0.370178	
-0.370422	
-0.369751	
-0.370789	
-0.370972	
-0.369568	
-0.370178	
-0.368713	
-0.370483	
-0.369995	
-0.370178	
-0.370056	
-0.371216	
-0.370544	
-0.370728	
-0.371338	
-0.369751	
-0.370056	
-0.369629	
-0.37085	
-0.371216	
-0.371094	
-0.371155	
-0.371277	
-0.371948	
-0.371765	
-0.372559	
-0.37085	
-0.372131	
-0.371399	
-0.372253	
-0.373596	
-0.37262	
-0.37262	
-0.372803	
-0.373474	
-0.373047	
-0.373657	
-0.372253	
-0.371704	
-0.37262	
-0.372803	
-0.373352	
-0.37262	
-0.372864	
-0.373657	
-0.374207	
-0.374573	
-0.37439	
-0.373596	
-0.374268	
-0.373779	
-0.373352	
-0.374451	
-0.374268	
-0.373047	
-0.37384	
-0.374756	
-0.373779	
-0.374084	
-0.373352	
-0.372742	
-0.373047	
-0.372375	
-0.373474	
-0.372742	
-0.37207	
-0.371704	
-0.372803	
-0.372864	
-0.372986	
-0.372131	
-0.371704	
-0.371765	
-0.371521	
-0.372559	
-0.371704	
-0.372009	
-0.372009	
-0.37262	
-0.372742	
-0.372742	
-0.373108	
-0.373169	
	
