E:\DOCUMENTS AND SETTINGS\JPOTAS\MEUS DOCUMENTOS\UFRJ\RSCI-BM 12 WK SERIES\070718-RSCI-BM-03\RSCI-BM-03-REMG\070718-RSCI-BM-03-REMG-0009.ACQ
0.025000 msec/sample
1 channel
Analog input
Volts
CH1	
2000	
-0.396362	
-0.395813	
-0.396057	
-0.395508	
-0.39563	
-0.395386	
-0.396667	
-0.396545	
-0.395935	
-0.395264	
-0.394775	
-0.394287	
-0.394653	
-0.394897	
-0.394653	
-0.394531	
-0.39386	
-0.393555	
-0.394348	
-0.39502	
-0.394531	
-0.394165	
-0.392395	
-0.393494	
-0.394043	
-0.394409	
-0.393311	
-0.393921	
-0.394287	
-0.394043	
-0.395508	
-0.395203	
-0.394714	
-0.392639	
-0.394409	
-0.393616	
-0.392944	
-0.391907	
-0.392822	
-0.391968	
-0.393433	
-0.39563	
-0.393555	
-0.392456	
-0.390259	
-0.392456	
-0.39209	
-0.391968	
-0.391602	
-0.3927	
-0.390625	
-0.391846	
-0.393982	
-0.392029	
-0.391296	
-0.390137	
-0.39209	
-0.391418	
-0.392273	
-0.391479	
-0.391663	
-0.391357	
-0.392212	
-0.393311	
-0.391724	
-0.3927	
-0.391479	
-0.392395	
-0.391418	
-0.392578	
-0.391602	
-0.392029	
-0.3927	
-0.393005	
-0.394958	
-0.393494	
-0.392883	
-0.392456	
-0.393066	
-0.393677	
-0.394348	
-0.393677	
-0.393921	
-0.393677	
-0.393127	
-0.395508	
-0.394775	
-0.394409	
-0.39447	
-0.394226	
-0.394775	
-0.394775	
-0.395386	
-0.393799	
-0.394714	
-0.393677	
-0.395935	
-0.395447	
-0.394409	
-0.39325	
-0.393372	
-0.394287	
-0.394409	
-0.394714	
-0.393433	
-0.394775	
-0.395081	
-0.395996	
-0.396057	
-0.395264	
-0.394897	
-0.395691	
-0.398071	
-0.397095	
-0.396973	
-0.396851	
-0.397339	
-0.396729	
-0.397461	
-0.397156	
-0.397827	
-0.397644	
-0.396484	
-0.398132	
-0.396729	
-0.396606	
-0.39624	
-0.396606	
-0.396667	
-0.397095	
-0.397705	
-0.397888	
-0.396912	
-0.395935	
-0.396362	
-0.396729	
-0.397522	
-0.397522	
-0.397034	
-0.396729	
-0.397034	
-0.397461	
-0.397034	
-0.395935	
-0.394836	
-0.39563	
-0.395752	
-0.395264	
-0.394836	
-0.394958	
-0.395142	
-0.393738	
-0.39563	
-0.395325	
-0.393921	
-0.392578	
-0.39386	
-0.394897	
-0.393921	
-0.394653	
-0.392273	
-0.39325	
-0.393982	
-0.395874	
-0.394592	
-0.393616	
-0.393066	
-0.393494	
-0.394043	
-0.393188	
-0.392822	
-0.392212	
-0.392822	
-0.392883	
-0.394958	
-0.393738	
-0.393677	
-0.392517	
-0.392395	
-0.393494	
-0.392639	
-0.393188	
-0.392029	
-0.39209	
-0.392334	
-0.392883	
-0.391663	
-0.391785	
-0.390747	
-0.390869	
-0.392029	
-0.391663	
-0.392517	
-0.392212	
-0.391296	
-0.391479	
-0.392761	
-0.36438	
-0.368896	
-0.374329	
-0.375549	
-0.375977	
-0.37793	
-0.410156	
-0.399109	
-0.393005	
-0.3927	
-0.392883	
-0.3927	
-0.39209	
-0.392273	
-0.391846	
-0.392822	
-0.394409	
-0.393188	
-0.394714	
-0.393982	
-0.394226	
-0.394775	
-0.394531	
-0.394165	
-0.394104	
-0.394409	
-0.393921	
-0.395752	
-0.395142	
-0.39563	
-0.394714	
-0.394226	
-0.395325	
-0.395569	
-0.394409	
-0.394043	
-0.394531	
-0.392883	
-0.395874	
-0.395447	
-0.394836	
-0.394714	
-0.394836	
-0.396118	
-0.394714	
-0.395935	
-0.395996	
-0.395508	
-0.39502	
-0.396484	
-0.396423	
-0.396057	
-0.397034	
-0.39624	
-0.397522	
-0.397034	
-0.397461	
-0.396973	
-0.397949	
-0.39624	
-0.398254	
-0.398254	
-0.39801	
-0.399414	
-0.398071	
-0.39978	
-0.398987	
-0.400696	
-0.399902	
-0.399353	
-0.398926	
-0.400208	
-0.399963	
-0.399231	
-0.399963	
-0.397888	
-0.398743	
-0.397949	
-0.398071	
-0.396423	
-0.394714	
-0.39502	
-0.395264	
-0.394958	
-0.394104	
-0.39386	
-0.392334	
-0.392334	
-0.3927	
-0.392273	
-0.391724	
-0.391602	
-0.392029	
-0.392212	
-0.394775	
-0.39447	
-0.396362	
-0.396545	
-0.397461	
-0.398743	
-0.399536	
-0.399902	
-0.400024	
-0.402344	
-0.404419	
-0.408325	
-0.409851	
-0.413879	
-0.415894	
-0.417969	
-0.420532	
-0.425232	
-0.42627	
-0.42865	
-0.431274	
-0.435608	
-0.440674	
-0.44281	
-0.446106	
-0.448914	
-0.453186	
-0.454224	
-0.459045	
-0.46051	
-0.464233	
-0.466187	
-0.469788	
-0.472778	
-0.473633	
-0.474548	
-0.474548	
-0.476807	
-0.4776	
-0.480042	
-0.47998	
-0.482178	
-0.482666	
-0.484558	
-0.48645	
-0.487427	
-0.48645	
-0.486084	
-0.488647	
-0.486938	
-0.488953	
-0.487671	
-0.489441	
-0.489502	
-0.491272	
-0.492859	
-0.494568	
-0.495544	
-0.496216	
-0.49939	
-0.499451	
-0.504089	
-0.505005	
-0.507446	
-0.508911	
-0.51239	
-0.513428	
-0.515381	
-0.516968	
-0.517212	
-0.521118	
-0.521179	
-0.523926	
-0.524231	
-0.527466	
-0.528015	
-0.531677	
-0.533936	
-0.536133	
-0.537354	
-0.537598	
-0.540283	
-0.540771	
-0.542847	
-0.542358	
-0.544312	
-0.542969	
-0.545349	
-0.545166	
-0.545227	
-0.544312	
-0.542664	
-0.541931	
-0.539795	
-0.539246	
-0.535156	
-0.533386	
-0.529175	
-0.527405	
-0.523743	
-0.520447	
-0.517822	
-0.511475	
-0.508057	
-0.503296	
-0.501221	
-0.494507	
-0.491577	
-0.486145	
-0.481934	
-0.477234	
-0.472351	
-0.468384	
-0.462097	
-0.458069	
-0.452698	
-0.448669	
-0.441467	
-0.437012	
-0.431335	
-0.427795	
-0.423767	
-0.419128	
-0.415527	
-0.411194	
-0.407654	
-0.402771	
-0.398926	
-0.393677	
-0.389893	
-0.385315	
-0.382446	
-0.378845	
-0.374817	
-0.371094	
-0.368835	
-0.366638	
-0.363037	
-0.359802	
-0.356812	
-0.35498	
-0.352478	
-0.349182	
-0.347656	
-0.346008	
-0.344788	
-0.34259	
-0.342285	
-0.340698	
-0.339966	
-0.338135	
-0.338074	
-0.335571	
-0.335938	
-0.337158	
-0.336121	
-0.336243	
-0.335205	
-0.335938	
-0.335693	
-0.336975	
-0.334717	
-0.336182	
-0.336426	
-0.33844	
-0.339294	
-0.340027	
-0.341187	
-0.34082	
-0.341797	
-0.343872	
-0.344604	
-0.343872	
-0.345764	
-0.345276	
-0.347229	
-0.348022	
-0.348816	
-0.349548	
-0.350159	
-0.350159	
-0.350342	
-0.351013	
-0.351379	
-0.352478	
-0.352234	
-0.353577	
-0.353882	
-0.354431	
-0.354431	
-0.355042	
-0.35498	
-0.354858	
-0.35614	
-0.356689	
-0.357056	
-0.357239	
-0.359497	
-0.35907	
-0.360718	
-0.360413	
-0.361206	
-0.361328	
-0.361694	
-0.362366	
-0.362854	
-0.362488	
-0.363098	
-0.364868	
-0.365173	
-0.366333	
-0.366699	
-0.366882	
-0.367615	
-0.367188	
-0.367004	
-0.367188	
-0.368347	
-0.369019	
-0.368835	
-0.369812	
-0.370605	
-0.370239	
-0.371399	
-0.37207	
-0.373108	
-0.372864	
-0.373291	
-0.374268	
-0.375549	
-0.374817	
-0.374817	
-0.375122	
-0.375854	
-0.375427	
-0.375183	
-0.376648	
-0.376709	
-0.375305	
-0.376282	
-0.376404	
-0.376221	
-0.377869	
-0.377258	
-0.378113	
-0.377502	
-0.378113	
-0.378113	
-0.377441	
-0.376587	
-0.377319	
-0.37854	
-0.378662	
-0.378296	
-0.378296	
-0.37738	
-0.377686	
-0.376953	
-0.377502	
-0.377747	
-0.375977	
-0.376526	
-0.376282	
-0.377014	
-0.377319	
-0.376892	
-0.377014	
-0.377258	
-0.377014	
-0.377502	
-0.377502	
-0.376526	
-0.376831	
-0.377991	
-0.377441	
-0.378357	
-0.377686	
-0.377075	
-0.375977	
-0.376526	
-0.375305	
-0.375366	
-0.375366	
-0.374084	
-0.37323	
-0.37323	
-0.374268	
-0.372498	
-0.37207	
-0.371582	
-0.373535	
-0.372009	
-0.37085	
-0.370361	
-0.369934	
-0.369934	
-0.369568	
-0.370667	
-0.370483	
-0.369629	
-0.369141	
-0.371033	
-0.370178	
-0.369873	
-0.369934	
-0.369568	
-0.365173	
-0.343079	
-0.35199	
-0.353394	
-0.354187	
-0.354187	
-0.377075	
-0.382385	
-0.375427	
-0.374512	
-0.374329	
-0.373657	
-0.37384	
-0.374573	
-0.373718	
-0.37439	
-0.373352	
-0.375854	
-0.377625	
-0.375916	
-0.375488	
-0.376587	
-0.375977	
-0.375488	
-0.37677	
-0.376648	
-0.376831	
-0.375549	
-0.376526	
-0.378113	
-0.377014	
-0.377747	
-0.380249	
-0.379089	
-0.37915	
-0.379395	
-0.379517	
-0.379517	
-0.378418	
-0.377808	
-0.379333	
-0.378845	
-0.379517	
-0.380554	
-0.380066	
-0.380371	
-0.380615	
-0.381531	
-0.380859	
-0.380066	
-0.381287	
-0.382202	
-0.381836	
-0.382629	
-0.382751	
-0.383118	
-0.382996	
-0.383057	
-0.384155	
-0.383972	
-0.382446	
-0.383362	
-0.384644	
-0.384216	
-0.384033	
-0.383667	
-0.384338	
-0.384949	
-0.384521	
-0.385681	
-0.385803	
-0.384033	
-0.384583	
-0.384888	
-0.383789	
-0.383362	
-0.381348	
-0.382385	
-0.38092	
-0.379761	
-0.379883	
-0.378906	
-0.377014	
-0.377808	
-0.376709	
-0.376038	
-0.375732	
-0.374268	
-0.375244	
-0.375793	
-0.375488	
-0.37616	
-0.377197	
-0.377136	
-0.378357	
-0.37854	
-0.379517	
-0.38092	
-0.380554	
-0.38269	
-0.385315	
-0.387573	
-0.388611	
-0.391479	
-0.392395	
-0.39563	
-0.397949	
-0.401733	
-0.40448	
-0.40686	
-0.409302	
-0.411804	
-0.415344	
-0.418335	
-0.420715	
-0.424194	
-0.427307	
-0.430969	
-0.433899	
-0.435364	
-0.437195	
-0.440613	
-0.442932	
-0.444824	
-0.448547	
-0.449341	
-0.451538	
-0.452026	
-0.454163	
-0.454712	
-0.453857	
-0.453979	
-0.455627	
-0.456116	
-0.458618	
-0.460388	
-0.459717	
-0.461426	
-0.46228	
-0.463623	
-0.464783	
-0.466125	
-0.467102	
-0.470825	
-0.472656	
-0.473816	
-0.477356	
-0.478821	
-0.481934	
-0.484497	
-0.487793	
-0.490112	
-0.493591	
-0.496582	
-0.500183	
-0.502258	
-0.505066	
-0.507568	
-0.508911	
-0.51239	
-0.514648	
-0.516113	
-0.518555	
-0.520508	
-0.522827	
-0.524048	
-0.526306	
-0.526367	
-0.528564	
-0.528503	
-0.530457	
-0.52948	
-0.529175	
-0.529541	
-0.528442	
-0.528503	
-0.528259	
-0.526306	
-0.524658	
-0.523804	
-0.520386	
-0.519226	
-0.515869	
-0.513367	
-0.510498	
-0.507568	
-0.505188	
-0.502197	
-0.498779	
-0.494934	
-0.492554	
-0.487671	
-0.484192	
-0.479004	
-0.474548	
-0.469727	
-0.464539	
-0.459473	
-0.454895	
-0.450989	
-0.445618	
-0.441162	
-0.434937	
-0.431641	
-0.426941	
-0.421509	
-0.417847	
-0.413208	
-0.409485	
-0.405029	
-0.4021	
-0.397095	
-0.393066	
-0.387451	
-0.383484	
-0.379028	
-0.374329	
-0.369934	
-0.366211	
-0.362366	
-0.358887	
-0.355347	
-0.352539	
-0.349854	
-0.346069	
-0.343506	
-0.34082	
-0.338501	
-0.337463	
-0.335266	
-0.333801	
-0.333496	
-0.333008	
-0.332153	
-0.331543	
-0.33136	
-0.329773	
-0.32843	
-0.328003	
-0.327393	
-0.326172	
-0.325623	
-0.324707	
-0.324951	
-0.324646	
-0.324524	
-0.323425	
-0.32312	
-0.323975	
-0.323975	
-0.324829	
-0.323486	
-0.324585	
-0.325256	
-0.326721	
-0.327454	
-0.328552	
-0.328003	
-0.328857	
-0.329773	
-0.330811	
-0.330933	
-0.332153	
-0.332764	
-0.333069	
-0.335083	
-0.335449	
-0.335266	
-0.335876	
-0.336548	
-0.335266	
-0.337341	
-0.337341	
-0.336426	
-0.338806	
-0.341064	
-0.340454	
-0.342224	
-0.342712	
-0.344421	
-0.344727	
-0.345398	
-0.346375	
-0.347107	
-0.348022	
-0.348511	
-0.350952	
-0.350952	
-0.351868	
-0.351196	
-0.352417	
-0.353149	
-0.354004	
-0.351563	
-0.352905	
-0.353638	
-0.354431	
-0.354309	
-0.353821	
-0.354065	
-0.355042	
-0.355042	
-0.355347	
-0.35614	
-0.355591	
-0.35498	
-0.356323	
-0.357117	
-0.357422	
-0.358765	
-0.358582	
-0.359802	
-0.359131	
-0.359436	
-0.359375	
-0.360046	
-0.360352	
-0.35907	
-0.362305	
-0.362915	
-0.362732	
-0.362	
-0.363098	
-0.362915	
-0.362793	
-0.362671	
-0.363831	
-0.364075	
-0.365112	
-0.364746	
-0.365479	
-0.365662	
-0.365906	
-0.365662	
-0.365479	
-0.365662	
-0.366089	
-0.365234	
-0.365723	
-0.366638	
-0.366272	
-0.366028	
-0.365173	
-0.366455	
-0.365723	
-0.364746	
-0.364746	
-0.364563	
-0.363159	
-0.363464	
-0.365112	
-0.363953	
-0.363831	
-0.363342	
-0.363342	
-0.362549	
-0.361938	
-0.361328	
-0.361877	
-0.360718	
-0.361145	
-0.362244	
-0.360474	
-0.360718	
-0.360535	
-0.36084	
-0.361145	
-0.360107	
-0.358948	
-0.359985	
-0.358337	
-0.359253	
-0.360779	
-0.359802	
-0.359985	
-0.360229	
-0.360046	
-0.360596	
-0.360229	
-0.359131	
-0.360107	
-0.359375	
-0.360901	
-0.361206	
-0.359863	
-0.360596	
-0.360779	
-0.360962	
-0.361755	
-0.361084	
-0.360779	
-0.361694	
-0.360229	
-0.362122	
-0.362061	
-0.362122	
-0.36261	
-0.362854	
-0.362915	
-0.363342	
-0.362366	
-0.361877	
-0.362488	
-0.362671	
-0.36261	
-0.36322	
-0.363098	
-0.362732	
-0.362427	
-0.362915	
-0.363953	
-0.363281	
-0.362488	
-0.363403	
-0.364075	
-0.364197	
-0.364685	
-0.365601	
-0.365356	
-0.365051	
-0.365845	
-0.366882	
-0.36615	
-0.365845	
-0.365906	
-0.366577	
-0.366943	
-0.366943	
-0.366699	
-0.366455	
-0.367493	
-0.368164	
-0.367798	
-0.366272	
-0.366943	
-0.366882	
-0.367371	
-0.367981	
-0.368042	
-0.367615	
-0.368225	
-0.369019	
-0.368958	
-0.371277	
-0.368591	
-0.36908	
-0.368774	
-0.369995	
-0.369995	
-0.370239	
-0.370117	
-0.371033	
-0.372192	
-0.370972	
-0.372742	
-0.370605	
-0.371277	
-0.37085	
-0.371582	
-0.371948	
-0.372498	
-0.372375	
-0.373047	
-0.373108	
-0.371704	
-0.373291	
-0.371033	
-0.37146	
-0.372131	
-0.372192	
-0.372253	
-0.372681	
-0.372314	
-0.372498	
-0.372559	
-0.372009	
-0.372864	
-0.371155	
-0.371826	
-0.370239	
-0.371338	
-0.371521	
-0.37146	
-0.372314	
-0.371399	
-0.371338	
-0.371094	
-0.371033	
-0.369507	
-0.370667	
-0.369568	
-0.37085	
-0.370972	
-0.370544	
-0.371948	
-0.37146	
-0.371216	
-0.372681	
-0.371094	
-0.37085	
-0.371521	
-0.372009	
-0.371826	
-0.371277	
-0.371521	
-0.373413	
-0.373535	
-0.37207	
-0.373962	
-0.370972	
-0.370239	
-0.369141	
-0.369385	
-0.369507	
-0.370056	
-0.370056	
-0.369812	
-0.369568	
-0.368347	
-0.368835	
-0.36792	
-0.368408	
-0.365967	
-0.368225	
-0.368408	
-0.369324	
-0.369202	
-0.369507	
-0.368835	
-0.368591	
-0.368835	
-0.368286	
-0.368774	
-0.367188	
-0.369141	
-0.36853	
-0.368225	
-0.368958	
-0.369202	
-0.368713	
-0.36908	
-0.368958	
-0.367493	
-0.36908	
-0.368347	
-0.369141	
-0.369995	
-0.369446	
-0.370117	
-0.370422	
-0.370056	
-0.370361	
-0.370911	
-0.370239	
-0.370422	
-0.370117	
-0.371277	
-0.371582	
-0.371216	
-0.371582	
-0.372437	
-0.371948	
-0.372131	
-0.372437	
-0.371826	
-0.371216	
-0.371216	
-0.372498	
-0.373108	
-0.374084	
-0.372986	
-0.372864	
-0.37323	
-0.374512	
-0.374207	
-0.372192	
-0.372314	
-0.371521	
-0.372742	
-0.372498	
-0.372498	
-0.372742	
-0.373108	
-0.373352	
-0.37439	
-0.373535	
-0.371338	
-0.373535	
-0.373657	
-0.373047	
-0.373474	
-0.373718	
-0.373657	
-0.374084	
-0.374695	
-0.374146	
-0.374146	
-0.372864	
-0.372864	
-0.373169	
-0.372559	
-0.372864	
-0.373291	
-0.372925	
-0.373291	
-0.373596	
-0.373291	
-0.372498	
-0.371338	
-0.371826	
-0.372437	
-0.372437	
-0.372131	
-0.371643	
-0.371033	
-0.371399	
-0.371948	
-0.371277	
-0.370117	
-0.368835	
-0.368652	
-0.368469	
-0.368103	
-0.368713	
-0.368713	
-0.36969	
-0.369934	
-0.369446	
-0.370117	
-0.36969	
-0.368408	
-0.368286	
-0.369019	
-0.369141	
-0.368835	
-0.368469	
-0.369812	
-0.36969	
-0.369873	
-0.369751	
-0.369812	
-0.36853	
-0.367859	
-0.368652	
-0.367249	
-0.367249	
-0.367493	
-0.368042	
-0.368408	
-0.368408	
-0.368591	
-0.367493	
-0.366516	
-0.365417	
-0.365723	
-0.366089	
-0.366333	
-0.366089	
-0.366211	
-0.366211	
-0.365479	
-0.366821	
-0.365356	
-0.363098	
-0.363464	
-0.364258	
-0.363586	
-0.36438	
-0.365356	
-0.364868	
-0.364136	
-0.365051	
-0.365479	
-0.364624	
-0.363831	
-0.363403	
-0.363464	
-0.363708	
-0.364563	
-0.364868	
-0.365173	
-0.365173	
-0.36615	
-0.367188	
-0.367065	
-0.365906	
-0.364563	
-0.365906	
-0.365479	
-0.365845	
-0.366577	
-0.367065	
-0.367126	
-0.367676	
-0.368225	
-0.367615	
-0.366699	
-0.367004	
-0.366699	
-0.366821	
-0.367432	
-0.368103	
-0.368164	
-0.368896	
-0.369141	
-0.368958	
-0.36792	
-0.36731	
-0.367737	
-0.366943	
-0.366089	
-0.367004	
-0.367249	
-0.366699	
-0.367371	
-0.368286	
-0.369141	
-0.368591	
-0.367249	
-0.367188	
-0.366821	
-0.36615	
-0.367432	
-0.367249	
-0.36853	
-0.368652	
-0.36853	
-0.367859	
-0.368774	
-0.366943	
-0.366638	
-0.366394	
-0.366333	
-0.366882	
-0.366089	
-0.367615	
-0.367737	
-0.367981	
-0.367676	
-0.368835	
-0.366272	
-0.367188	
-0.366699	
-0.367371	
-0.366577	
-0.36676	
-0.366211	
-0.366394	
-0.366394	
-0.366333	
-0.366943	
-0.363831	
-0.365051	
-0.364014	
-0.36438	
-0.364868	
-0.36499	
-0.364563	
-0.365112	
-0.36554	
-0.365051	
-0.365356	
-0.36377	
-0.364258	
-0.363464	
-0.36438	
-0.36438	
-0.364868	
-0.364746	
-0.364807	
-0.36499	
-0.364746	
-0.36554	
-0.363159	
-0.363403	
-0.362061	
-0.362549	
-0.362427	
-0.363037	
-0.363098	
-0.362854	
-0.362793	
-0.363037	
-0.363098	
-0.360657	
-0.361755	
-0.359375	
-0.361023	
-0.361145	
-0.362061	
-0.361084	
-0.361145	
-0.361145	
-0.36145	
-0.362793	
-0.360107	
-0.360657	
-0.359009	
-0.361267	
-0.361511	
-0.361389	
-0.361206	
-0.361511	
-0.36145	
-0.360901	
-0.362	
-0.360352	
-0.361328	
-0.359558	
-0.360413	
-0.361511	
-0.361511	
-0.361572	
-0.362244	
-0.362	
-0.362366	
-0.364014	
-0.362549	
-0.362549	
-0.360901	
-0.359985	
-0.362549	
-0.362305	
-0.362244	
-0.363647	
-0.36322	
-0.362549	
-0.363525	
-0.362854	
-0.362915	
-0.361633	
-0.360596	
-0.362427	
-0.362244	
-0.362183	
-0.362915	
-0.362122	
-0.361877	
-0.362122	
-0.362061	
-0.361389	
-0.362	
-0.361206	
-0.362671	
-0.362854	
-0.362915	
-0.363159	
-0.363647	
-0.364502	
-0.364685	
-0.365295	
-0.364075	
-0.363831	
-0.363098	
-0.364014	
-0.363342	
-0.364075	
-0.364746	
-0.364197	
-0.36499	
-0.365173	
-0.365112	
-0.363037	
-0.363037	
-0.362549	
-0.363159	
-0.363708	
-0.364014	
-0.364868	
-0.363098	
-0.363708	
-0.364136	
-0.364746	
-0.362854	
-0.36322	
-0.363098	
-0.363037	
-0.363464	
-0.36261	
-0.362549	
-0.362244	
-0.362976	
-0.362122	
-0.362854	
-0.361267	
-0.361206	
-0.360413	
-0.360657	
-0.360474	
-0.360779	
-0.360901	
-0.360474	
-0.360657	
-0.359741	
-0.361633	
-0.359436	
-0.359497	
-0.358948	
-0.359253	
-0.359192	
-0.359802	
-0.360046	
-0.359741	
-0.359924	
-0.358337	
-0.359497	
-0.357788	
-0.358276	
-0.357422	
-0.357971	
-0.358398	
-0.359131	
-0.359009	
-0.357788	
-0.359009	
-0.357666	
-0.358948	
-0.357361	
-0.357788	
-0.356323	
-0.355713	
-0.356628	
-0.356995	
-0.356812	
-0.355835	
-0.357544	
-0.356445	
-0.357483	
-0.356628	
-0.356506	
-0.355103	
-0.35553	
-0.356628	
-0.35675	
-0.356506	
-0.356018	
-0.357544	
-0.356628	
-0.357666	
-0.356445	
-0.356384	
-0.35498	
-0.355347	
-0.356323	
-0.357361	
-0.356628	
-0.356567	
-0.358154	
-0.356567	
-0.358643	
-0.359009	
-0.358521	
-0.357422	
-0.357849	
-0.358215	
-0.358459	
-0.358704	
-0.358704	
-0.359497	
-0.358948	
-0.359924	
-0.359192	
-0.358948	
-0.358643	
-0.358154	
-0.358765	
-0.359497	
-0.358948	
-0.358215	
-0.358154	
-0.357727	
-0.358582	
-0.358093	
-0.358276	
-0.357666	
-0.358276	
-0.359192	
-0.358948	
-0.358093	
-0.358337	
-0.359131	
-0.358582	
-0.359619	
-0.358459	
-0.359497	
-0.35907	
-0.35907	
-0.358948	
-0.35907	
-0.358948	
-0.359131	
-0.359436	
-0.360413	
-0.360779	
-0.360413	
-0.360413	
-0.359863	
-0.359802	
-0.360168	
-0.36084	
-0.360291	
-0.360596	
-0.360352	
-0.360535	
-0.360718	
-0.361389	
-0.360291	
-0.359375	
-0.359802	
-0.360413	
-0.360291	
-0.359619	
-0.359375	
-0.358765	
-0.358093	
-0.359314	
-0.35968	
-0.358521	
-0.357117	
-0.356934	
-0.357361	
-0.357361	
-0.357056	
-0.356323	
-0.35675	
-0.356445	
-0.356812	
-0.356689	
-0.356873	
-0.356384	
-0.355164	
-0.356201	
-0.356384	
-0.35614	
-0.355774	
-0.35498	
-0.355164	
-0.35614	
-0.35614	
-0.355652	
-0.354431	
-0.353882	
-0.354736	
-0.356323	
-0.354797	
-0.355347	
-0.354431	
-0.354492	
-0.354614	
-0.35498	
-0.354675	
-0.354248	
-0.35376	
-0.352966	
-0.354553	
-0.353882	
-0.353943	
-0.352905	
-0.353516	
-0.354675	
-0.354492	
-0.354797	
-0.354248	
-0.354431	
-0.353394	
-0.354004	
-0.354248	
-0.354248	
-0.35321	
-0.353516	
-0.354614	
-0.354919	
-0.354614	
-0.352905	
-0.352051	
-0.353088	
-0.354126	
-0.353821	
-0.35437	
-0.353149	
-0.353821	
-0.354187	
-0.354614	
-0.355713	
-0.354919	
-0.354126	
-0.35498	
-0.355103	
-0.354675	
-0.356201	
-0.354919	
-0.35553	
-0.356506	
-0.35614	
-0.355408	
-0.354797	
-0.354919	
-0.355469	
-0.35553	
-0.355652	
-0.356445	
-0.354614	
-0.35498	
-0.35553	
-0.355286	
-0.355835	
-0.355591	
-0.355713	
-0.356323	
-0.356567	
-0.356567	
-0.357056	
-0.356262	
-0.355347	
-0.356445	
-0.357178	
-0.356995	
-0.356689	
-0.35614	
-0.356506	
-0.357117	
-0.357056	
-0.357239	
-0.35675	
-0.356995	
-0.358521	
-0.358276	
-0.357788	
-0.35675	
-0.356689	
-0.356262	
-0.357422	
-0.356812	
-0.357422	
-0.356934	
-0.356628	
-0.357056	
-0.356934	
-0.3573	
-0.355591	
-0.355469	
-0.35614	
-0.356567	
-0.356689	
-0.356262	
-0.354858	
-0.353699	
-0.355225	
-0.35614	
-0.355774	
-0.354248	
-0.353882	
-0.354004	
-0.354797	
-0.354553	
-0.354797	
-0.353882	
-0.352783	
-0.354736	
-0.354736	
-0.354126	
-0.352966	
-0.354187	
-0.354065	
-0.354431	
-0.35437	
-0.355713	
-0.354431	
-0.353516	
-0.354431	
-0.354675	
-0.354858	
-0.354309	
-0.354797	
-0.353943	
-0.354431	
-0.353943	
-0.354309	
-0.353149	
-0.353271	
-0.352722	
-0.352661	
-0.351685	
-0.350464	
-0.351196	
-0.351013	
-0.351318	
-0.351257	
-0.351685	
-0.350159	
-0.351013	
-0.351074	
-0.351624	
-0.351135	
-0.350159	
-0.351135	
-0.351501	
-0.35083	
-0.352234	
-0.351807	
-0.350342	
-0.350708	
-0.351257	
-0.351746	
-0.351501	
-0.350281	
-0.351196	
-0.350891	
-0.350281	
-0.35083	
-0.35199	
-0.350952	
-0.351868	
-0.351318	
-0.351807	
-0.352234	
-0.351807	
-0.352539	
-0.353088	
-0.35321	
-0.353271	
-0.353516	
-0.353088	
-0.353699	
-0.352905	
-0.354431	
-0.354004	
-0.353821	
-0.35437	
-0.354858	
-0.354492	
-0.355225	
-0.35498	
-0.354126	
-0.354736	
-0.354126	
-0.356201	
-0.355225	
-0.355164	
-0.35614	
-0.356323	
-0.354614	
-0.355957	
-0.355957	
-0.354553	
-0.355408	
-0.354858	
-0.35498	
-0.354797	
-0.35498	
-0.355469	
-0.355225	
-0.355408	
-0.356812	
-0.356262	
-0.354858	
-0.355957	
-0.355652	
-0.356506	
-0.356812	
-0.356384	
-0.356628	
-0.356079	
-0.356323	
-0.35614	
-0.356445	
-0.355713	
-0.35614	
-0.355774	
-0.356628	
-0.356689	
-0.356445	
-0.356262	
-0.35498	
-0.355103	
-0.35675	
-0.356567	
-0.355286	
-0.356567	
-0.355042	
-0.355286	
-0.355408	
-0.354797	
-0.354614	
-0.354248	
-0.353821	
-0.354309	
-0.35437	
-0.353577	
-0.353027	
-0.352844	
-0.35498	
-0.354858	
-0.353271	
-0.353149	
-0.353088	
-0.353394	
-0.354553	
-0.354126	
-0.354248	
-0.354553	
-0.353516	
-0.354797	
-0.355896	
-0.355042	
-0.354858	
-0.353882	
-0.35321	
-0.353943	
-0.354065	
-0.353821	
-0.354187	
-0.352661	
-0.35376	
-0.354065	
-0.353699	
-0.353088	
-0.3526	
-0.352844	
-0.35321	
-0.352356	
-0.352966	
-0.353149	
-0.352295	
-0.352173	
-0.352539	
-0.353271	
-0.352051	
-0.351501	
-0.350708	
-0.351868	
-0.351074	
-0.351929	
-0.351257	
-0.351257	
-0.351807	
-0.351929	
-0.351929	
-0.351318	
-0.351868	
-0.351196	
-0.351929	
-0.350464	
-0.352112	
-0.352173	
-0.352539	
-0.352783	
-0.352844	
-0.352661	
-0.35376	
-0.354065	
-0.35321	
-0.354187	
-0.354126	
-0.35437	
-0.353943	
-0.354492	
-0.354614	
-0.355774	
-0.355469	
-0.355042	
-0.355774	
-0.355225	
-0.356506	
-0.356018	
-0.355774	
-0.355652	
-0.356323	
-0.356689	
-0.357422	
-0.357178	
-0.356445	
-0.357361	
-0.356506	
-0.355469	
-0.35553	
-0.355774	
-0.356201	
-0.356506	
-0.356323	
-0.3573	
-0.357056	
-0.356262	
-0.356323	
-0.356445	
-0.355408	
-0.357239	
-0.35791	
-0.358215	
-0.357666	
-0.357422	
-0.357422	
-0.356934	
-0.357117	
-0.356934	
-0.357422	
-0.3573	
-0.357605	
-0.357544	
-0.357971	
-0.356567	
-0.357239	
-0.357849	
	
