E:\DOCUMENTS AND SETTINGS\JPOTAS\MEUS DOCUMENTOS\UFRJ\RSCI-BM 12 WK SERIES\070718-RSCI-BM-03\RSCI-BM-03-REMG\070718-RSCI-BM-03-REMG-0008.ACQ
0.025000 msec/sample
1 channel
Analog input
Volts
CH1	
2000	
-0.394836	
-0.39563	
-0.395874	
-0.396118	
-0.395081	
-0.394897	
-0.393433	
-0.393799	
-0.394897	
-0.395386	
-0.395081	
-0.394958	
-0.394836	
-0.394775	
-0.395996	
-0.39447	
-0.393188	
-0.392761	
-0.393372	
-0.393799	
-0.394531	
-0.394287	
-0.394531	
-0.39447	
-0.394226	
-0.394897	
-0.39325	
-0.392395	
-0.391907	
-0.392639	
-0.393127	
-0.393188	
-0.392334	
-0.392517	
-0.392883	
-0.392944	
-0.393982	
-0.393066	
-0.391846	
-0.392395	
-0.392212	
-0.392151	
-0.392334	
-0.392822	
-0.392639	
-0.3927	
-0.393982	
-0.393799	
-0.393127	
-0.392212	
-0.392273	
-0.391785	
-0.392151	
-0.391968	
-0.392151	
-0.392151	
-0.391785	
-0.392029	
-0.3927	
-0.391663	
-0.391724	
-0.391174	
-0.391357	
-0.392456	
-0.393127	
-0.392395	
-0.391968	
-0.392578	
-0.391846	
-0.393311	
-0.393494	
-0.393555	
-0.392944	
-0.393311	
-0.392517	
-0.393555	
-0.393982	
-0.393738	
-0.392944	
-0.393066	
-0.395142	
-0.394714	
-0.394714	
-0.392639	
-0.393127	
-0.393555	
-0.394348	
-0.394653	
-0.393799	
-0.393616	
-0.392639	
-0.39386	
-0.394653	
-0.393677	
-0.392334	
-0.393799	
-0.394165	
-0.39502	
-0.395752	
-0.395142	
-0.395813	
-0.394714	
-0.396606	
-0.396667	
-0.396484	
-0.395386	
-0.395813	
-0.397217	
-0.397705	
-0.397827	
-0.397217	
-0.3974	
-0.396667	
-0.397644	
-0.397156	
-0.396362	
-0.395447	
-0.394958	
-0.396729	
-0.396606	
-0.39801	
-0.396301	
-0.396179	
-0.396362	
-0.397827	
-0.396851	
-0.396423	
-0.396484	
-0.395569	
-0.39624	
-0.394714	
-0.396851	
-0.396912	
-0.39563	
-0.39563	
-0.396667	
-0.396423	
-0.396301	
-0.396851	
-0.394226	
-0.394409	
-0.39447	
-0.395874	
-0.395508	
-0.395081	
-0.39447	
-0.39502	
-0.395386	
-0.395142	
-0.395081	
-0.393738	
-0.394836	
-0.394043	
-0.393494	
-0.39325	
-0.393433	
-0.393311	
-0.392578	
-0.393127	
-0.392822	
-0.393005	
-0.390869	
-0.392334	
-0.392761	
-0.393433	
-0.392761	
-0.391968	
-0.392395	
-0.393372	
-0.39386	
-0.392883	
-0.392029	
-0.391052	
-0.392517	
-0.392273	
-0.392151	
-0.391602	
-0.391541	
-0.392273	
-0.391296	
-0.392578	
-0.391907	
-0.392334	
-0.391541	
-0.391663	
-0.392273	
-0.391357	
-0.392456	
-0.391968	
-0.39209	
-0.392334	
-0.393555	
-0.392883	
-0.392273	
-0.393494	
-0.391479	
-0.393066	
-0.364136	
-0.370789	
-0.376343	
-0.377991	
-0.379517	
-0.380737	
-0.413757	
-0.402893	
-0.398499	
-0.395264	
-0.39563	
-0.39563	
-0.395996	
-0.395447	
-0.395874	
-0.39624	
-0.396484	
-0.39679	
-0.396606	
-0.395996	
-0.393921	
-0.393738	
-0.394897	
-0.393494	
-0.393555	
-0.393616	
-0.393311	
-0.393982	
-0.394348	
-0.39386	
-0.393494	
-0.392761	
-0.391602	
-0.393433	
-0.393677	
-0.393372	
-0.393066	
-0.393799	
-0.393982	
-0.394531	
-0.39447	
-0.394958	
-0.394592	
-0.394836	
-0.396423	
-0.396484	
-0.396179	
-0.3974	
-0.39801	
-0.398071	
-0.398132	
-0.399414	
-0.398254	
-0.398376	
-0.398315	
-0.399475	
-0.398682	
-0.399963	
-0.399109	
-0.399292	
-0.39978	
-0.39978	
-0.40033	
-0.399597	
-0.399719	
-0.397644	
-0.399536	
-0.399536	
-0.400024	
-0.399231	
-0.399963	
-0.399719	
-0.399109	
-0.399902	
-0.399109	
-0.398743	
-0.397339	
-0.396851	
-0.396118	
-0.396423	
-0.39563	
-0.394653	
-0.39563	
-0.395325	
-0.394653	
-0.393433	
-0.393616	
-0.391724	
-0.390198	
-0.391541	
-0.391907	
-0.391418	
-0.390381	
-0.392151	
-0.392639	
-0.393555	
-0.393982	
-0.394531	
-0.394592	
-0.394043	
-0.396912	
-0.398743	
-0.399597	
-0.401062	
-0.403381	
-0.404846	
-0.408997	
-0.411438	
-0.412415	
-0.413574	
-0.416687	
-0.421021	
-0.424438	
-0.426758	
-0.430359	
-0.433899	
-0.437988	
-0.441101	
-0.442505	
-0.44635	
-0.448425	
-0.452026	
-0.453735	
-0.456665	
-0.459045	
-0.461853	
-0.463684	
-0.464905	
-0.465881	
-0.466003	
-0.467834	
-0.466675	
-0.469482	
-0.46875	
-0.470032	
-0.470581	
-0.471252	
-0.47113	
-0.472107	
-0.473572	
-0.472107	
-0.473022	
-0.470825	
-0.472412	
-0.471558	
-0.472412	
-0.472778	
-0.47345	
-0.474548	
-0.476685	
-0.478821	
-0.479004	
-0.481079	
-0.482056	
-0.485352	
-0.487	
-0.489929	
-0.491577	
-0.495483	
-0.497986	
-0.500549	
-0.50415	
-0.505249	
-0.508118	
-0.509399	
-0.514099	
-0.514954	
-0.517456	
-0.519409	
-0.522827	
-0.525391	
-0.52771	
-0.531067	
-0.531921	
-0.533691	
-0.534546	
-0.537415	
-0.536133	
-0.538208	
-0.53894	
-0.539917	
-0.540161	
-0.54126	
-0.541504	
-0.539917	
-0.539063	
-0.536804	
-0.536194	
-0.531799	
-0.530701	
-0.52832	
-0.525391	
-0.521912	
-0.519836	
-0.517639	
-0.511963	
-0.507019	
-0.502319	
-0.499146	
-0.492432	
-0.489441	
-0.485046	
-0.479919	
-0.475159	
-0.470947	
-0.467468	
-0.461731	
-0.457642	
-0.453125	
-0.449158	
-0.442017	
-0.438416	
-0.433289	
-0.428894	
-0.424988	
-0.421082	
-0.417603	
-0.413574	
-0.409912	
-0.404175	
-0.401428	
-0.396118	
-0.391907	
-0.38855	
-0.384033	
-0.38031	
-0.377502	
-0.374512	
-0.369995	
-0.366943	
-0.362549	
-0.359802	
-0.3573	
-0.354004	
-0.351135	
-0.347961	
-0.344849	
-0.342651	
-0.340332	
-0.337646	
-0.337524	
-0.334839	
-0.332947	
-0.332581	
-0.333069	
-0.331848	
-0.331482	
-0.331543	
-0.332947	
-0.332947	
-0.332458	
-0.333801	
-0.332397	
-0.333252	
-0.333069	
-0.333801	
-0.334412	
-0.335693	
-0.336792	
-0.338135	
-0.339783	
-0.339294	
-0.340576	
-0.339294	
-0.342407	
-0.342773	
-0.342834	
-0.342896	
-0.34552	
-0.346191	
-0.348145	
-0.348022	
-0.348572	
-0.348206	
-0.348633	
-0.350952	
-0.349854	
-0.350708	
-0.350891	
-0.35144	
-0.33844	
-0.327637	
-0.332825	
-0.334839	
-0.335388	
-0.337891	
-0.367859	
-0.363342	
-0.359253	
-0.357483	
-0.359192	
-0.361328	
-0.359741	
-0.359985	
-0.359924	
-0.361694	
-0.361755	
-0.361938	
-0.361511	
-0.36261	
-0.362793	
-0.363098	
-0.364807	
-0.363525	
-0.363953	
-0.364075	
-0.365784	
-0.366333	
-0.365112	
-0.366577	
-0.367004	
-0.367554	
-0.369263	
-0.369812	
-0.369446	
-0.3703	
-0.370361	
-0.371582	
-0.372375	
-0.371338	
-0.372925	
-0.372131	
-0.373535	
-0.375671	
-0.374207	
-0.374512	
-0.373962	
-0.374512	
-0.374878	
-0.374695	
-0.374695	
-0.374512	
-0.373962	
-0.375977	
-0.377075	
-0.375916	
-0.375977	
-0.374695	
-0.375977	
-0.376526	
-0.375854	
-0.376526	
-0.376648	
-0.376648	
-0.377747	
-0.378479	
-0.377625	
-0.378296	
-0.377747	
-0.379333	
-0.381104	
-0.378845	
-0.379211	
-0.379517	
-0.378784	
-0.380005	
-0.380615	
-0.378601	
-0.378113	
-0.377869	
-0.377686	
-0.377869	
-0.377136	
-0.376648	
-0.376526	
-0.376282	
-0.376587	
-0.377441	
-0.376404	
-0.37561	
-0.375	
-0.375671	
-0.376526	
-0.37677	
-0.377136	
-0.376282	
-0.37793	
-0.379517	
-0.379089	
-0.379456	
-0.380554	
-0.381775	
-0.38324	
-0.384949	
-0.387024	
-0.388672	
-0.391418	
-0.394409	
-0.397583	
-0.399597	
-0.402527	
-0.404236	
-0.407104	
-0.411865	
-0.414734	
-0.416687	
-0.419983	
-0.423828	
-0.427612	
-0.430725	
-0.432556	
-0.436035	
-0.43927	
-0.441467	
-0.442871	
-0.444214	
-0.44574	
-0.448059	
-0.449097	
-0.450378	
-0.449829	
-0.449036	
-0.448547	
-0.449768	
-0.450684	
-0.450562	
-0.450928	
-0.451111	
-0.451599	
-0.452881	
-0.454224	
-0.453552	
-0.454773	
-0.455933	
-0.458496	
-0.460938	
-0.462891	
-0.465576	
-0.467407	
-0.470581	
-0.473938	
-0.478699	
-0.480408	
-0.483582	
-0.485657	
-0.489868	
-0.49292	
-0.495605	
-0.497986	
-0.50116	
-0.503967	
-0.507568	
-0.51123	
-0.512329	
-0.513977	
-0.514282	
-0.517883	
-0.518555	
-0.519897	
-0.520935	
-0.522888	
-0.523071	
-0.52301	
-0.522766	
-0.52179	
-0.520142	
-0.516602	
-0.517761	
-0.515747	
-0.513428	
-0.509949	
-0.508606	
-0.504456	
-0.502319	
-0.499817	
-0.495972	
-0.491699	
-0.486694	
-0.485168	
-0.481384	
-0.47821	
-0.472473	
-0.469666	
-0.465149	
-0.460571	
-0.456177	
-0.449585	
-0.443665	
-0.437622	
-0.433716	
-0.429749	
-0.424622	
-0.417603	
-0.41394	
-0.408752	
-0.403625	
-0.400452	
-0.394592	
-0.389709	
-0.384399	
-0.382202	
-0.378357	
-0.374878	
-0.36969	
-0.366577	
-0.362671	
-0.357849	
-0.355225	
-0.351685	
-0.347961	
-0.343445	
-0.342102	
-0.338989	
-0.336548	
-0.334412	
-0.333679	
-0.330627	
-0.330139	
-0.331787	
-0.328552	
-0.327271	
-0.326965	
-0.327698	
-0.326904	
-0.326721	
-0.325928	
-0.327209	
-0.326782	
-0.326599	
-0.327209	
-0.3255	
-0.325928	
-0.323608	
-0.32605	
-0.325012	
-0.324158	
-0.321899	
-0.32428	
-0.325073	
-0.325867	
-0.32666	
-0.326965	
-0.327698	
-0.328186	
-0.330444	
-0.330811	
-0.331177	
-0.33136	
-0.333496	
-0.334167	
-0.335815	
-0.335449	
-0.336731	
-0.336914	
-0.33844	
-0.338623	
-0.33844	
-0.338867	
-0.3396	
-0.339905	
-0.340759	
-0.342468	
-0.340637	
-0.341125	
-0.340149	
-0.344238	
-0.343018	
-0.344177	
-0.344482	
-0.345337	
-0.346436	
-0.34845	
-0.348022	
-0.348755	
-0.349487	
-0.349976	
-0.350586	
-0.351807	
-0.352722	
-0.351379	
-0.353821	
-0.355103	
-0.356873	
-0.354675	
-0.355835	
-0.355896	
-0.357666	
-0.358154	
-0.358826	
-0.357971	
-0.358215	
-0.358704	
-0.359253	
-0.360168	
-0.359375	
-0.360107	
-0.359253	
-0.363159	
-0.361084	
-0.361023	
-0.361023	
-0.362061	
-0.362122	
-0.36438	
-0.363342	
-0.363403	
-0.363708	
-0.363525	
-0.365356	
-0.365173	
-0.365295	
-0.363098	
-0.365479	
-0.366028	
-0.36792	
-0.366211	
-0.365845	
-0.364441	
-0.366943	
-0.367615	
-0.366882	
-0.366455	
-0.367065	
-0.367371	
-0.368225	
-0.367859	
-0.367554	
-0.366882	
-0.366516	
-0.367798	
-0.367554	
-0.367676	
-0.367371	
-0.366272	
-0.366028	
-0.367371	
-0.367004	
-0.36615	
-0.364441	
-0.363831	
-0.365173	
-0.365112	
-0.364746	
-0.364624	
-0.364868	
-0.364746	
-0.365662	
-0.36499	
-0.363892	
-0.363464	
-0.363342	
-0.364014	
-0.363098	
-0.363708	
-0.363342	
-0.36261	
-0.362427	
-0.363586	
-0.362183	
-0.362427	
-0.36145	
-0.360718	
-0.362915	
-0.362305	
-0.362122	
-0.361267	
-0.362366	
-0.362183	
-0.36438	
-0.362427	
-0.361877	
-0.362305	
-0.36377	
-0.364502	
-0.363098	
-0.363403	
-0.363098	
-0.363647	
-0.364014	
-0.36554	
-0.363892	
-0.365356	
-0.364563	
-0.365967	
-0.366943	
-0.365906	
-0.366333	
-0.365845	
-0.367065	
-0.367126	
-0.368225	
-0.366882	
-0.366333	
-0.365479	
-0.366943	
-0.367004	
-0.365784	
-0.365234	
-0.363525	
-0.36438	
-0.365479	
-0.365051	
-0.364136	
-0.363464	
-0.36261	
-0.363831	
-0.363159	
-0.36322	
-0.36377	
-0.36261	
-0.363586	
-0.363403	
-0.364319	
-0.364502	
-0.364868	
-0.363403	
-0.364929	
-0.365234	
-0.365601	
-0.366516	
-0.36554	
-0.366272	
-0.36792	
-0.369141	
-0.369141	
-0.369446	
-0.36792	
-0.369629	
-0.370972	
-0.370544	
-0.370911	
-0.370789	
-0.370605	
-0.371643	
-0.373047	
-0.37207	
-0.37146	
-0.371155	
-0.372131	
-0.372742	
-0.371948	
-0.371765	
-0.37146	
-0.37085	
-0.371887	
-0.372314	
-0.371704	
-0.371765	
-0.370178	
-0.370422	
-0.371765	
-0.372253	
-0.371643	
-0.371033	
-0.370483	
-0.371399	
-0.371704	
-0.370422	
-0.37085	
-0.370483	
-0.370422	
-0.370605	
-0.370178	
-0.369446	
-0.370056	
-0.368958	
-0.369141	
-0.368774	
-0.367981	
-0.36731	
-0.367432	
-0.366882	
-0.367188	
-0.366882	
-0.366699	
-0.366394	
-0.365967	
-0.367371	
-0.368225	
-0.366699	
-0.365784	
-0.365967	
-0.366028	
-0.36676	
-0.367188	
-0.366211	
-0.366455	
-0.367126	
-0.368164	
-0.368164	
-0.36792	
-0.367859	
-0.367676	
-0.36792	
-0.368958	
-0.370178	
-0.369263	
-0.368958	
-0.369324	
-0.370239	
-0.369873	
-0.368896	
-0.368774	
-0.36792	
-0.370117	
-0.369507	
-0.369507	
-0.368713	
-0.369446	
-0.369446	
-0.370483	
-0.368835	
-0.36853	
-0.368835	
-0.369507	
-0.370667	
-0.370605	
-0.371033	
-0.370239	
-0.370667	
-0.370361	
-0.371155	
-0.371033	
-0.370422	
-0.369324	
-0.370911	
-0.371216	
-0.37085	
-0.372131	
-0.37207	
-0.372192	
-0.372437	
-0.372559	
-0.371948	
-0.371338	
-0.369446	
-0.371338	
-0.370972	
-0.371765	
-0.372681	
-0.372192	
-0.372681	
-0.372559	
-0.372192	
-0.372375	
-0.372681	
-0.371765	
-0.372131	
-0.372192	
-0.372559	
-0.372681	
-0.371643	
-0.373108	
-0.373901	
-0.373047	
-0.372375	
-0.371887	
-0.372864	
-0.372742	
-0.372498	
-0.372864	
-0.373474	
-0.37262	
-0.372375	
-0.374084	
-0.373718	
-0.373718	
-0.373657	
-0.373901	
-0.374023	
-0.372986	
-0.374451	
-0.374634	
-0.374268	
-0.373535	
-0.375549	
-0.373474	
-0.374023	
-0.373962	
-0.374146	
-0.373718	
-0.372498	
-0.373596	
-0.373169	
-0.372253	
-0.372009	
-0.374939	
-0.37207	
-0.372437	
-0.372314	
-0.372253	
-0.37262	
-0.372681	
-0.37323	
-0.373413	
-0.373657	
-0.372803	
-0.37439	
-0.372131	
-0.373169	
-0.37262	
-0.373901	
-0.373657	
-0.37323	
-0.37384	
-0.374084	
-0.374146	
-0.372864	
-0.373779	
-0.372864	
-0.373169	
-0.373901	
-0.372498	
-0.371948	
-0.371765	
-0.371765	
-0.370728	
-0.370117	
-0.370544	
-0.370972	
-0.368958	
-0.370117	
-0.370972	
-0.370422	
-0.370972	
-0.370178	
-0.370728	
-0.371094	
-0.370178	
-0.370544	
-0.371033	
-0.369995	
-0.369751	
-0.37085	
-0.370544	
-0.371094	
-0.370544	
-0.370361	
-0.37085	
-0.370483	
-0.3703	
-0.36969	
-0.369873	
-0.369568	
-0.370239	
-0.370544	
-0.370239	
-0.370605	
-0.370178	
-0.371094	
-0.370972	
-0.371948	
-0.370117	
-0.370544	
-0.369812	
-0.371033	
-0.371765	
-0.371399	
-0.371216	
-0.371277	
-0.371521	
-0.371094	
-0.372131	
-0.370972	
-0.371338	
-0.371277	
-0.372131	
-0.373413	
-0.37262	
-0.373413	
-0.373657	
-0.373901	
-0.37323	
-0.374146	
-0.37262	
-0.370911	
-0.370972	
-0.372192	
-0.372742	
-0.371826	
-0.372253	
-0.371826	
-0.372253	
-0.372559	
-0.371399	
-0.371948	
-0.371521	
-0.371521	
-0.372009	
-0.373291	
-0.371765	
-0.372314	
-0.372314	
-0.37262	
-0.373047	
-0.37207	
-0.372437	
-0.372192	
-0.371094	
-0.370483	
-0.372314	
-0.371399	
-0.371094	
-0.371399	
-0.370728	
-0.371643	
-0.370789	
-0.371277	
-0.369568	
-0.369446	
-0.369019	
-0.370239	
-0.369202	
-0.368408	
-0.36853	
-0.368652	
-0.36908	
-0.367371	
-0.368225	
-0.367371	
-0.366394	
-0.36615	
-0.367554	
-0.36676	
-0.367126	
-0.367432	
-0.366638	
-0.368469	
-0.368225	
-0.368469	
-0.367126	
-0.367737	
-0.367065	
-0.368713	
-0.368469	
-0.369019	
-0.369385	
-0.369263	
-0.369995	
-0.367798	
-0.369446	
-0.369385	
-0.369995	
-0.368896	
-0.369385	
-0.368774	
-0.368408	
-0.368591	
-0.367554	
-0.368591	
-0.368042	
-0.368835	
-0.367432	
-0.367371	
-0.36554	
-0.366028	
-0.364441	
-0.364807	
-0.36554	
-0.363464	
-0.364319	
-0.36322	
-0.363647	
-0.362915	
-0.362915	
-0.361633	
-0.362549	
-0.362244	
-0.362793	
-0.363586	
-0.361328	
-0.362366	
-0.361694	
-0.362732	
-0.361877	
-0.361572	
-0.361877	
-0.363159	
-0.363953	
-0.363098	
-0.362732	
-0.362732	
-0.363831	
-0.362976	
-0.363708	
-0.364136	
-0.363281	
-0.363342	
-0.363953	
-0.364502	
-0.364197	
-0.365051	
-0.364563	
-0.364929	
-0.364624	
-0.365234	
-0.365051	
-0.363708	
-0.365601	
-0.366333	
-0.368103	
-0.367798	
-0.367981	
-0.36676	
-0.368225	
-0.368469	
-0.367676	
-0.367676	
-0.367188	
-0.368469	
-0.368652	
-0.370056	
-0.369568	
-0.369812	
-0.368896	
-0.36908	
-0.368835	
-0.368652	
-0.368225	
-0.367737	
-0.368469	
-0.368103	
-0.368347	
-0.367981	
-0.367432	
-0.366638	
-0.367371	
-0.367126	
-0.366699	
-0.36615	
-0.365295	
-0.366394	
-0.366333	
-0.367371	
-0.366699	
-0.366455	
-0.366333	
-0.367981	
-0.367737	
-0.367065	
-0.365845	
-0.366394	
-0.36792	
-0.367371	
-0.367554	
-0.366699	
-0.366882	
-0.366516	
-0.366821	
-0.366699	
-0.365723	
-0.366089	
-0.365417	
-0.36615	
-0.366089	
-0.365906	
-0.365601	
-0.366821	
-0.365479	
-0.364807	
-0.366272	
-0.364136	
-0.363525	
-0.363159	
-0.364746	
-0.364563	
-0.364258	
-0.364624	
-0.365173	
-0.364746	
-0.364197	
-0.365112	
-0.363464	
-0.36322	
-0.361633	
-0.363159	
-0.36322	
-0.363403	
-0.363708	
-0.363953	
-0.362549	
-0.361755	
-0.364258	
-0.362854	
-0.362671	
-0.359924	
-0.362427	
-0.362427	
-0.363403	
-0.362732	
-0.362122	
-0.362305	
-0.362122	
-0.363647	
-0.362061	
-0.362366	
-0.35968	
-0.362	
-0.361877	
-0.36145	
-0.36145	
-0.36261	
-0.361755	
-0.360168	
-0.361267	
-0.361145	
-0.360962	
-0.358337	
-0.360046	
-0.360962	
-0.361877	
-0.361633	
-0.361755	
-0.362061	
-0.361328	
-0.362549	
-0.362061	
-0.361816	
-0.36084	
-0.362244	
-0.362793	
-0.362427	
-0.362305	
-0.362305	
-0.361572	
-0.361267	
-0.36322	
-0.362305	
-0.362488	
-0.361816	
-0.360962	
-0.362122	
-0.362915	
-0.362549	
-0.362061	
-0.361694	
-0.36145	
-0.36261	
-0.361938	
-0.361511	
-0.36084	
-0.360657	
-0.362366	
-0.362061	
-0.361572	
-0.364319	
-0.363342	
-0.363464	
-0.36438	
-0.364136	
-0.362976	
-0.363159	
-0.363037	
-0.364624	
-0.365051	
-0.364624	
-0.364441	
-0.364624	
-0.364746	
-0.364441	
-0.364563	
-0.363037	
-0.362976	
-0.362549	
-0.364258	
-0.364258	
-0.363342	
-0.363647	
-0.363403	
-0.363159	
-0.364319	
-0.363281	
-0.361633	
-0.362427	
-0.362976	
-0.363647	
-0.36377	
-0.363464	
-0.363525	
-0.362732	
-0.362427	
-0.36377	
-0.362854	
-0.36145	
-0.362122	
-0.361694	
-0.361572	
-0.362854	
-0.361084	
-0.361816	
-0.361755	
-0.361938	
-0.362366	
-0.361755	
-0.360352	
-0.359985	
-0.359619	
-0.360168	
-0.360962	
-0.360596	
-0.360229	
-0.35907	
-0.359131	
-0.359436	
-0.358887	
-0.357178	
-0.357666	
-0.358154	
-0.359314	
-0.358887	
-0.358459	
-0.359009	
-0.358337	
-0.358215	
-0.359558	
-0.35968	
-0.3573	
-0.357056	
-0.35791	
-0.358032	
-0.358093	
-0.3573	
-0.358154	
-0.357788	
-0.357117	
-0.358032	
-0.358398	
-0.356079	
-0.356384	
-0.3573	
-0.357605	
-0.357849	
-0.35791	
-0.358887	
-0.357849	
-0.35675	
-0.358154	
-0.358459	
-0.357239	
-0.35791	
-0.357971	
-0.358643	
-0.359192	
-0.358337	
-0.359558	
-0.359558	
-0.359497	
-0.360291	
-0.360535	
-0.359375	
-0.359314	
-0.359619	
-0.361084	
-0.361511	
-0.360901	
-0.362122	
-0.362305	
-0.361877	
-0.361877	
-0.361084	
-0.361267	
-0.360352	
-0.359558	
-0.360657	
-0.359863	
-0.359375	
-0.360718	
-0.359009	
-0.358521	
-0.359924	
-0.358704	
-0.358093	
-0.357727	
-0.356812	
-0.357117	
-0.357788	
-0.358154	
-0.358887	
-0.358765	
-0.358032	
-0.358459	
-0.359131	
-0.358154	
-0.356628	
-0.356995	
-0.359436	
-0.360168	
-0.360413	
-0.361023	
-0.360962	
-0.359558	
-0.360229	
-0.362183	
-0.361267	
-0.35968	
-0.362	
-0.363098	
-0.363098	
-0.363464	
-0.362427	
-0.362854	
-0.36145	
-0.361938	
-0.363159	
-0.362793	
-0.361938	
-0.362793	
-0.362183	
-0.362183	
-0.362671	
-0.361389	
-0.362183	
-0.361206	
-0.360474	
-0.361084	
-0.36084	
-0.359924	
-0.360107	
-0.360596	
-0.361023	
-0.361206	
-0.360107	
-0.359802	
-0.358521	
-0.358887	
-0.359924	
-0.359436	
-0.358948	
-0.358459	
-0.358704	
-0.358398	
-0.358398	
-0.358826	
-0.357849	
-0.356262	
-0.355713	
-0.356934	
-0.356262	
-0.355835	
-0.355225	
-0.354919	
-0.355347	
-0.355713	
-0.355591	
-0.354858	
-0.354309	
-0.354492	
-0.35553	
-0.354309	
-0.354553	
-0.354492	
-0.354614	
-0.353882	
-0.355103	
-0.356018	
-0.355774	
-0.354797	
-0.355042	
-0.355469	
-0.355042	
-0.356018	
-0.35614	
-0.35675	
-0.356506	
-0.356262	
-0.356812	
-0.356384	
-0.355286	
-0.355225	
-0.355591	
-0.355042	
-0.355286	
-0.355408	
-0.355103	
-0.354614	
-0.356079	
-0.356384	
-0.356384	
-0.355103	
-0.355103	
-0.355164	
-0.355225	
-0.355774	
-0.35614	
-0.355774	
-0.355957	
-0.356812	
-0.356934	
-0.356689	
-0.356628	
-0.35614	
-0.356079	
-0.357849	
-0.357422	
-0.357239	
-0.35675	
-0.357361	
-0.358093	
-0.358215	
-0.358093	
-0.357361	
-0.357666	
-0.356628	
-0.3573	
-0.357544	
-0.358032	
-0.356995	
-0.358337	
-0.358765	
-0.359375	
-0.358398	
-0.358032	
-0.357788	
-0.358582	
-0.358826	
-0.35791	
-0.357971	
-0.357361	
-0.358215	
-0.359253	
-0.359253	
-0.358215	
-0.357544	
-0.357788	
-0.357971	
-0.358643	
-0.356934	
-0.357727	
-0.357971	
-0.359192	
-0.358948	
-0.35907	
-0.35907	
-0.358887	
-0.358521	
-0.357483	
-0.359863	
-0.358398	
-0.359558	
-0.359192	
-0.35968	
-0.360046	
-0.359802	
-0.358948	
-0.358398	
-0.359009	
-0.3573	
-0.359192	
-0.357788	
-0.357178	
-0.357422	
-0.358154	
-0.358582	
-0.358765	
-0.358093	
-0.357544	
-0.357666	
-0.356567	
-0.357178	
-0.356628	
-0.357544	
-0.357849	
-0.35791	
-0.359253	
-0.358521	
-0.357605	
-0.357483	
-0.357666	
-0.356689	
-0.358337	
-0.357849	
-0.357971	
-0.358215	
-0.358093	
-0.359253	
-0.358215	
-0.357666	
-0.357117	
-0.35614	
-0.355042	
-0.356079	
-0.355652	
-0.355469	
-0.355652	
-0.354919	
-0.356201	
-0.354248	
-0.355408	
-0.354797	
-0.353394	
-0.353088	
-0.355164	
-0.35376	
-0.354919	
-0.355225	
-0.354492	
-0.355713	
-0.355591	
-0.35614	
-0.354919	
-0.355591	
-0.354431	
-0.35553	
-0.354553	
-0.35553	
-0.35614	
-0.355408	
-0.355408	
-0.354431	
-0.355103	
-0.354492	
-0.355286	
-0.355408	
-0.355469	
-0.355042	
-0.356445	
-0.355469	
-0.355957	
-0.356995	
-0.356384	
-0.3573	
-0.356323	
-0.355896	
-0.355957	
-0.356995	
-0.355835	
-0.356628	
-0.357056	
-0.358093	
-0.358948	
-0.35791	
-0.358521	
-0.357971	
-0.358398	
-0.359741	
-0.360352	
-0.358215	
-0.359436	
-0.359436	
-0.359741	
-0.361267	
-0.360657	
-0.360596	
-0.359314	
-0.358032	
-0.358948	
-0.359802	
-0.358704	
-0.35907	
-0.359314	
-0.359985	
-0.36084	
-0.360046	
-0.361084	
-0.359619	
-0.358521	
-0.360474	
-0.360962	
-0.360229	
-0.360291	
-0.360962	
-0.360718	
-0.361267	
-0.361084	
-0.361328	
-0.360779	
-0.359192	
-0.360596	
-0.360962	
-0.359863	
-0.360168	
-0.359863	
-0.359375	
-0.360779	
-0.360168	
-0.359741	
-0.359375	
-0.358032	
-0.358521	
-0.360046	
-0.358398	
-0.358032	
-0.357666	
-0.358215	
-0.358215	
-0.357605	
-0.358704	
-0.35791	
-0.355408	
-0.356079	
-0.357483	
-0.357605	
-0.35791	
-0.357666	
-0.357971	
-0.358887	
-0.358521	
-0.359619	
-0.358521	
-0.357361	
-0.358643	
-0.359192	
-0.359436	
-0.359924	
-0.359192	
-0.360657	
-0.361511	
-0.360229	
-0.360474	
-0.359802	
-0.360413	
-0.360474	
-0.359497	
-0.359741	
-0.359741	
-0.360229	
-0.360046	
-0.359985	
-0.359375	
-0.360168	
-0.358643	
-0.358215	
-0.357605	
-0.357605	
-0.357056	
-0.356812	
-0.356262	
-0.356323	
-0.356323	
-0.355774	
-0.35614	
-0.354004	
-0.355103	
-0.354797	
-0.355835	
-0.354858	
-0.355347	
-0.355103	
-0.35553	
-0.356079	
-0.355713	
-0.356445	
-0.355103	
-0.355957	
-0.355896	
-0.356995	
-0.357117	
-0.356873	
-0.356262	
-0.357361	
-0.358093	
-0.357971	
-0.358704	
-0.357422	
-0.358215	
-0.357788	
-0.359497	
-0.358704	
-0.358154	
-0.358765	
-0.360718	
-0.360229	
-0.359741	
-0.360291	
-0.35907	
-0.360229	
-0.359985	
-0.362305	
-0.362305	
-0.362427	
-0.362305	
-0.363831	
-0.364136	
-0.363403	
-0.363037	
-0.362549	
-0.363342	
-0.36322	
-0.365051	
-0.364136	
-0.364136	
-0.364075	
-0.36438	
-0.364746	
-0.365051	
-0.364502	
-0.362793	
-0.363098	
-0.363953	
-0.364929	
-0.363586	
-0.363464	
-0.362976	
-0.363892	
-0.363403	
-0.363098	
-0.362854	
-0.362793	
-0.362793	
-0.362915	
-0.364258	
-0.363586	
-0.36261	
-0.36322	
-0.36499	
-0.365173	
-0.364929	
-0.364441	
-0.362671	
-0.363159	
-0.364624	
-0.364563	
-0.364258	
	
