E:\DOCUMENTS AND SETTINGS\JPOTAS\MEUS DOCUMENTOS\UFRJ\RSCI-BM 12 WK SERIES\070718-RSCI-BM-03\RSCI-BM-03-REMG\070718-RSCI-BM-03-REMG-0000.ACQ
0.025000 msec/sample
1 channel
Analog input
Volts
CH1	
2000	
-0.396118	
-0.395386	
-0.394348	
-0.394165	
-0.394592	
-0.394531	
-0.395203	
-0.394043	
-0.395325	
-0.394531	
-0.394409	
-0.393982	
-0.394043	
-0.395447	
-0.39386	
-0.393555	
-0.393494	
-0.394104	
-0.39386	
-0.392944	
-0.392151	
-0.392395	
-0.391418	
-0.39209	
-0.3927	
-0.391602	
-0.391113	
-0.392029	
-0.392944	
-0.392883	
-0.392517	
-0.393494	
-0.394348	
-0.394165	
-0.39563	
-0.39624	
-0.395447	
-0.395508	
-0.395752	
-0.394226	
-0.39502	
-0.395142	
-0.395386	
-0.395752	
-0.395386	
-0.39563	
-0.396667	
-0.397278	
-0.395264	
-0.394531	
-0.394226	
-0.393982	
-0.394165	
-0.393127	
-0.393494	
-0.393738	
-0.394043	
-0.392944	
-0.392517	
-0.392456	
-0.392578	
-0.392395	
-0.391724	
-0.392883	
-0.392029	
-0.391724	
-0.392822	
-0.392944	
-0.392578	
-0.394409	
-0.395142	
-0.394409	
-0.394714	
-0.39386	
-0.394836	
-0.394104	
-0.391907	
-0.393616	
-0.394592	
-0.394653	
-0.393433	
-0.393799	
-0.393311	
-0.393799	
-0.393738	
-0.391907	
-0.392334	
-0.392273	
-0.392395	
-0.391785	
-0.392029	
-0.392761	
-0.39325	
-0.392395	
-0.392395	
-0.391663	
-0.391479	
-0.393005	
-0.392944	
-0.391113	
-0.3927	
-0.392822	
-0.39209	
-0.3927	
-0.393005	
-0.391968	
-0.391846	
-0.392395	
-0.389465	
-0.391541	
-0.391785	
-0.392029	
-0.39209	
-0.391357	
-0.391113	
-0.391113	
-0.390808	
-0.389771	
-0.389893	
-0.389648	
-0.390137	
-0.390503	
-0.389526	
-0.390442	
-0.389709	
-0.389771	
-0.389893	
-0.389465	
-0.38916	
-0.38855	
-0.38855	
-0.387939	
-0.389221	
-0.387756	
-0.390381	
-0.390625	
-0.390564	
-0.391418	
-0.391907	
-0.392212	
-0.392029	
-0.392639	
-0.391907	
-0.392761	
-0.391907	
-0.390503	
-0.391907	
-0.392395	
-0.392517	
-0.392578	
-0.393066	
-0.392029	
-0.391052	
-0.391174	
-0.390381	
-0.389771	
-0.390198	
-0.390503	
-0.390625	
-0.389954	
-0.390259	
-0.389648	
-0.388428	
-0.388611	
-0.388062	
-0.388245	
-0.388733	
-0.387695	
-0.387024	
-0.388245	
-0.387939	
-0.388916	
-0.387939	
-0.387878	
-0.387573	
-0.388245	
-0.387756	
-0.388306	
-0.388062	
-0.387634	
-0.388184	
-0.388916	
-0.389709	
-0.389404	
-0.390564	
-0.388794	
-0.389221	
-0.388611	
-0.387512	
-0.38739	
-0.388367	
-0.387329	
-0.387756	
-0.388916	
-0.389099	
-0.388245	
-0.387634	
-0.359741	
-0.364624	
-0.372314	
-0.375	
-0.375427	
-0.37439	
-0.411987	
-0.399231	
-0.392822	
-0.390442	
-0.389648	
-0.389771	
-0.388672	
-0.386169	
-0.388245	
-0.388367	
-0.388184	
-0.389282	
-0.389465	
-0.389221	
-0.388184	
-0.390137	
-0.388916	
-0.387634	
-0.388	
-0.387817	
-0.387756	
-0.38855	
-0.389587	
-0.389404	
-0.388306	
-0.389832	
-0.389709	
-0.389099	
-0.388794	
-0.389404	
-0.387451	
-0.388184	
-0.389648	
-0.38916	
-0.389832	
-0.389343	
-0.390381	
-0.390198	
-0.391602	
-0.391724	
-0.391846	
-0.391663	
-0.393311	
-0.393127	
-0.392456	
-0.393066	
-0.394348	
-0.394165	
-0.393616	
-0.39447	
-0.392761	
-0.391113	
-0.392517	
-0.390503	
-0.389465	
-0.390076	
-0.391296	
-0.389954	
-0.389221	
-0.390259	
-0.390442	
-0.391479	
-0.390625	
-0.390808	
-0.390381	
-0.39032	
-0.391479	
-0.389526	
-0.390381	
-0.391724	
-0.392639	
-0.391113	
-0.391663	
-0.391541	
-0.391357	
-0.391602	
-0.39093	
-0.390991	
-0.391235	
-0.392029	
-0.393127	
-0.393494	
-0.3927	
-0.393982	
-0.393921	
-0.394348	
-0.394409	
-0.394165	
-0.394836	
-0.396973	
-0.396973	
-0.398376	
-0.399841	
-0.400146	
-0.4021	
-0.403625	
-0.404663	
-0.405518	
-0.407776	
-0.407898	
-0.410278	
-0.413147	
-0.416016	
-0.417542	
-0.418579	
-0.422852	
-0.424866	
-0.426514	
-0.429626	
-0.431946	
-0.432678	
-0.434692	
-0.43634	
-0.438416	
-0.441162	
-0.440491	
-0.442139	
-0.444214	
-0.44397	
-0.44397	
-0.446228	
-0.444641	
-0.444702	
-0.446045	
-0.445679	
-0.445313	
-0.443848	
-0.442017	
-0.440369	
-0.438354	
-0.436523	
-0.435791	
-0.433167	
-0.432434	
-0.430115	
-0.427734	
-0.425842	
-0.423096	
-0.42041	
-0.417603	
-0.414795	
-0.413025	
-0.411133	
-0.409424	
-0.410034	
-0.409729	
-0.409241	
-0.409607	
-0.410461	
-0.410339	
-0.411438	
-0.411194	
-0.412109	
-0.412476	
-0.412903	
-0.415344	
-0.415771	
-0.416748	
-0.419739	
-0.419922	
-0.420898	
-0.423462	
-0.422485	
-0.424683	
-0.427307	
-0.428467	
-0.429138	
-0.432251	
-0.434387	
-0.43689	
-0.439697	
-0.441162	
-0.443665	
-0.446533	
-0.447388	
-0.448364	
-0.450684	
-0.450867	
-0.452942	
-0.453125	
-0.454407	
-0.455811	
-0.455383	
-0.4552	
-0.454773	
-0.453491	
-0.451111	
-0.449585	
-0.446716	
-0.445984	
-0.444092	
-0.441284	
-0.439453	
-0.435852	
-0.432495	
-0.430115	
-0.42572	
-0.422729	
-0.419556	
-0.4151	
-0.412048	
-0.408203	
-0.405029	
-0.402588	
-0.400452	
-0.397278	
-0.395935	
-0.394409	
-0.392212	
-0.389404	
-0.386169	
-0.382568	
-0.381836	
-0.377747	
-0.375732	
-0.37323	
-0.370178	
-0.367737	
-0.365051	
-0.360474	
-0.3573	
-0.354675	
-0.351318	
-0.348816	
-0.346497	
-0.344971	
-0.342529	
-0.340027	
-0.337341	
-0.335022	
-0.331726	
-0.329285	
-0.325928	
-0.322266	
-0.321167	
-0.319031	
-0.318787	
-0.318054	
-0.317688	
-0.317322	
-0.318176	
-0.316772	
-0.317078	
-0.317505	
-0.317139	
-0.318665	
-0.31958	
-0.319885	
-0.322754	
-0.324219	
-0.325745	
-0.327576	
-0.327698	
-0.327637	
-0.327942	
-0.329529	
-0.332153	
-0.333374	
-0.334595	
-0.337097	
-0.338074	
-0.340332	
-0.342468	
-0.34259	
-0.343628	
-0.343506	
-0.343201	
-0.345032	
-0.345215	
-0.345642	
-0.346619	
-0.346924	
-0.34668	
-0.347107	
-0.346313	
-0.346558	
-0.346558	
-0.347717	
-0.348816	
-0.349609	
-0.34967	
-0.351257	
-0.35083	
-0.352478	
-0.353455	
-0.352722	
-0.353943	
-0.354492	
-0.355164	
-0.356323	
-0.35614	
-0.357239	
-0.358154	
-0.358276	
-0.35968	
-0.360535	
-0.360962	
-0.360535	
-0.360718	
-0.361145	
-0.362671	
-0.362854	
-0.363159	
-0.363586	
-0.364197	
-0.36499	
-0.364441	
-0.365112	
-0.365234	
-0.364624	
-0.366394	
-0.36676	
-0.366516	
-0.367432	
-0.366943	
-0.368042	
-0.369141	
-0.368286	
-0.368896	
-0.369019	
-0.36969	
-0.371216	
-0.371277	
-0.371765	
-0.373047	
-0.371643	
-0.372131	
-0.37439	
-0.372925	
-0.373047	
-0.373169	
-0.373718	
-0.37323	
-0.373352	
-0.373901	
-0.374084	
-0.373596	
-0.374207	
-0.376465	
-0.374756	
-0.374817	
-0.374817	
-0.377319	
-0.37677	
-0.376099	
-0.377014	
-0.376282	
-0.37616	
-0.377441	
-0.377441	
-0.376709	
-0.377136	
-0.375916	
-0.376648	
-0.377502	
-0.377747	
-0.377625	
-0.377197	
-0.377441	
-0.377869	
-0.37793	
-0.37677	
-0.377869	
-0.377625	
-0.37677	
-0.378418	
-0.378235	
-0.377441	
-0.375732	
-0.377258	
-0.376709	
-0.376282	
-0.37616	
-0.374512	
-0.373596	
-0.373718	
-0.37262	
-0.371826	
-0.371643	
-0.371155	
-0.372253	
-0.370483	
-0.371338	
-0.371094	
-0.371399	
-0.371826	
-0.372437	
-0.372131	
-0.372498	
-0.373596	
-0.37323	
-0.373596	
-0.373901	
-0.375305	
-0.375671	
-0.375488	
-0.374695	
-0.375305	
-0.376099	
-0.376709	
-0.376465	
-0.377258	
-0.37854	
-0.378357	
-0.378418	
-0.377686	
-0.378113	
-0.377686	
-0.377197	
-0.377197	
-0.377869	
-0.37793	
-0.378662	
-0.378662	
-0.377991	
-0.378601	
-0.377502	
-0.376587	
-0.37793	
-0.377502	
-0.376282	
-0.376404	
-0.377258	
-0.377319	
-0.376953	
-0.37738	
-0.37793	
-0.378296	
-0.377686	
-0.377625	
-0.377502	
-0.377014	
-0.377075	
-0.377197	
-0.377808	
-0.377258	
-0.377319	
-0.376831	
-0.377502	
-0.377075	
-0.376099	
-0.375488	
-0.374939	
-0.374939	
-0.375061	
-0.375122	
-0.375977	
-0.376709	
-0.375549	
-0.376038	
-0.376953	
-0.377686	
-0.376709	
-0.377808	
-0.377441	
-0.376831	
-0.378601	
-0.379456	
-0.378845	
-0.378174	
-0.379028	
-0.378052	
-0.378723	
-0.378052	
-0.377686	
-0.37854	
-0.378784	
-0.377747	
-0.379639	
-0.378906	
-0.379272	
-0.378845	
-0.377502	
-0.379028	
-0.378845	
-0.378906	
-0.378418	
-0.377502	
-0.377258	
-0.378723	
-0.378601	
-0.378357	
-0.378113	
-0.376709	
-0.376709	
-0.377991	
-0.37677	
-0.376038	
-0.375488	
-0.375244	
-0.377075	
-0.377441	
-0.377258	
-0.378784	
-0.379089	
-0.378601	
-0.379822	
-0.38031	
-0.379272	
-0.379883	
-0.379395	
-0.38092	
-0.380432	
-0.380798	
-0.380493	
-0.381409	
-0.380615	
-0.380005	
-0.380676	
-0.380493	
-0.379639	
-0.377502	
-0.379395	
-0.379822	
-0.380676	
-0.380066	
-0.379028	
-0.378174	
-0.378845	
-0.379211	
-0.377258	
-0.37677	
-0.37738	
-0.378174	
-0.377502	
-0.378479	
-0.378601	
-0.377075	
-0.377014	
-0.378601	
-0.378906	
-0.378479	
-0.37854	
-0.37915	
-0.379578	
-0.380127	
-0.380066	
-0.380188	
-0.380249	
-0.380188	
-0.381165	
-0.381042	
-0.379761	
-0.378906	
-0.378845	
-0.378418	
-0.379333	
-0.379822	
-0.378662	
-0.379456	
-0.378845	
-0.378174	
-0.377747	
-0.378967	
-0.378601	
-0.376343	
-0.377136	
-0.378601	
-0.378357	
-0.37854	
-0.379395	
-0.378357	
-0.377441	
-0.378174	
-0.378296	
-0.377502	
-0.377258	
-0.376709	
-0.377563	
-0.376892	
-0.377136	
-0.378235	
-0.377563	
-0.375793	
-0.377014	
-0.377136	
-0.37561	
-0.374939	
-0.374512	
-0.374451	
-0.375488	
-0.376038	
-0.375549	
-0.375732	
-0.374939	
-0.375	
-0.374207	
-0.373291	
-0.373413	
-0.372864	
-0.372131	
-0.373474	
-0.37384	
-0.372437	
-0.373901	
-0.373291	
-0.373474	
-0.372742	
-0.373108	
-0.372437	
-0.373657	
-0.374451	
-0.374084	
-0.374817	
-0.375671	
-0.37616	
-0.374573	
-0.373474	
-0.374939	
-0.37616	
-0.376343	
-0.375061	
-0.375183	
-0.37384	
-0.373657	
-0.374939	
-0.374512	
-0.373108	
-0.372559	
-0.373169	
-0.373169	
-0.373413	
-0.370789	
-0.370056	
-0.369385	
-0.370605	
-0.370972	
-0.371155	
-0.370056	
-0.369568	
-0.368591	
-0.369019	
-0.369507	
-0.368835	
-0.368958	
-0.367615	
-0.367371	
-0.368164	
-0.368774	
-0.367981	
-0.367188	
-0.365845	
-0.367859	
-0.368958	
-0.369019	
-0.368042	
-0.367126	
-0.367615	
-0.367432	
-0.368347	
-0.367554	
-0.366272	
-0.366943	
-0.36676	
-0.367065	
-0.366821	
-0.366028	
-0.365417	
-0.365417	
-0.365662	
-0.367615	
-0.367798	
-0.366211	
-0.36615	
-0.364685	
-0.366394	
-0.367371	
-0.367371	
-0.366638	
-0.366394	
-0.365601	
-0.366455	
-0.367859	
-0.366089	
-0.366638	
-0.366516	
-0.36676	
-0.365112	
-0.36615	
-0.364868	
-0.364807	
-0.365051	
-0.365845	
-0.365906	
-0.364807	
-0.366577	
-0.364624	
-0.364075	
-0.365662	
-0.365723	
-0.364441	
-0.365173	
-0.364441	
-0.363098	
-0.364929	
-0.365784	
-0.364746	
-0.364624	
-0.364014	
-0.36499	
-0.365784	
-0.365784	
-0.364563	
-0.364746	
-0.364624	
-0.367004	
-0.369202	
-0.368164	
-0.368408	
-0.368591	
-0.369019	
-0.369629	
-0.370239	
-0.368225	
-0.368896	
-0.369385	
-0.369568	
-0.369568	
-0.368469	
-0.368225	
-0.367859	
-0.367981	
-0.368225	
-0.367432	
-0.366272	
-0.367249	
-0.36615	
-0.36554	
-0.365845	
-0.366028	
-0.365112	
-0.365601	
-0.364746	
-0.365601	
-0.366638	
-0.366882	
-0.36615	
-0.364929	
-0.365723	
-0.36676	
-0.368042	
-0.367493	
-0.36731	
-0.366272	
-0.36731	
-0.368896	
-0.368652	
-0.366699	
-0.368164	
-0.368896	
-0.369751	
-0.370972	
-0.369934	
-0.369507	
-0.369812	
-0.371094	
-0.370605	
-0.370422	
-0.369446	
-0.370056	
-0.370728	
-0.369629	
-0.37146	
-0.371155	
-0.370361	
-0.370667	
-0.371277	
-0.372437	
-0.371826	
-0.371643	
-0.37207	
-0.371826	
-0.371887	
-0.372192	
-0.373535	
-0.37384	
-0.37323	
-0.371521	
-0.373352	
-0.374573	
-0.374084	
-0.372131	
-0.372253	
-0.373291	
-0.37323	
-0.373779	
-0.372375	
-0.371765	
-0.370911	
-0.37262	
-0.373413	
-0.372498	
-0.370422	
-0.372253	
-0.371948	
-0.37207	
-0.373413	
-0.372742	
-0.373169	
-0.372803	
-0.374207	
-0.373718	
-0.373352	
-0.371826	
-0.372375	
-0.372742	
-0.373718	
-0.375	
-0.374878	
-0.374756	
-0.374634	
-0.374207	
-0.375549	
-0.375671	
-0.374878	
-0.37616	
-0.375549	
-0.377014	
-0.378418	
-0.378906	
-0.378418	
-0.378601	
-0.378723	
-0.379272	
-0.379395	
-0.377014	
-0.377563	
-0.376953	
-0.376526	
-0.377441	
-0.377014	
-0.375061	
-0.374695	
-0.375793	
-0.375549	
-0.375977	
-0.374695	
-0.375122	
-0.374817	
-0.374634	
-0.375	
-0.375061	
-0.375	
-0.375	
-0.375549	
-0.375488	
-0.377075	
-0.375916	
-0.376404	
-0.377319	
-0.37616	
-0.377014	
-0.37738	
-0.378235	
-0.378479	
-0.37854	
-0.377563	
-0.378967	
-0.378906	
-0.37854	
-0.378357	
-0.377747	
-0.379395	
-0.379517	
-0.379517	
-0.378479	
-0.378174	
-0.377441	
-0.377625	
-0.377075	
-0.377625	
-0.377075	
-0.376892	
-0.379333	
-0.379395	
-0.378418	
-0.377563	
-0.378784	
-0.379089	
-0.379272	
-0.379028	
-0.378662	
-0.379456	
-0.380005	
-0.380188	
-0.381165	
-0.382019	
-0.381714	
-0.380615	
-0.38031	
-0.381653	
-0.380554	
-0.380249	
-0.380798	
-0.380493	
-0.378418	
-0.379944	
-0.380737	
-0.379761	
-0.380432	
-0.380188	
-0.38092	
-0.380737	
-0.381714	
-0.381226	
-0.381165	
-0.380798	
-0.381409	
-0.38208	
-0.381775	
-0.381775	
-0.380981	
-0.382019	
-0.382202	
-0.384033	
-0.383362	
-0.382324	
-0.383179	
-0.38269	
-0.382507	
-0.38269	
-0.383972	
-0.382385	
-0.383728	
-0.384399	
-0.385071	
-0.384644	
-0.38446	
-0.384216	
-0.382751	
-0.385071	
-0.383728	
-0.383972	
-0.383179	
-0.38324	
-0.38269	
-0.38208	
-0.382385	
-0.380127	
-0.381287	
-0.381104	
-0.382263	
-0.382874	
-0.38208	
-0.381165	
-0.380615	
-0.380127	
-0.38092	
-0.38208	
-0.381165	
-0.382019	
-0.382019	
-0.383667	
-0.383911	
-0.38324	
-0.382813	
-0.383301	
-0.384094	
-0.384094	
-0.384216	
-0.383667	
-0.385071	
-0.384827	
-0.383789	
-0.385254	
-0.387024	
-0.386414	
-0.384644	
-0.385376	
-0.386047	
-0.385864	
-0.385986	
-0.385376	
-0.385742	
-0.384949	
-0.385437	
-0.386292	
-0.384949	
-0.383545	
-0.383484	
-0.38446	
-0.38501	
-0.38446	
-0.384216	
-0.384827	
-0.385254	
-0.386353	
-0.385986	
-0.384949	
-0.385437	
-0.385254	
-0.385376	
-0.386597	
-0.386536	
-0.385193	
-0.384827	
-0.384583	
-0.384399	
-0.385681	
-0.384399	
-0.38446	
-0.38385	
-0.384338	
-0.38446	
-0.383606	
-0.383484	
-0.384521	
-0.384766	
-0.384094	
-0.384277	
-0.382874	
-0.384094	
-0.382874	
-0.384216	
-0.384644	
-0.38501	
-0.384888	
-0.384399	
-0.38446	
-0.38385	
-0.384583	
-0.385071	
-0.384521	
-0.383118	
-0.38208	
-0.383972	
-0.383484	
-0.384644	
-0.384583	
-0.383911	
-0.383728	
-0.384766	
-0.384705	
-0.383484	
-0.383484	
-0.383301	
-0.38324	
-0.382996	
-0.383606	
-0.381409	
-0.382324	
-0.380981	
-0.380493	
-0.381165	
-0.379333	
-0.379395	
-0.377686	
-0.379822	
-0.379822	
-0.380737	
-0.379272	
-0.380127	
-0.380615	
-0.380066	
-0.382446	
-0.381653	
-0.381165	
-0.380554	
-0.380798	
-0.382629	
-0.382935	
-0.382324	
-0.381958	
-0.382263	
-0.383118	
-0.38446	
-0.384338	
-0.383179	
-0.382996	
-0.381287	
-0.382507	
-0.383301	
-0.382996	
-0.382019	
-0.381897	
-0.381897	
-0.382019	
-0.383545	
-0.381348	
-0.380554	
-0.378967	
-0.381409	
-0.380554	
-0.380371	
-0.379944	
-0.378601	
-0.379395	
-0.378479	
-0.380432	
-0.379089	
-0.37854	
-0.378296	
-0.37915	
-0.379456	
-0.37915	
-0.378845	
-0.378479	
-0.378845	
-0.379517	
-0.381042	
-0.379944	
-0.378479	
-0.378052	
-0.376709	
-0.378418	
-0.378113	
-0.377136	
-0.377075	
-0.377625	
-0.377258	
-0.377808	
-0.378113	
-0.37793	
-0.377869	
-0.376282	
-0.378784	
-0.378662	
-0.377563	
-0.377258	
-0.378052	
-0.37915	
-0.379517	
-0.381714	
-0.378906	
-0.378113	
-0.377502	
-0.380249	
-0.379639	
-0.379578	
-0.378601	
-0.378418	
-0.379456	
-0.379517	
-0.381348	
-0.378784	
-0.377625	
-0.377502	
-0.378723	
-0.379028	
-0.379333	
-0.37854	
-0.377808	
-0.378418	
-0.378174	
-0.378723	
-0.377991	
-0.376709	
-0.375793	
-0.376038	
-0.377136	
-0.376282	
-0.375366	
-0.373657	
-0.375122	
-0.374634	
-0.375427	
-0.376038	
-0.374573	
-0.374023	
-0.374451	
-0.376404	
-0.376404	
-0.376526	
-0.376526	
-0.376526	
-0.377197	
-0.378052	
-0.378906	
-0.377625	
-0.378174	
-0.377625	
-0.378967	
-0.37793	
-0.377625	
-0.377502	
-0.377075	
-0.377014	
-0.377563	
-0.378662	
-0.377625	
-0.376587	
-0.375	
-0.376282	
-0.376221	
-0.374817	
-0.375183	
-0.374756	
-0.375305	
-0.37439	
-0.374756	
-0.374268	
-0.373413	
-0.371826	
-0.372253	
-0.374023	
-0.373901	
-0.373291	
-0.372925	
-0.373535	
-0.374329	
-0.374268	
-0.375244	
-0.374939	
-0.374268	
-0.374084	
-0.375488	
-0.376526	
-0.374939	
-0.372681	
-0.373596	
-0.375366	
-0.374756	
-0.374512	
-0.372986	
-0.372192	
-0.372375	
-0.373596	
-0.373718	
-0.372314	
-0.371094	
-0.371582	
-0.371826	
-0.37323	
-0.373291	
-0.372498	
-0.371277	
-0.371582	
-0.371155	
-0.372375	
-0.372009	
-0.371643	
-0.37262	
-0.371155	
-0.373108	
-0.372681	
-0.372375	
-0.371521	
-0.372559	
-0.371338	
-0.370544	
-0.371582	
-0.370239	
-0.370422	
-0.370483	
-0.371399	
-0.370422	
-0.371521	
-0.370239	
-0.369751	
-0.369568	
-0.369324	
-0.36908	
-0.368591	
-0.368347	
-0.369263	
-0.369751	
-0.368896	
-0.3703	
-0.368469	
-0.368164	
-0.368835	
-0.366516	
-0.367188	
-0.367004	
-0.365906	
-0.36853	
-0.370117	
-0.369995	
-0.370056	
-0.370239	
-0.369934	
-0.370056	
-0.370361	
-0.371033	
-0.37146	
-0.370972	
-0.370361	
-0.370239	
-0.370178	
-0.369141	
-0.371399	
-0.370605	
-0.369751	
-0.368591	
-0.369507	
-0.369629	
-0.368469	
-0.367676	
-0.367126	
-0.368896	
-0.368347	
-0.368469	
-0.367371	
-0.366882	
-0.366333	
-0.366455	
-0.366516	
-0.365845	
-0.365173	
-0.366211	
-0.366211	
-0.366089	
-0.365356	
-0.364746	
-0.365662	
-0.365173	
-0.363831	
-0.366211	
-0.366394	
-0.366394	
-0.36554	
-0.365906	
-0.366028	
-0.366394	
-0.366455	
-0.366516	
-0.366882	
-0.366028	
-0.367554	
-0.366394	
-0.365051	
-0.364929	
-0.36554	
-0.366089	
-0.365845	
-0.366455	
-0.36615	
-0.364807	
-0.364868	
-0.365845	
-0.365601	
-0.365723	
-0.365417	
-0.366333	
-0.36615	
-0.366516	
-0.36615	
-0.366455	
-0.366882	
-0.366028	
-0.366699	
-0.36554	
-0.364685	
-0.364197	
-0.365295	
-0.365417	
-0.364746	
-0.365479	
-0.366028	
-0.365479	
-0.365112	
-0.365417	
-0.366272	
-0.364868	
-0.365356	
-0.36499	
-0.364746	
-0.365601	
-0.364868	
-0.366211	
-0.364624	
-0.365723	
-0.364624	
-0.365662	
-0.365662	
-0.365845	
-0.365173	
-0.365784	
-0.366699	
-0.364807	
-0.367004	
-0.366211	
-0.366333	
-0.366638	
-0.369629	
-0.368713	
-0.368347	
-0.368713	
-0.36908	
-0.36908	
-0.369629	
-0.37146	
-0.370178	
-0.369263	
-0.36853	
-0.369019	
-0.367493	
-0.367554	
-0.368225	
-0.367004	
-0.366821	
-0.367188	
-0.366638	
-0.365601	
-0.365479	
-0.365479	
-0.364624	
-0.365601	
-0.36499	
-0.364197	
-0.364014	
-0.364685	
-0.364136	
-0.365112	
-0.366455	
-0.365479	
-0.365234	
-0.364502	
-0.365723	
-0.365601	
-0.365662	
-0.364685	
-0.36676	
-0.365967	
-0.366211	
-0.368408	
-0.367493	
-0.367126	
-0.366943	
-0.368713	
-0.368286	
-0.368347	
-0.367615	
-0.36853	
-0.368103	
-0.367432	
-0.368835	
-0.367615	
-0.367554	
-0.367676	
-0.368591	
-0.368408	
-0.36853	
-0.369263	
-0.367065	
-0.367859	
-0.368774	
-0.370056	
-0.369019	
-0.36908	
-0.369385	
-0.369324	
-0.369751	
-0.369812	
-0.370178	
-0.369446	
-0.368774	
-0.36853	
-0.369507	
-0.369019	
-0.368042	
-0.366943	
-0.367981	
-0.368408	
-0.367798	
-0.367249	
-0.36615	
-0.365967	
-0.366516	
-0.366089	
-0.367249	
-0.366943	
-0.366699	
-0.366272	
-0.365601	
-0.36676	
-0.366699	
-0.365967	
-0.366089	
-0.366272	
-0.366089	
-0.368164	
-0.368347	
-0.367432	
-0.367249	
-0.366272	
-0.366638	
-0.367676	
-0.366943	
-0.366272	
-0.367554	
-0.367737	
-0.369751	
-0.3703	
-0.369446	
-0.369446	
-0.370667	
-0.37085	
-0.370117	
-0.371155	
-0.369751	
-0.369568	
-0.3703	
-0.36969	
-0.36792	
-0.369141	
-0.368164	
-0.366516	
-0.367859	
-0.367188	
-0.366333	
-0.36615	
-0.366455	
-0.365906	
-0.366028	
-0.365723	
-0.365417	
-0.365967	
-0.365601	
-0.364868	
-0.366211	
-0.36676	
-0.366394	
-0.365784	
-0.36615	
-0.366821	
-0.368164	
-0.368164	
-0.367493	
-0.368347	
-0.368103	
-0.368042	
-0.367981	
-0.367798	
-0.367798	
-0.369263	
-0.368103	
-0.369507	
-0.370178	
-0.368591	
-0.368774	
-0.367859	
-0.367981	
-0.367615	
-0.368042	
-0.366577	
-0.366821	
-0.366882	
-0.36792	
-0.36853	
-0.367126	
-0.366638	
-0.368164	
-0.368896	
-0.368469	
-0.368225	
-0.367249	
-0.368225	
-0.368652	
-0.368652	
-0.369629	
-0.370239	
-0.369507	
-0.369568	
-0.370544	
-0.370178	
-0.370178	
-0.36853	
-0.369141	
-0.369507	
-0.369507	
-0.369812	
-0.369385	
-0.368958	
-0.368408	
-0.368164	
-0.369202	
-0.370056	
-0.367981	
-0.36853	
-0.368896	
-0.368347	
-0.369324	
-0.370728	
-0.369141	
-0.369019	
-0.371399	
-0.369873	
-0.370544	
-0.370911	
-0.36969	
-0.3703	
-0.369263	
-0.3703	
-0.371277	
-0.371948	
-0.371399	
-0.371826	
-0.371521	
-0.37207	
-0.372498	
-0.370667	
-0.371582	
-0.371033	
-0.371338	
-0.371399	
-0.372498	
-0.371826	
-0.372498	
-0.373474	
-0.371826	
-0.371582	
-0.368652	
-0.369873	
-0.368835	
-0.369751	
-0.36969	
-0.370239	
-0.369324	
-0.368713	
-0.36853	
-0.367065	
-0.369812	
-0.369446	
-0.369934	
-0.369141	
-0.370117	
-0.370117	
-0.371094	
-0.370972	
-0.370544	
-0.371582	
-0.372009	
-0.372559	
-0.371277	
-0.370911	
-0.372192	
-0.372314	
-0.371887	
-0.372681	
-0.37439	
-0.373291	
-0.373047	
-0.373474	
-0.374268	
-0.373657	
-0.371887	
-0.373413	
-0.373779	
-0.373169	
-0.373596	
-0.373779	
-0.373291	
-0.372437	
-0.372131	
-0.373169	
-0.373047	
-0.371887	
-0.371338	
-0.373047	
-0.372559	
-0.373047	
-0.373474	
-0.372559	
-0.373047	
-0.37323	
-0.372742	
-0.373291	
-0.373535	
-0.372192	
-0.372375	
-0.373352	
-0.374084	
-0.373718	
-0.374084	
-0.373291	
-0.372864	
-0.373657	
-0.371704	
-0.371582	
-0.370422	
-0.372375	
-0.371582	
-0.371399	
-0.372375	
-0.373047	
-0.372375	
-0.373169	
-0.373657	
-0.372253	
-0.372803	
-0.37207	
-0.371399	
-0.372009	
-0.372742	
-0.373291	
-0.373657	
-0.372681	
-0.372681	
-0.372803	
-0.371582	
-0.373352	
-0.371521	
-0.370667	
-0.373169	
-0.372253	
-0.37262	
-0.373535	
-0.373535	
-0.37207	
-0.372314	
-0.37262	
-0.371948	
-0.371704	
-0.370789	
-0.371155	
-0.371094	
-0.37146	
-0.3703	
-0.370361	
-0.369385	
-0.369812	
-0.369751	
-0.36792	
-0.368591	
-0.36731	
-0.368164	
-0.369385	
-0.369812	
-0.36969	
-0.370789	
-0.370972	
-0.370178	
-0.37085	
-0.371155	
-0.371033	
-0.37085	
-0.371826	
-0.37207	
-0.372192	
-0.37262	
-0.373413	
-0.372986	
-0.372864	
-0.373413	
-0.371826	
-0.373169	
-0.371704	
-0.37085	
-0.372009	
-0.37262	
-0.372375	
-0.372131	
-0.373047	
-0.372192	
-0.372192	
-0.371094	
-0.370667	
-0.3703	
-0.369385	
-0.370056	
-0.36969	
-0.369995	
-0.371094	
-0.371155	
-0.369141	
-0.370239	
-0.3703	
-0.369446	
-0.368896	
-0.369202	
-0.369995	
-0.36969	
-0.369995	
-0.370239	
-0.370911	
-0.369568	
-0.370239	
-0.369629	
-0.368896	
-0.369202	
-0.368774	
-0.367737	
-0.369629	
-0.369385	
-0.368042	
-0.369812	
-0.370056	
-0.369202	
-0.368469	
-0.368164	
-0.369019	
-0.369141	
-0.367554	
-0.369446	
-0.370605	
-0.369934	
-0.371216	
-0.372437	
-0.370605	
-0.370483	
-0.370789	
-0.370911	
-0.370056	
-0.370422	
-0.371033	
-0.371155	
	
