E:\DOCUMENTS AND SETTINGS\JPOTAS\MEUS DOCUMENTOS\UFRJ\RSCI-BM 12 WK SERIES\070718-RSCI-BM-03\RSCI-BM-03-REMG\070718-RSCI-BM-03-REMG-0007.ACQ
0.025000 msec/sample
1 channel
Analog input
Volts
CH1	
2000	
-0.39447	
-0.394104	
-0.393799	
-0.394043	
-0.393188	
-0.39325	
-0.392517	
-0.391418	
-0.3927	
-0.39325	
-0.392395	
-0.3927	
-0.39209	
-0.392883	
-0.392456	
-0.392578	
-0.392883	
-0.392578	
-0.391724	
-0.392883	
-0.392822	
-0.392944	
-0.393188	
-0.392517	
-0.393127	
-0.392944	
-0.393494	
-0.39325	
-0.393677	
-0.393005	
-0.39386	
-0.392578	
-0.393066	
-0.392578	
-0.392273	
-0.392822	
-0.393066	
-0.394775	
-0.393616	
-0.393188	
-0.393494	
-0.394287	
-0.392944	
-0.393066	
-0.393433	
-0.393127	
-0.393738	
-0.393616	
-0.394531	
-0.394043	
-0.394226	
-0.393738	
-0.394592	
-0.394592	
-0.394836	
-0.393982	
-0.39386	
-0.394714	
-0.394775	
-0.395508	
-0.395203	
-0.396118	
-0.395508	
-0.396912	
-0.396423	
-0.395935	
-0.39502	
-0.396179	
-0.395996	
-0.395813	
-0.396729	
-0.396729	
-0.39624	
-0.396606	
-0.397705	
-0.396118	
-0.395996	
-0.395447	
-0.39563	
-0.394531	
-0.394714	
-0.393433	
-0.393738	
-0.394104	
-0.39325	
-0.393494	
-0.393555	
-0.392273	
-0.39209	
-0.392883	
-0.391296	
-0.392456	
-0.391663	
-0.392212	
-0.392517	
-0.39325	
-0.3927	
-0.393005	
-0.392883	
-0.393921	
-0.394653	
-0.392944	
-0.39447	
-0.394958	
-0.395142	
-0.395142	
-0.396912	
-0.39563	
-0.395874	
-0.397034	
-0.396362	
-0.397217	
-0.396973	
-0.396667	
-0.396423	
-0.39801	
-0.397766	
-0.398438	
-0.397949	
-0.398438	
-0.399841	
-0.398438	
-0.398682	
-0.39856	
-0.398315	
-0.398071	
-0.399475	
-0.398376	
-0.398621	
-0.397827	
-0.397949	
-0.398376	
-0.398926	
-0.398621	
-0.397888	
-0.397888	
-0.398743	
-0.398132	
-0.398132	
-0.398682	
-0.398132	
-0.397766	
-0.3974	
-0.396912	
-0.398071	
-0.398254	
-0.396423	
-0.396484	
-0.396545	
-0.39624	
-0.396362	
-0.397705	
-0.397095	
-0.396851	
-0.395996	
-0.395752	
-0.396301	
-0.395508	
-0.396057	
-0.396301	
-0.39679	
-0.396729	
-0.397156	
-0.397339	
-0.396851	
-0.396606	
-0.395264	
-0.396973	
-0.397461	
-0.397095	
-0.397339	
-0.3974	
-0.396912	
-0.397461	
-0.398621	
-0.3974	
-0.397827	
-0.396851	
-0.397949	
-0.397644	
-0.397888	
-0.3974	
-0.396912	
-0.396057	
-0.397095	
-0.3974	
-0.396118	
-0.396179	
-0.395691	
-0.39563	
-0.394104	
-0.393616	
-0.394165	
-0.39447	
-0.39386	
-0.394104	
-0.394165	
-0.364746	
-0.370483	
-0.375916	
-0.378296	
-0.379028	
-0.379944	
-0.414185	
-0.40271	
-0.396729	
-0.395935	
-0.394104	
-0.395203	
-0.395935	
-0.394165	
-0.395203	
-0.394897	
-0.394592	
-0.395813	
-0.395264	
-0.395325	
-0.394409	
-0.395081	
-0.394653	
-0.395264	
-0.393433	
-0.395386	
-0.395813	
-0.39502	
-0.394714	
-0.394775	
-0.394958	
-0.394409	
-0.394287	
-0.393616	
-0.394043	
-0.392212	
-0.3927	
-0.392822	
-0.392395	
-0.393005	
-0.39325	
-0.392578	
-0.392273	
-0.393311	
-0.393188	
-0.393433	
-0.392578	
-0.391541	
-0.3927	
-0.392517	
-0.392334	
-0.392822	
-0.39209	
-0.392212	
-0.393738	
-0.392944	
-0.393005	
-0.393127	
-0.391724	
-0.392456	
-0.393372	
-0.39325	
-0.394226	
-0.393799	
-0.39447	
-0.394897	
-0.39624	
-0.396118	
-0.396362	
-0.395325	
-0.396484	
-0.396973	
-0.397278	
-0.398254	
-0.39801	
-0.398071	
-0.397827	
-0.39917	
-0.397095	
-0.396606	
-0.39624	
-0.396912	
-0.396118	
-0.396179	
-0.39563	
-0.39447	
-0.395325	
-0.395325	
-0.395874	
-0.39563	
-0.395447	
-0.393921	
-0.394775	
-0.394104	
-0.394897	
-0.395691	
-0.395996	
-0.397583	
-0.398376	
-0.398682	
-0.399353	
-0.401428	
-0.401428	
-0.402832	
-0.405029	
-0.408081	
-0.410156	
-0.411804	
-0.414429	
-0.416565	
-0.419983	
-0.422119	
-0.424316	
-0.426025	
-0.429749	
-0.43158	
-0.434937	
-0.438721	
-0.440552	
-0.442688	
-0.443909	
-0.44812	
-0.449646	
-0.450562	
-0.452576	
-0.454651	
-0.455994	
-0.455994	
-0.457153	
-0.457031	
-0.458069	
-0.457031	
-0.456726	
-0.456177	
-0.455872	
-0.455688	
-0.45459	
-0.454163	
-0.45343	
-0.454468	
-0.452942	
-0.451782	
-0.4505	
-0.449951	
-0.448792	
-0.448181	
-0.447876	
-0.448975	
-0.450623	
-0.451599	
-0.452454	
-0.452454	
-0.45459	
-0.456055	
-0.45874	
-0.460144	
-0.462158	
-0.463562	
-0.46637	
-0.469727	
-0.471252	
-0.473572	
-0.474915	
-0.477539	
-0.480652	
-0.483154	
-0.486145	
-0.48877	
-0.491211	
-0.493713	
-0.497437	
-0.499268	
-0.502991	
-0.504028	
-0.506653	
-0.507813	
-0.511292	
-0.512634	
-0.512878	
-0.513367	
-0.514771	
-0.516785	
-0.516907	
-0.517456	
-0.516357	
-0.516663	
-0.514954	
-0.513672	
-0.511658	
-0.508545	
-0.50592	
-0.503967	
-0.502014	
-0.497803	
-0.495544	
-0.490479	
-0.487305	
-0.482483	
-0.479675	
-0.474976	
-0.449402	
-0.442322	
-0.444031	
-0.441223	
-0.43811	
-0.434814	
-0.459656	
-0.448486	
-0.440735	
-0.434998	
-0.430542	
-0.425964	
-0.421143	
-0.416809	
-0.414063	
-0.410522	
-0.408081	
-0.405151	
-0.401672	
-0.399048	
-0.395935	
-0.392029	
-0.387695	
-0.382446	
-0.378845	
-0.377747	
-0.374756	
-0.370544	
-0.367554	
-0.364258	
-0.360901	
-0.358765	
-0.356384	
-0.352844	
-0.349182	
-0.346008	
-0.344299	
-0.342529	
-0.339294	
-0.336914	
-0.3349	
-0.334229	
-0.334045	
-0.332153	
-0.331787	
-0.330627	
-0.330322	
-0.330627	
-0.331116	
-0.331665	
-0.331543	
-0.330261	
-0.331116	
-0.33197	
-0.332214	
-0.33136	
-0.331726	
-0.333435	
-0.334167	
-0.335144	
-0.337463	
-0.33783	
-0.337952	
-0.340332	
-0.342957	
-0.343384	
-0.343262	
-0.344299	
-0.344299	
-0.3479	
-0.348816	
-0.349792	
-0.35022	
-0.351013	
-0.352295	
-0.35144	
-0.351929	
-0.35144	
-0.35022	
-0.350708	
-0.351624	
-0.352234	
-0.351624	
-0.351257	
-0.351685	
-0.352356	
-0.352783	
-0.352783	
-0.351807	
-0.353699	
-0.354858	
-0.356812	
-0.358215	
-0.358154	
-0.357849	
-0.359985	
-0.363098	
-0.363464	
-0.363892	
-0.365601	
-0.36731	
-0.369812	
-0.371704	
-0.373779	
-0.375488	
-0.377991	
-0.382446	
-0.384949	
-0.387573	
-0.389771	
-0.391968	
-0.395508	
-0.399536	
-0.402283	
-0.404541	
-0.406738	
-0.408997	
-0.413879	
-0.415527	
-0.418091	
-0.418457	
-0.421448	
-0.423767	
-0.426758	
-0.428162	
-0.429504	
-0.429993	
-0.430908	
-0.431702	
-0.430786	
-0.430115	
-0.429382	
-0.428162	
-0.428162	
-0.427979	
-0.427307	
-0.425964	
-0.422729	
-0.422363	
-0.422302	
-0.42218	
-0.420349	
-0.420593	
-0.42041	
-0.42218	
-0.422791	
-0.423889	
-0.425232	
-0.426758	
-0.428772	
-0.430481	
-0.433838	
-0.436523	
-0.439392	
-0.442078	
-0.446716	
-0.448853	
-0.450134	
-0.453369	
-0.457275	
-0.46106	
-0.463989	
-0.46637	
-0.469299	
-0.472656	
-0.475647	
-0.478699	
-0.481201	
-0.482849	
-0.483459	
-0.485107	
-0.486572	
-0.486206	
-0.485901	
-0.485168	
-0.484375	
-0.483276	
-0.483032	
-0.480347	
-0.479065	
-0.476257	
-0.473816	
-0.472168	
-0.468567	
-0.46405	
-0.461121	
-0.457886	
-0.453918	
-0.452087	
-0.447083	
-0.443176	
-0.439148	
-0.435852	
-0.431763	
-0.42688	
-0.421997	
-0.416809	
-0.412354	
-0.407654	
-0.404724	
-0.399109	
-0.394531	
-0.389282	
-0.385986	
-0.381531	
-0.37793	
-0.372742	
-0.36908	
-0.367065	
-0.365051	
-0.362183	
-0.359375	
-0.355896	
-0.352234	
-0.349548	
-0.348267	
-0.344971	
-0.34198	
-0.34021	
-0.337952	
-0.336243	
-0.335571	
-0.333679	
-0.33313	
-0.332886	
-0.332397	
-0.332947	
-0.332581	
-0.330872	
-0.330627	
-0.330261	
-0.331482	
-0.332458	
-0.331482	
-0.331116	
-0.330261	
-0.330627	
-0.330139	
-0.329285	
-0.327942	
-0.327515	
-0.327637	
-0.327026	
-0.328308	
-0.326782	
-0.326843	
-0.325745	
-0.327698	
-0.328491	
-0.328064	
-0.326355	
-0.328247	
-0.329712	
-0.331421	
-0.33136	
-0.332581	
-0.334045	
-0.334595	
-0.336487	
-0.338318	
-0.338074	
-0.338013	
-0.338318	
-0.338928	
-0.341248	
-0.341064	
-0.341064	
-0.340759	
-0.342285	
-0.342896	
-0.34259	
-0.34198	
-0.341064	
-0.340088	
-0.341797	
-0.342834	
-0.341736	
-0.342224	
-0.341858	
-0.343323	
-0.34375	
-0.343018	
-0.342773	
-0.34259	
-0.34491	
-0.346313	
-0.346497	
-0.346375	
-0.346313	
-0.345825	
-0.347656	
-0.347961	
-0.348022	
-0.348389	
-0.348755	
-0.350403	
-0.351685	
-0.350891	
-0.351318	
-0.351074	
-0.352661	
-0.353577	
-0.35321	
-0.352417	
-0.354187	
-0.355286	
-0.356567	
-0.357239	
-0.35498	
-0.356262	
-0.357056	
-0.358032	
-0.359802	
-0.358582	
-0.357422	
-0.358032	
-0.359253	
-0.360046	
-0.360474	
-0.360657	
-0.360107	
-0.360352	
-0.361938	
-0.362183	
-0.362488	
-0.362793	
-0.362244	
-0.364136	
-0.364685	
-0.364746	
-0.36499	
-0.365723	
-0.365906	
-0.36792	
-0.367554	
-0.36792	
-0.368713	
-0.369141	
-0.370178	
-0.370361	
-0.370117	
-0.369934	
-0.370911	
-0.370728	
-0.372131	
-0.371094	
-0.370605	
-0.369507	
-0.370605	
-0.369629	
-0.368713	
-0.368408	
-0.367859	
-0.367615	
-0.36853	
-0.367676	
-0.367249	
-0.365662	
-0.364075	
-0.365723	
-0.36676	
-0.365479	
-0.365906	
-0.36615	
-0.36499	
-0.367188	
-0.36615	
-0.365234	
-0.365601	
-0.366943	
-0.366394	
-0.368347	
-0.368652	
-0.367188	
-0.367859	
-0.368103	
-0.37085	
-0.368591	
-0.368896	
-0.368652	
-0.370117	
-0.369507	
-0.370605	
-0.370667	
-0.369934	
-0.370728	
-0.371155	
-0.373047	
-0.372498	
-0.371704	
-0.369324	
-0.37207	
-0.372742	
-0.372314	
-0.372314	
-0.371338	
-0.371582	
-0.371582	
-0.373779	
-0.372314	
-0.372192	
-0.370605	
-0.372498	
-0.372681	
-0.373169	
-0.373962	
-0.372253	
-0.37207	
-0.37207	
-0.372498	
-0.372314	
-0.372009	
-0.369568	
-0.371521	
-0.371277	
-0.371399	
-0.37207	
-0.371277	
-0.370605	
-0.3703	
-0.372253	
-0.371094	
-0.370728	
-0.368896	
-0.370605	
-0.371338	
-0.371399	
-0.372131	
-0.37146	
-0.371338	
-0.370667	
-0.372681	
-0.372253	
-0.371765	
-0.370544	
-0.37085	
-0.372192	
-0.373291	
-0.373779	
-0.37262	
-0.372498	
-0.370972	
-0.374634	
-0.374329	
-0.373657	
-0.373108	
-0.373108	
-0.374329	
-0.374573	
-0.374634	
-0.37384	
-0.373047	
-0.37207	
-0.373291	
-0.373535	
-0.373474	
-0.373169	
-0.371765	
-0.370483	
-0.371155	
-0.371216	
-0.370667	
-0.370056	
-0.370483	
-0.371338	
-0.370911	
-0.368896	
-0.368774	
-0.36908	
-0.371033	
-0.371887	
-0.372009	
-0.370605	
-0.369873	
-0.370667	
-0.370422	
-0.37085	
-0.369263	
-0.370422	
-0.36969	
-0.370056	
-0.371155	
-0.371704	
-0.3703	
-0.369385	
-0.369385	
-0.36969	
-0.370361	
-0.36969	
-0.369568	
-0.368164	
-0.36969	
-0.370422	
-0.370117	
-0.370178	
-0.369324	
-0.369873	
-0.369507	
-0.369751	
-0.367126	
-0.367554	
-0.367004	
-0.368713	
-0.367432	
-0.367737	
-0.367188	
-0.366699	
-0.367798	
-0.367432	
-0.367798	
-0.366333	
-0.367065	
-0.365479	
-0.367126	
-0.366699	
-0.367004	
-0.367188	
-0.367065	
-0.366455	
-0.367676	
-0.368347	
-0.366211	
-0.366943	
-0.36676	
-0.36853	
-0.367737	
-0.368469	
-0.368408	
-0.368774	
-0.368652	
-0.368835	
-0.370056	
-0.368408	
-0.369141	
-0.369751	
-0.370667	
-0.370544	
-0.370911	
-0.369873	
-0.371155	
-0.370911	
-0.369446	
-0.372559	
-0.372314	
-0.371338	
-0.371216	
-0.372253	
-0.371521	
-0.37207	
-0.372559	
-0.372803	
-0.371765	
-0.371216	
-0.372803	
-0.372314	
-0.372131	
-0.372131	
-0.371338	
-0.371155	
-0.37085	
-0.371216	
-0.371521	
-0.369629	
-0.369019	
-0.369873	
-0.368652	
-0.369141	
-0.369507	
-0.368835	
-0.36969	
-0.369507	
-0.369751	
-0.369446	
-0.36908	
-0.369568	
-0.370483	
-0.369934	
-0.369629	
-0.369568	
-0.368713	
-0.370117	
-0.369629	
-0.370361	
-0.37146	
-0.370789	
-0.3703	
-0.37085	
-0.371521	
-0.370789	
-0.370422	
-0.368652	
-0.369751	
-0.369751	
-0.370544	
-0.370361	
-0.370178	
-0.3703	
-0.371155	
-0.371704	
-0.37146	
-0.370422	
-0.369141	
-0.370911	
-0.371033	
-0.371643	
-0.371338	
-0.371887	
-0.371887	
-0.372559	
-0.373108	
-0.371521	
-0.372131	
-0.373474	
-0.373718	
-0.373779	
-0.373779	
-0.37384	
-0.373962	
-0.373657	
-0.37323	
-0.374023	
-0.37384	
-0.373779	
-0.37439	
-0.373779	
-0.373535	
-0.372742	
-0.372498	
-0.372437	
-0.372498	
-0.372864	
-0.373962	
-0.372742	
-0.372986	
-0.37384	
-0.373596	
-0.373352	
-0.372437	
-0.373291	
-0.373108	
-0.373108	
-0.37323	
-0.374634	
-0.37323	
-0.372559	
-0.373596	
-0.373291	
-0.374023	
-0.373535	
-0.374451	
-0.373596	
-0.372742	
-0.372192	
-0.374512	
-0.373413	
-0.372742	
-0.373657	
-0.373474	
-0.372986	
-0.372559	
-0.374268	
-0.373169	
-0.373108	
-0.371826	
-0.373108	
-0.372192	
-0.372131	
-0.372559	
-0.37146	
-0.371643	
-0.371765	
-0.37207	
-0.371216	
-0.371887	
-0.371643	
-0.371887	
-0.371521	
-0.371399	
-0.37262	
-0.371887	
-0.372131	
-0.373108	
-0.374329	
-0.373901	
-0.373352	
-0.374512	
-0.374329	
-0.374451	
-0.374451	
-0.375488	
-0.374512	
-0.374878	
-0.375427	
-0.375977	
-0.375732	
-0.374573	
-0.375549	
-0.375732	
-0.375732	
-0.373962	
-0.375183	
-0.37323	
-0.373108	
-0.37384	
-0.374084	
-0.372498	
-0.372375	
-0.373779	
-0.372559	
-0.371887	
-0.371521	
-0.371521	
-0.369446	
-0.370911	
-0.371399	
-0.371338	
-0.370483	
-0.3703	
-0.370972	
-0.370361	
-0.370056	
-0.368896	
-0.370728	
-0.36853	
-0.369629	
-0.370544	
-0.370667	
-0.369812	
-0.368896	
-0.369507	
-0.369446	
-0.369324	
-0.368713	
-0.369202	
-0.36792	
-0.368896	
-0.368652	
-0.369263	
-0.368958	
-0.368347	
-0.369812	
-0.369751	
-0.369263	
-0.368408	
-0.370117	
-0.368652	
-0.370361	
-0.370178	
-0.370483	
-0.369873	
-0.369629	
-0.370483	
-0.370605	
-0.370728	
-0.369934	
-0.371338	
-0.369629	
-0.370667	
-0.371033	
-0.37146	
-0.37085	
-0.369934	
-0.369568	
-0.370361	
-0.370605	
-0.369812	
-0.370789	
-0.369812	
-0.370667	
-0.370667	
-0.3703	
-0.369995	
-0.369324	
-0.368774	
-0.369934	
-0.370239	
-0.370361	
-0.370056	
-0.368713	
-0.370056	
-0.371277	
-0.371094	
-0.370056	
-0.370789	
-0.370605	
-0.37085	
-0.370911	
-0.370239	
-0.369751	
-0.369446	
-0.371948	
-0.372498	
-0.373047	
-0.372986	
-0.373352	
-0.371887	
-0.372864	
-0.373169	
-0.373901	
-0.37384	
-0.372131	
-0.372498	
-0.37262	
-0.372559	
-0.372559	
-0.372742	
-0.371765	
-0.372925	
-0.37207	
-0.371887	
-0.372192	
-0.370239	
-0.37085	
-0.371338	
-0.37085	
-0.371033	
-0.371765	
-0.371338	
-0.371826	
-0.370422	
-0.37085	
-0.371399	
-0.370728	
-0.371826	
-0.371643	
-0.371887	
-0.372009	
-0.371887	
-0.3703	
-0.371948	
-0.37207	
-0.372925	
-0.372742	
-0.371765	
-0.373535	
-0.373352	
-0.374207	
-0.374268	
-0.373718	
-0.371948	
-0.374451	
-0.373047	
-0.373901	
-0.375122	
-0.373901	
-0.374817	
-0.374084	
-0.375732	
-0.374878	
-0.373901	
-0.372925	
-0.374878	
-0.374329	
-0.374634	
-0.374756	
-0.37323	
-0.374023	
-0.37439	
-0.375854	
-0.374207	
-0.373596	
-0.372925	
-0.373901	
-0.373108	
-0.372864	
-0.373108	
-0.371521	
-0.372253	
-0.372375	
-0.372498	
-0.372559	
-0.372375	
-0.370605	
-0.37146	
-0.371155	
-0.370361	
-0.37085	
-0.369507	
-0.3703	
-0.369995	
-0.37146	
-0.370239	
-0.370056	
-0.369263	
-0.369995	
-0.369995	
-0.36969	
-0.3703	
-0.369385	
-0.370056	
-0.370422	
-0.371704	
-0.371155	
-0.371399	
-0.371399	
-0.373047	
-0.372864	
-0.372803	
-0.373108	
-0.372498	
-0.372925	
-0.37262	
-0.372681	
-0.373169	
-0.373901	
-0.372742	
-0.372925	
-0.372131	
-0.372375	
-0.373047	
-0.372986	
-0.373169	
-0.372742	
-0.372742	
-0.372681	
-0.372742	
-0.370667	
-0.372009	
-0.37207	
-0.372009	
-0.372192	
-0.371826	
-0.372742	
-0.373596	
-0.372681	
-0.372864	
-0.373291	
-0.371704	
-0.372803	
-0.372925	
-0.372437	
-0.37323	
-0.372131	
-0.373352	
-0.374146	
-0.372742	
-0.37262	
-0.373047	
-0.37146	
-0.372192	
-0.37207	
-0.371399	
-0.372253	
-0.371094	
-0.371277	
-0.37085	
-0.369629	
-0.370178	
-0.371094	
-0.370605	
-0.370789	
-0.371155	
-0.37085	
-0.371338	
-0.370483	
-0.370422	
-0.370972	
-0.370178	
-0.371582	
-0.372375	
-0.371216	
-0.370361	
-0.37146	
-0.371521	
-0.371765	
-0.370117	
-0.371521	
-0.371826	
-0.371399	
-0.371704	
-0.372253	
-0.371155	
-0.370911	
-0.370789	
-0.371094	
-0.371155	
-0.370789	
-0.371704	
-0.371582	
-0.370972	
-0.372192	
-0.372803	
-0.371033	
-0.371643	
-0.371582	
-0.37146	
-0.372131	
-0.371643	
-0.372009	
-0.372131	
-0.371887	
-0.372437	
-0.372681	
-0.370911	
-0.372742	
-0.37207	
-0.373047	
-0.372986	
-0.372742	
-0.373718	
-0.374023	
-0.373596	
-0.373779	
-0.374512	
-0.373108	
-0.374329	
-0.373962	
-0.374878	
-0.374451	
-0.373535	
-0.374756	
-0.374329	
-0.373535	
-0.374329	
-0.374207	
-0.371643	
-0.372864	
-0.37207	
-0.371582	
-0.371216	
-0.370789	
-0.370789	
-0.371033	
-0.371826	
-0.371033	
-0.371033	
-0.368958	
-0.369202	
-0.369873	
-0.369568	
-0.369568	
-0.3703	
-0.370667	
-0.371033	
-0.372314	
-0.371826	
-0.371887	
-0.370972	
-0.371033	
-0.37207	
-0.372314	
-0.372925	
-0.372559	
-0.373108	
-0.373535	
-0.375244	
-0.374268	
-0.374023	
-0.374695	
-0.373779	
-0.37439	
-0.374512	
-0.374634	
-0.373901	
-0.375793	
-0.37561	
-0.375671	
-0.376282	
-0.375305	
-0.375305	
-0.374207	
-0.375854	
-0.375549	
-0.37616	
-0.375244	
-0.375427	
-0.375183	
-0.37561	
-0.376709	
-0.375916	
-0.375244	
-0.374817	
-0.376343	
-0.375183	
-0.375854	
-0.375122	
-0.375061	
-0.375	
-0.375122	
-0.375122	
-0.37561	
-0.375	
-0.374451	
-0.374573	
-0.372986	
-0.374146	
-0.373474	
-0.373352	
-0.373108	
-0.373474	
-0.374023	
-0.373535	
-0.373047	
-0.371948	
-0.374451	
-0.373474	
-0.373779	
-0.372864	
-0.372742	
-0.37262	
-0.373352	
-0.374634	
-0.374268	
-0.374146	
-0.37262	
-0.374634	
-0.373291	
-0.374329	
-0.372986	
-0.373962	
-0.374023	
-0.374573	
-0.375	
-0.374268	
-0.374207	
-0.373291	
-0.37384	
-0.371765	
-0.373047	
-0.372803	
-0.374023	
-0.37262	
-0.372742	
-0.373535	
-0.371765	
-0.370972	
-0.369507	
-0.370544	
-0.369995	
-0.371521	
-0.370239	
-0.369324	
-0.36908	
-0.369995	
-0.372437	
-0.370728	
-0.3703	
-0.368835	
-0.370789	
-0.369446	
-0.371216	
-0.36969	
-0.370605	
-0.370422	
-0.371521	
-0.372986	
-0.371704	
-0.37146	
-0.370544	
-0.371277	
-0.369934	
-0.372009	
-0.371277	
-0.371033	
-0.37085	
-0.370728	
-0.372437	
-0.37146	
-0.371704	
-0.370056	
-0.371643	
-0.369873	
-0.370789	
-0.369812	
-0.370239	
-0.369141	
-0.369812	
-0.371094	
-0.368835	
-0.368469	
-0.367615	
-0.368774	
-0.367554	
-0.368652	
-0.367615	
-0.368103	
-0.36792	
-0.367615	
-0.369324	
-0.368225	
-0.366943	
-0.366882	
-0.367737	
-0.365906	
-0.367981	
-0.367126	
-0.367371	
-0.367126	
-0.367798	
-0.368774	
-0.367737	
-0.367737	
-0.366943	
-0.368225	
-0.366638	
-0.369019	
-0.368469	
-0.368713	
-0.368408	
-0.369812	
-0.370239	
-0.369263	
-0.368835	
-0.368286	
-0.369385	
-0.369995	
-0.371521	
-0.370422	
-0.370972	
-0.370789	
-0.370728	
-0.372131	
-0.371582	
-0.371155	
-0.370789	
-0.370728	
-0.370728	
-0.372375	
-0.370911	
-0.371216	
-0.371155	
-0.371277	
-0.373108	
-0.371826	
-0.37085	
-0.369873	
-0.36853	
-0.368103	
-0.369446	
-0.368835	
-0.367493	
-0.36853	
-0.368347	
-0.36969	
-0.368164	
-0.367859	
-0.367249	
-0.367188	
-0.36731	
-0.36908	
-0.368835	
-0.366638	
-0.367126	
-0.367981	
-0.369385	
-0.368896	
-0.368896	
-0.367676	
-0.367676	
-0.368469	
-0.369385	
-0.368713	
-0.367798	
-0.368652	
-0.369385	
-0.368835	
-0.368042	
-0.368347	
-0.367371	
-0.367249	
-0.367798	
-0.368225	
-0.368347	
-0.367432	
-0.368347	
-0.368164	
-0.368896	
-0.368896	
-0.368286	
-0.366882	
-0.367676	
-0.368774	
-0.370056	
-0.369507	
-0.368591	
-0.36853	
-0.369324	
-0.370239	
-0.370361	
-0.370605	
-0.369141	
-0.369324	
-0.369324	
-0.370605	
-0.369751	
-0.368835	
-0.369995	
-0.370239	
-0.370544	
-0.371094	
-0.369934	
-0.368164	
-0.367737	
-0.36853	
-0.368896	
-0.368591	
-0.368042	
-0.369019	
-0.368591	
-0.368835	
-0.369324	
-0.368164	
-0.368469	
-0.368042	
-0.367432	
-0.368958	
-0.369263	
-0.367798	
-0.368652	
-0.368164	
-0.368896	
-0.369568	
-0.367798	
-0.367554	
-0.367432	
-0.368225	
-0.367981	
-0.367432	
-0.367371	
-0.368469	
-0.367493	
-0.367615	
-0.368835	
-0.367676	
-0.367188	
-0.366943	
-0.367004	
-0.367371	
-0.367126	
-0.366089	
-0.366089	
-0.366272	
-0.365784	
-0.366516	
-0.366028	
-0.365784	
-0.364929	
-0.364807	
-0.365173	
-0.364929	
-0.364197	
-0.365234	
-0.365723	
-0.365784	
-0.366638	
-0.365906	
-0.364868	
-0.365295	
-0.366699	
-0.367004	
-0.367432	
-0.366455	
-0.36792	
-0.368591	
-0.367615	
-0.368774	
-0.368774	
-0.368164	
-0.368652	
-0.369934	
-0.369141	
-0.36908	
-0.368408	
-0.368835	
-0.368896	
-0.368591	
-0.369019	
-0.369019	
-0.368103	
-0.36792	
-0.368103	
-0.366516	
-0.36615	
-0.365906	
-0.365723	
-0.366211	
-0.365356	
-0.365601	
-0.365417	
-0.365173	
-0.364441	
-0.363953	
-0.364746	
-0.364563	
-0.363892	
-0.364014	
-0.364014	
-0.36377	
-0.364258	
-0.364014	
-0.363159	
-0.363098	
-0.363403	
-0.364014	
-0.362976	
-0.362	
-0.362854	
-0.362793	
-0.362671	
-0.363159	
-0.362244	
-0.362732	
-0.362244	
-0.361511	
-0.362671	
-0.362915	
-0.362732	
-0.363037	
-0.362915	
-0.363464	
-0.363953	
-0.362671	
-0.362854	
-0.362244	
-0.363403	
-0.363831	
-0.36438	
-0.363953	
-0.363525	
-0.364502	
-0.364624	
-0.365601	
-0.364807	
-0.364441	
-0.363831	
-0.364563	
-0.364807	
-0.364502	
-0.363708	
-0.36377	
-0.364502	
-0.364685	
-0.365845	
-0.364685	
-0.363464	
-0.362366	
-0.36322	
-0.364075	
-0.364441	
-0.363403	
-0.362549	
-0.364197	
-0.364197	
-0.364746	
-0.363525	
-0.363708	
-0.363098	
-0.363953	
-0.363892	
-0.365356	
-0.364319	
-0.364075	
-0.364563	
-0.364868	
-0.366272	
-0.365051	
-0.36499	
-0.365173	
-0.366211	
-0.366821	
-0.366943	
-0.365662	
-0.365234	
-0.367249	
-0.367615	
-0.367859	
-0.36615	
-0.366211	
-0.365662	
-0.366516	
-0.367065	
-0.367004	
-0.365845	
-0.365234	
-0.366577	
-0.366211	
-0.366455	
-0.36499	
-0.365295	
-0.364502	
-0.365295	
-0.365479	
-0.36615	
-0.365295	
-0.36499	
-0.365356	
-0.365723	
-0.366394	
-0.365356	
-0.364929	
-0.363647	
-0.365295	
-0.366211	
-0.366333	
-0.366028	
-0.366272	
-0.365601	
-0.36615	
-0.367981	
-0.366943	
-0.36676	
-0.366394	
-0.367737	
-0.367798	
-0.367798	
-0.367737	
-0.36792	
-0.36731	
-0.368652	
-0.368958	
-0.368652	
-0.368103	
-0.367676	
-0.369507	
-0.369324	
-0.36908	
-0.368896	
-0.369019	
-0.368042	
-0.368591	
-0.369446	
-0.368408	
-0.367676	
-0.367188	
-0.369324	
-0.368774	
-0.368469	
-0.368408	
-0.367615	
-0.366333	
-0.367859	
-0.36792	
-0.367432	
-0.367126	
-0.365784	
-0.36792	
-0.367065	
-0.366211	
-0.365723	
-0.365601	
-0.364685	
-0.366272	
-0.367126	
-0.365417	
-0.36438	
-0.363403	
-0.364868	
-0.364685	
-0.364868	
-0.364136	
-0.364746	
-0.363464	
-0.364624	
-0.365723	
-0.364441	
-0.362854	
-0.363831	
-0.365967	
-0.366272	
-0.367615	
-0.367249	
-0.367371	
-0.365967	
-0.367859	
-0.368835	
-0.367981	
-0.366943	
-0.366516	
-0.368591	
-0.367432	
-0.368103	
-0.367554	
-0.367737	
-0.366821	
-0.369385	
-0.36969	
-0.368225	
-0.367065	
-0.366333	
-0.368591	
-0.367859	
-0.367554	
-0.365845	
-0.367126	
-0.367004	
-0.36908	
-0.367737	
-0.367676	
-0.367859	
-0.366943	
-0.368835	
-0.368164	
-0.367676	
-0.367615	
-0.36792	
-0.366943	
-0.36908	
-0.369263	
-0.369141	
-0.367859	
-0.367188	
-0.368958	
-0.368774	
	
