E:\DOCUMENTS AND SETTINGS\JPOTAS\MEUS DOCUMENTOS\UFRJ\RSCI-BM 12 WK SERIES\070718-RSCI-BM-03\RSCI-BM-03-REMG\070718-RSCI-BM-03-REMG-0010.ACQ
0.025000 msec/sample
1 channel
Analog input
Volts
CH1	
2000	
-0.392883	
-0.393677	
-0.392517	
-0.395081	
-0.394531	
-0.394592	
-0.396606	
-0.396851	
-0.3974	
-0.396545	
-0.398193	
-0.396606	
-0.396851	
-0.396973	
-0.398315	
-0.397156	
-0.396057	
-0.397949	
-0.396851	
-0.397461	
-0.396973	
-0.397949	
-0.396667	
-0.39679	
-0.397034	
-0.397095	
-0.396301	
-0.394409	
-0.394409	
-0.39447	
-0.39502	
-0.393311	
-0.392883	
-0.392273	
-0.392273	
-0.392212	
-0.391846	
-0.391907	
-0.391174	
-0.390625	
-0.391785	
-0.391602	
-0.390869	
-0.390991	
-0.391174	
-0.391113	
-0.391541	
-0.391479	
-0.391541	
-0.391052	
-0.391174	
-0.392334	
-0.392273	
-0.391235	
-0.391113	
-0.391052	
-0.391479	
-0.391907	
-0.392212	
-0.392395	
-0.391846	
-0.392578	
-0.39209	
-0.393494	
-0.393066	
-0.393616	
-0.393555	
-0.393677	
-0.393188	
-0.393372	
-0.393555	
-0.393311	
-0.392395	
-0.393799	
-0.394836	
-0.394531	
-0.393982	
-0.393372	
-0.394958	
-0.394958	
-0.394958	
-0.39502	
-0.394043	
-0.393188	
-0.394226	
-0.395203	
-0.395081	
-0.395081	
-0.393677	
-0.39447	
-0.394897	
-0.394592	
-0.39447	
-0.393555	
-0.394226	
-0.394775	
-0.396484	
-0.394592	
-0.394592	
-0.394104	
-0.393738	
-0.39386	
-0.393005	
-0.39447	
-0.394348	
-0.394714	
-0.394409	
-0.395752	
-0.394653	
-0.394775	
-0.395203	
-0.39447	
-0.39563	
-0.395142	
-0.396545	
-0.396057	
-0.395935	
-0.394409	
-0.395447	
-0.395691	
-0.395813	
-0.395447	
-0.394226	
-0.394775	
-0.394409	
-0.394714	
-0.394714	
-0.393677	
-0.393127	
-0.3927	
-0.393066	
-0.392578	
-0.393738	
-0.391602	
-0.392639	
-0.391907	
-0.393372	
-0.392761	
-0.391418	
-0.391418	
-0.390869	
-0.392578	
-0.390869	
-0.391724	
-0.390015	
-0.391663	
-0.390747	
-0.3927	
-0.393799	
-0.392578	
-0.392151	
-0.392578	
-0.394409	
-0.393188	
-0.394653	
-0.393433	
-0.394531	
-0.395569	
-0.396545	
-0.396667	
-0.395874	
-0.396729	
-0.396729	
-0.397339	
-0.396912	
-0.398315	
-0.396606	
-0.396423	
-0.397339	
-0.396912	
-0.396912	
-0.396973	
-0.396484	
-0.395142	
-0.397644	
-0.395508	
-0.396057	
-0.395569	
-0.393372	
-0.393982	
-0.394592	
-0.394714	
-0.39325	
-0.392578	
-0.390991	
-0.390259	
-0.391052	
-0.390259	
-0.389465	
-0.388794	
-0.389465	
-0.389954	
-0.390015	
-0.389343	
-0.388794	
-0.388428	
-0.388245	
-0.361023	
-0.36676	
-0.370728	
-0.372131	
-0.373047	
-0.373352	
-0.406189	
-0.395935	
-0.390381	
-0.389771	
-0.388062	
-0.388489	
-0.388733	
-0.388367	
-0.388	
-0.388977	
-0.389465	
-0.390808	
-0.392334	
-0.391785	
-0.391113	
-0.39093	
-0.392334	
-0.392456	
-0.391968	
-0.391357	
-0.392578	
-0.393005	
-0.392761	
-0.394043	
-0.393616	
-0.393799	
-0.394043	
-0.39447	
-0.394775	
-0.393494	
-0.392334	
-0.393616	
-0.393433	
-0.393494	
-0.394287	
-0.395142	
-0.394348	
-0.394653	
-0.393799	
-0.393799	
-0.393372	
-0.393005	
-0.393188	
-0.393188	
-0.393738	
-0.394775	
-0.395081	
-0.393555	
-0.392944	
-0.393799	
-0.394104	
-0.393921	
-0.392517	
-0.392883	
-0.392761	
-0.39325	
-0.394165	
-0.395203	
-0.393921	
-0.394043	
-0.394714	
-0.395874	
-0.395935	
-0.39502	
-0.394043	
-0.396423	
-0.396362	
-0.396118	
-0.396912	
-0.395264	
-0.394775	
-0.393555	
-0.395081	
-0.393677	
-0.393127	
-0.391174	
-0.392273	
-0.391968	
-0.392395	
-0.392639	
-0.392029	
-0.391724	
-0.39032	
-0.39325	
-0.391479	
-0.391296	
-0.390808	
-0.392212	
-0.393311	
-0.394409	
-0.394958	
-0.39502	
-0.396973	
-0.396606	
-0.400024	
-0.400146	
-0.401733	
-0.403076	
-0.40625	
-0.408936	
-0.41095	
-0.415222	
-0.416992	
-0.41925	
-0.421631	
-0.42865	
-0.429932	
-0.432861	
-0.434753	
-0.440674	
-0.444275	
-0.446838	
-0.450989	
-0.454163	
-0.455994	
-0.460388	
-0.465027	
-0.467285	
-0.470337	
-0.471191	
-0.47522	
-0.477417	
-0.479614	
-0.480774	
-0.480347	
-0.481812	
-0.482727	
-0.484131	
-0.484314	
-0.484741	
-0.484741	
-0.487427	
-0.488403	
-0.488831	
-0.489319	
-0.48761	
-0.486938	
-0.486816	
-0.486877	
-0.487061	
-0.48584	
-0.485535	
-0.488342	
-0.489075	
-0.49054	
-0.49292	
-0.493713	
-0.495789	
-0.498413	
-0.501038	
-0.503418	
-0.506409	
-0.507385	
-0.511353	
-0.51416	
-0.517151	
-0.520203	
-0.52179	
-0.524719	
-0.528381	
-0.530823	
-0.533813	
-0.535828	
-0.536804	
-0.541077	
-0.544128	
-0.546448	
-0.548767	
-0.550293	
-0.55127	
-0.552429	
-0.554382	
-0.554138	
-0.55304	
-0.552917	
-0.554688	
-0.554626	
-0.554443	
-0.554016	
-0.552612	
-0.550781	
-0.549133	
-0.545837	
-0.543457	
-0.5401	
-0.536011	
-0.533447	
-0.529663	
-0.526245	
-0.521484	
-0.516235	
-0.511536	
-0.506897	
-0.502625	
-0.497498	
-0.492798	
-0.486877	
-0.482788	
-0.477783	
-0.473633	
-0.469238	
-0.464539	
-0.459412	
-0.452087	
-0.447571	
-0.443054	
-0.437805	
-0.431396	
-0.427673	
-0.422913	
-0.419067	
-0.416382	
-0.411987	
-0.408264	
-0.40332	
-0.400696	
-0.395386	
-0.391052	
-0.385681	
-0.383728	
-0.380127	
-0.376465	
-0.375305	
-0.370056	
-0.366577	
-0.363159	
-0.361572	
-0.357178	
-0.354187	
-0.350037	
-0.349182	
-0.347168	
-0.345154	
-0.344421	
-0.341553	
-0.340149	
-0.339966	
-0.341003	
-0.338684	
-0.337341	
-0.336182	
-0.337219	
-0.336487	
-0.335938	
-0.337524	
-0.335449	
-0.336731	
-0.337402	
-0.338013	
-0.336975	
-0.33728	
-0.337219	
-0.339355	
-0.339966	
-0.341003	
-0.343384	
-0.343506	
-0.344666	
-0.345032	
-0.347168	
-0.348206	
-0.348755	
-0.348938	
-0.350647	
-0.351807	
-0.353455	
-0.353577	
-0.353943	
-0.354858	
-0.355713	
-0.356201	
-0.356567	
-0.356018	
-0.357239	
-0.357056	
-0.35791	
-0.358948	
-0.357117	
-0.357239	
-0.35791	
-0.358459	
-0.358643	
-0.358276	
-0.357178	
-0.358582	
-0.358337	
-0.359192	
-0.359497	
-0.358032	
-0.358704	
-0.358582	
-0.358582	
-0.358521	
-0.357544	
-0.357788	
-0.359253	
-0.359863	
-0.360535	
-0.361328	
-0.361694	
-0.362122	
-0.361816	
-0.364075	
-0.363403	
-0.362976	
-0.365845	
-0.366943	
-0.367065	
-0.369751	
-0.369995	
-0.370239	
-0.372498	
-0.373596	
-0.374084	
-0.374756	
-0.376892	
-0.377136	
-0.377502	
-0.379028	
-0.380737	
-0.37915	
-0.379333	
-0.380493	
-0.381348	
-0.379883	
-0.379333	
-0.380737	
-0.381592	
-0.381531	
-0.381714	
-0.383301	
-0.382385	
-0.383118	
-0.381653	
-0.38446	
-0.382751	
-0.381226	
-0.382629	
-0.384949	
-0.384338	
-0.383789	
-0.384583	
-0.383362	
-0.38385	
-0.380798	
-0.382874	
-0.381958	
-0.381531	
-0.381775	
-0.38269	
-0.382874	
-0.382996	
-0.382751	
-0.382385	
-0.382568	
-0.380432	
-0.38269	
-0.381042	
-0.381409	
-0.38092	
-0.381165	
-0.381042	
-0.381042	
-0.381348	
-0.380798	
-0.381592	
-0.37915	
-0.381714	
-0.379333	
-0.378357	
-0.378479	
-0.378723	
-0.379272	
-0.37915	
-0.380066	
-0.378784	
-0.378723	
-0.376465	
-0.376953	
-0.375916	
-0.375977	
-0.376709	
-0.376831	
-0.376892	
-0.37677	
-0.377014	
-0.37677	
-0.377319	
-0.37677	
-0.376587	
-0.375793	
-0.377075	
-0.376526	
-0.377441	
-0.37738	
-0.378052	
-0.378052	
-0.377563	
-0.377625	
-0.377136	
-0.37738	
-0.377747	
-0.377747	
-0.378296	
-0.378418	
-0.378357	
-0.379211	
-0.37854	
-0.378174	
-0.378662	
-0.378479	
-0.376953	
-0.377502	
-0.376709	
-0.377808	
-0.377502	
-0.377686	
-0.378174	
-0.378174	
-0.378113	
-0.378052	
-0.37854	
-0.377686	
-0.378418	
-0.37738	
-0.377869	
-0.377136	
-0.378357	
-0.378601	
-0.378296	
-0.378357	
-0.378052	
-0.378723	
-0.377441	
-0.37793	
-0.376892	
-0.377014	
-0.376953	
-0.376587	
-0.376343	
-0.375427	
-0.376648	
-0.376831	
-0.376892	
-0.376587	
-0.377136	
-0.375793	
-0.375854	
-0.375671	
-0.375854	
-0.375854	
-0.375732	
-0.37616	
-0.376892	
-0.376221	
-0.375488	
-0.375977	
-0.375305	
-0.375366	
-0.375854	
-0.376892	
-0.377075	
-0.376892	
-0.377014	
-0.378357	
-0.377747	
-0.378113	
-0.379456	
-0.379639	
-0.380066	
-0.380554	
-0.380859	
-0.381287	
-0.381592	
-0.381897	
-0.382385	
-0.381836	
-0.382019	
-0.380554	
-0.381714	
-0.381714	
-0.380981	
-0.381592	
-0.381897	
-0.381042	
-0.381653	
-0.38269	
-0.380981	
-0.380249	
-0.379822	
-0.38031	
-0.379272	
-0.379272	
-0.378357	
-0.378479	
-0.377625	
-0.37738	
-0.377563	
-0.376038	
-0.375916	
-0.375488	
-0.376404	
-0.37561	
-0.375061	
-0.374939	
-0.374817	
-0.375427	
-0.375549	
-0.377014	
-0.375183	
-0.375427	
-0.375061	
-0.375427	
-0.37439	
-0.374695	
-0.375244	
-0.375366	
-0.375427	
-0.375854	
-0.377075	
-0.375	
-0.375549	
-0.375732	
-0.376526	
-0.376709	
-0.377014	
-0.376465	
-0.376892	
-0.376648	
-0.377563	
-0.378296	
-0.376892	
-0.377136	
-0.375977	
-0.37677	
-0.377319	
-0.378052	
-0.378845	
-0.378906	
-0.378845	
-0.378601	
-0.379028	
-0.378296	
-0.378845	
-0.377319	
-0.376892	
-0.379272	
-0.378296	
-0.378723	
-0.378174	
-0.379761	
-0.379211	
-0.379578	
-0.37915	
-0.378967	
-0.378418	
-0.37738	
-0.378967	
-0.378967	
-0.378906	
-0.378662	
-0.379883	
-0.378784	
-0.379761	
-0.379211	
-0.378235	
-0.378357	
-0.379272	
-0.379822	
-0.378784	
-0.378845	
-0.379456	
-0.379944	
-0.379456	
-0.380615	
-0.381531	
-0.380737	
-0.380127	
-0.380005	
-0.380798	
-0.380371	
-0.379822	
-0.380066	
-0.380188	
-0.380188	
-0.380066	
-0.3797	
-0.378784	
-0.378174	
-0.378113	
-0.379517	
-0.378174	
-0.377625	
-0.377502	
-0.377991	
-0.377869	
-0.379211	
-0.377808	
-0.375732	
-0.376465	
-0.375977	
-0.376343	
-0.376099	
-0.375671	
-0.375366	
-0.374146	
-0.376526	
-0.377258	
-0.375732	
-0.375061	
-0.376465	
-0.375793	
-0.375549	
-0.377502	
-0.376648	
-0.377319	
-0.377197	
-0.378967	
-0.378906	
-0.378662	
-0.379578	
-0.379944	
-0.379395	
-0.379822	
-0.382019	
-0.38147	
-0.381409	
-0.380615	
-0.382019	
-0.381958	
-0.382019	
-0.382141	
-0.381104	
-0.380615	
-0.381226	
-0.38208	
-0.381042	
-0.380859	
-0.379272	
-0.380493	
-0.380554	
-0.379456	
-0.379822	
-0.378479	
-0.376648	
-0.377502	
-0.378174	
-0.37616	
-0.375122	
-0.374512	
-0.375488	
-0.375122	
-0.37384	
-0.373718	
-0.372009	
-0.372314	
-0.37323	
-0.374207	
-0.373291	
-0.373352	
-0.372559	
-0.372681	
-0.373718	
-0.372864	
-0.372314	
-0.371094	
-0.37207	
-0.371643	
-0.372314	
-0.37262	
-0.372375	
-0.37207	
-0.372803	
-0.374207	
-0.373474	
-0.372681	
-0.374023	
-0.374268	
-0.374634	
-0.375854	
-0.375732	
-0.375671	
-0.375732	
-0.376404	
-0.376038	
-0.376526	
-0.376892	
-0.376648	
-0.376343	
-0.377136	
-0.378174	
-0.377686	
-0.376953	
-0.377014	
-0.377869	
-0.378906	
-0.377686	
-0.377197	
-0.377747	
-0.377258	
-0.377014	
-0.377502	
-0.376953	
-0.377197	
-0.376648	
-0.377014	
-0.378845	
-0.376587	
-0.37561	
-0.376038	
-0.376892	
-0.376709	
-0.376587	
-0.375732	
-0.376038	
-0.375916	
-0.375916	
-0.37677	
-0.375671	
-0.375061	
-0.375061	
-0.375244	
-0.375427	
-0.375549	
-0.375671	
-0.375977	
-0.375732	
-0.375977	
-0.376648	
-0.376404	
-0.376709	
-0.375854	
-0.375122	
-0.376099	
-0.376221	
-0.376343	
-0.376038	
-0.375671	
-0.37677	
-0.377502	
-0.376465	
-0.376465	
-0.375183	
-0.374756	
-0.375	
-0.376099	
-0.375977	
-0.377197	
-0.376099	
-0.375427	
-0.37677	
-0.376892	
-0.377808	
-0.375366	
-0.375061	
-0.375244	
-0.375427	
-0.374146	
-0.375122	
-0.375061	
-0.37439	
-0.376343	
-0.376526	
-0.377258	
-0.375122	
-0.375244	
-0.376343	
-0.377258	
-0.376587	
-0.377258	
-0.377991	
-0.377441	
-0.37915	
-0.380005	
-0.3797	
-0.37793	
-0.379639	
-0.378967	
-0.378723	
-0.38031	
-0.379822	
-0.379211	
-0.379272	
-0.381287	
-0.381042	
-0.380554	
-0.379822	
-0.381287	
-0.379944	
-0.380249	
-0.380493	
-0.379089	
-0.379333	
-0.379272	
-0.375549	
-0.353943	
-0.35968	
-0.360779	
-0.36145	
-0.361267	
-0.358826	
-0.38562	
-0.37738	
-0.376526	
-0.37561	
-0.374573	
-0.374573	
-0.374207	
-0.37384	
-0.37323	
-0.37384	
-0.372803	
-0.374512	
-0.372498	
-0.373596	
-0.373474	
-0.373474	
-0.374329	
-0.374268	
-0.374084	
-0.374817	
-0.375549	
-0.374939	
-0.375977	
-0.375427	
-0.375854	
-0.376465	
-0.378357	
-0.378479	
-0.379028	
-0.379272	
-0.379822	
-0.379578	
-0.380554	
-0.380859	
-0.380127	
-0.380188	
-0.380493	
-0.381897	
-0.380554	
-0.381348	
-0.381958	
-0.380432	
-0.380493	
-0.380249	
-0.381165	
-0.380005	
-0.379272	
-0.379272	
-0.379944	
-0.378906	
-0.37915	
-0.379089	
-0.378418	
-0.378235	
-0.377197	
-0.377747	
-0.377136	
-0.37738	
-0.37738	
-0.377258	
-0.377625	
-0.378479	
-0.37793	
-0.377258	
-0.377502	
-0.376221	
-0.375549	
-0.375122	
-0.373962	
-0.372681	
-0.370789	
-0.370422	
-0.370422	
-0.369995	
-0.368774	
-0.367432	
-0.365662	
-0.365601	
-0.365295	
-0.363953	
-0.363586	
-0.364075	
-0.364685	
-0.364258	
-0.365356	
-0.364868	
-0.365051	
-0.364685	
-0.367371	
-0.36853	
-0.368225	
-0.36969	
-0.371094	
-0.372742	
-0.374817	
-0.377502	
-0.37854	
-0.381165	
-0.381897	
-0.385986	
-0.390442	
-0.392151	
-0.396118	
-0.399048	
-0.402466	
-0.405945	
-0.408813	
-0.410461	
-0.414429	
-0.416565	
-0.421204	
-0.42395	
-0.427612	
-0.429993	
-0.433167	
-0.43634	
-0.439148	
-0.44104	
-0.444702	
-0.446594	
-0.44873	
-0.450745	
-0.450745	
-0.453186	
-0.454834	
-0.455872	
-0.457581	
-0.458557	
-0.459839	
-0.461914	
-0.463562	
-0.465759	
-0.468567	
-0.469299	
-0.471619	
-0.474304	
-0.476135	
-0.478271	
-0.480286	
-0.48114	
-0.483093	
-0.484619	
-0.486694	
-0.488464	
-0.489441	
-0.49176	
-0.493469	
-0.495544	
-0.498291	
-0.498718	
-0.500427	
-0.501465	
-0.500977	
-0.502808	
-0.50592	
-0.503967	
-0.505798	
-0.508301	
-0.508911	
-0.509766	
-0.510376	
-0.510742	
-0.511108	
-0.51178	
-0.512329	
-0.512573	
-0.511108	
-0.512085	
-0.511841	
-0.510498	
-0.510559	
-0.507874	
-0.506714	
-0.505981	
-0.504333	
-0.502136	
-0.501404	
-0.498291	
-0.496948	
-0.496582	
-0.494507	
-0.49292	
-0.489929	
-0.48822	
-0.485291	
-0.482117	
-0.479553	
-0.477051	
-0.472778	
-0.470032	
-0.467896	
-0.463928	
-0.460571	
-0.455444	
-0.452454	
-0.44812	
-0.443115	
-0.439148	
-0.436279	
-0.431641	
-0.427795	
-0.423828	
-0.41925	
-0.414917	
-0.409363	
-0.40564	
-0.400574	
-0.395325	
-0.391296	
-0.386658	
-0.381042	
-0.376892	
-0.373718	
-0.368958	
-0.365906	
-0.36438	
-0.362305	
-0.359497	
-0.35614	
-0.356079	
-0.354492	
-0.352966	
-0.351501	
-0.351501	
-0.349548	
-0.350037	
-0.349487	
-0.34845	
-0.348206	
-0.34552	
-0.346191	
-0.346313	
-0.345764	
-0.344055	
-0.343323	
-0.340393	
-0.341187	
-0.339539	
-0.338806	
-0.338562	
-0.33667	
-0.337402	
-0.337158	
-0.33667	
-0.336853	
-0.336731	
-0.335693	
-0.33667	
-0.336487	
-0.338562	
-0.338989	
-0.339355	
-0.340759	
-0.34198	
-0.342529	
-0.343811	
-0.344299	
-0.34552	
-0.346924	
-0.347473	
-0.3479	
-0.347961	
-0.348633	
-0.350159	
-0.351746	
-0.35022	
-0.352539	
-0.351807	
-0.352661	
-0.354248	
-0.353271	
-0.353455	
-0.353638	
-0.354187	
-0.355652	
-0.355408	
-0.356079	
-0.356567	
-0.356262	
-0.357056	
-0.358276	
-0.358459	
-0.358459	
-0.357849	
-0.358826	
-0.359863	
-0.359802	
-0.360779	
-0.360535	
-0.361023	
-0.360962	
-0.360901	
-0.360291	
-0.360229	
-0.359863	
-0.360107	
-0.361023	
-0.359619	
-0.360229	
-0.358765	
-0.35968	
-0.359985	
-0.359558	
-0.359436	
-0.359497	
-0.359863	
-0.359375	
-0.359741	
-0.359985	
-0.359253	
-0.358459	
-0.359741	
-0.36084	
-0.359985	
-0.360352	
-0.359375	
-0.35907	
-0.359802	
-0.359802	
-0.359619	
-0.359985	
-0.359436	
-0.359436	
-0.361206	
-0.360901	
-0.361511	
-0.360413	
-0.361267	
-0.362671	
-0.361938	
-0.362915	
-0.363647	
-0.36377	
-0.36499	
-0.365662	
-0.365845	
-0.365479	
-0.36615	
-0.366699	
-0.36731	
-0.366028	
-0.366211	
-0.365784	
-0.366028	
-0.367126	
-0.366516	
-0.366638	
-0.36676	
-0.365906	
-0.365845	
-0.36615	
-0.366455	
-0.365479	
-0.365234	
-0.364746	
-0.366699	
-0.365173	
-0.365234	
-0.364319	
-0.363464	
-0.364014	
-0.363831	
-0.363098	
-0.362061	
-0.361938	
-0.361511	
-0.36261	
-0.361755	
-0.362366	
-0.362915	
-0.362244	
-0.362488	
-0.363464	
-0.362549	
-0.362305	
-0.36261	
-0.361938	
-0.363037	
-0.362122	
-0.363098	
-0.362854	
-0.36261	
-0.36261	
-0.363342	
-0.363647	
-0.363342	
-0.362671	
-0.362122	
-0.364258	
-0.363342	
-0.363525	
-0.36438	
-0.364319	
-0.36438	
-0.364868	
-0.364563	
-0.363892	
-0.363892	
-0.36322	
-0.365723	
-0.364563	
-0.364868	
-0.365051	
-0.364746	
-0.365356	
-0.365723	
-0.366028	
-0.364868	
-0.365356	
-0.365173	
-0.366821	
-0.366333	
-0.36615	
-0.365967	
-0.365784	
-0.365051	
-0.36554	
-0.366272	
-0.365662	
-0.365295	
-0.365784	
-0.367126	
-0.365845	
-0.365784	
-0.366211	
-0.365845	
-0.365295	
-0.364929	
-0.365784	
-0.36499	
-0.364929	
-0.365479	
-0.366577	
-0.365967	
-0.365417	
-0.365295	
-0.364258	
-0.365295	
-0.365784	
-0.367004	
-0.366211	
-0.365479	
-0.366638	
-0.367554	
-0.366638	
-0.366699	
-0.367126	
-0.365967	
-0.366699	
-0.365295	
-0.366394	
-0.365784	
-0.364197	
-0.365356	
-0.366211	
-0.364929	
-0.365112	
-0.36499	
-0.36322	
-0.364502	
-0.364075	
-0.365051	
-0.363831	
-0.36261	
-0.363525	
-0.364319	
-0.363342	
-0.362915	
-0.362366	
-0.362244	
-0.363098	
-0.362	
-0.362976	
-0.362488	
-0.361023	
-0.362427	
-0.364685	
-0.363586	
-0.362671	
-0.363403	
-0.364441	
-0.363892	
-0.363525	
-0.365662	
-0.36499	
-0.364868	
-0.36676	
-0.367615	
-0.367249	
-0.368042	
-0.367432	
-0.368164	
-0.368408	
-0.368042	
-0.368652	
-0.368042	
-0.367249	
-0.368408	
-0.368652	
-0.36731	
-0.368469	
-0.367065	
-0.36731	
-0.367004	
-0.367615	
-0.367493	
-0.365723	
-0.364319	
-0.365479	
-0.36615	
-0.364807	
-0.365417	
-0.363281	
-0.361572	
-0.362549	
-0.361877	
-0.360779	
-0.360413	
-0.360168	
-0.360413	
-0.360962	
-0.361023	
-0.360413	
-0.359497	
-0.358887	
-0.360168	
-0.360229	
-0.359741	
-0.359802	
-0.358459	
-0.358948	
-0.360107	
-0.360046	
-0.359619	
-0.358826	
-0.358704	
-0.35968	
-0.360291	
-0.36084	
-0.359741	
-0.358215	
-0.360168	
-0.361145	
-0.362793	
-0.362061	
-0.361938	
-0.362305	
-0.362793	
-0.362183	
-0.36377	
-0.36322	
-0.362061	
-0.362732	
-0.364014	
-0.36499	
-0.364868	
-0.364929	
-0.364563	
-0.364685	
-0.363708	
-0.365234	
-0.364319	
-0.364319	
-0.365234	
-0.364868	
-0.365234	
-0.365417	
-0.364685	
-0.363708	
-0.363831	
-0.363586	
-0.364807	
-0.364197	
-0.363892	
-0.363892	
-0.36322	
-0.363586	
-0.363403	
-0.363708	
-0.364075	
-0.363281	
-0.363098	
-0.363953	
-0.362915	
-0.362488	
-0.362488	
-0.363342	
-0.363464	
-0.362793	
-0.36261	
-0.361877	
-0.362366	
-0.362976	
-0.364197	
-0.363281	
-0.363281	
-0.363647	
-0.363708	
-0.364319	
-0.363831	
-0.363464	
-0.363159	
-0.36261	
-0.364258	
-0.364563	
-0.363037	
-0.363159	
-0.362732	
-0.362854	
-0.364807	
-0.364441	
-0.363647	
-0.36322	
-0.362427	
-0.36438	
-0.364441	
-0.36438	
-0.363647	
-0.362854	
-0.363464	
-0.363831	
-0.363586	
-0.363159	
-0.363037	
-0.362	
-0.363342	
-0.363831	
-0.363464	
-0.363098	
-0.362488	
-0.363953	
-0.364197	
-0.365234	
-0.364624	
-0.365295	
-0.364319	
-0.366882	
-0.365723	
-0.365479	
-0.365967	
-0.36676	
-0.366882	
-0.366821	
-0.368164	
-0.367065	
-0.367126	
-0.36676	
-0.368347	
-0.367432	
-0.367798	
-0.366516	
-0.366943	
-0.367554	
-0.368042	
-0.368347	
-0.367432	
-0.367493	
-0.366028	
-0.367737	
-0.36676	
-0.366455	
-0.365356	
-0.366272	
-0.366394	
-0.365051	
-0.366028	
-0.364014	
-0.362549	
-0.361084	
-0.362976	
-0.361877	
-0.361389	
-0.361572	
-0.36145	
-0.361206	
-0.361389	
-0.363342	
-0.36145	
-0.361389	
-0.361328	
-0.360229	
-0.361145	
-0.361572	
-0.361206	
-0.361023	
-0.362183	
-0.362	
-0.363831	
-0.363281	
-0.363098	
-0.362488	
-0.36322	
-0.364136	
-0.364563	
-0.36438	
-0.364868	
-0.366455	
-0.36676	
-0.368103	
-0.367859	
-0.366943	
-0.365967	
-0.366516	
-0.36676	
-0.366272	
-0.366882	
-0.366028	
-0.367432	
-0.367249	
-0.368042	
-0.367798	
-0.366821	
-0.366211	
-0.365601	
-0.367249	
-0.366516	
-0.366211	
-0.364075	
-0.366821	
-0.366028	
-0.36676	
-0.366028	
-0.366394	
-0.365723	
-0.365051	
-0.364746	
-0.364807	
-0.365845	
-0.363586	
-0.365784	
-0.36499	
-0.364929	
-0.364502	
-0.365173	
-0.364746	
-0.362549	
-0.36322	
-0.364746	
-0.364136	
-0.361694	
-0.363525	
-0.36377	
-0.364075	
-0.363708	
-0.363525	
-0.363037	
-0.361755	
-0.36377	
-0.363953	
-0.363892	
-0.362305	
-0.363831	
-0.363586	
-0.363953	
-0.364197	
-0.364075	
-0.363403	
-0.361328	
-0.364014	
-0.363647	
-0.363525	
-0.36261	
-0.363525	
-0.363342	
-0.36322	
-0.363037	
-0.36322	
-0.363098	
-0.362427	
-0.363831	
-0.362671	
-0.362183	
-0.361206	
-0.362061	
-0.361816	
-0.362	
-0.362	
-0.361816	
-0.361877	
-0.360413	
-0.361633	
-0.361206	
-0.361328	
-0.361267	
-0.361877	
-0.362	
-0.362183	
-0.362671	
-0.363403	
-0.362793	
-0.362305	
-0.364258	
-0.362976	
-0.362915	
-0.362854	
-0.363464	
-0.364136	
-0.364502	
-0.364685	
-0.364563	
-0.364563	
-0.364075	
-0.365784	
-0.364685	
-0.365173	
-0.36499	
-0.365723	
-0.365051	
-0.365662	
-0.364929	
-0.364502	
-0.364319	
-0.363586	
-0.364441	
-0.362549	
-0.36377	
-0.361755	
-0.362427	
-0.362244	
-0.362305	
-0.361145	
-0.360718	
-0.359497	
-0.359131	
-0.360718	
-0.358398	
-0.35907	
-0.357544	
-0.358643	
-0.359131	
-0.359863	
-0.358765	
-0.359436	
-0.359924	
-0.358215	
-0.360352	
-0.359436	
-0.359619	
-0.358704	
-0.360901	
-0.36084	
-0.362	
-0.362488	
-0.361633	
-0.363159	
-0.362488	
-0.365723	
-0.364319	
-0.365173	
-0.365417	
-0.366028	
-0.36554	
-0.366943	
-0.36792	
-0.36676	
-0.367126	
-0.36615	
-0.367737	
-0.366699	
-0.366943	
-0.36676	
-0.367065	
-0.36731	
-0.368652	
-0.368896	
-0.367798	
-0.367493	
-0.366882	
-0.369202	
-0.367676	
-0.366211	
-0.366516	
-0.366577	
-0.367065	
-0.36731	
-0.367188	
-0.365723	
-0.365601	
-0.364746	
-0.365662	
-0.364258	
-0.363892	
-0.364136	
-0.36377	
-0.363892	
-0.364136	
-0.364319	
-0.362793	
-0.36261	
-0.362183	
-0.362854	
-0.361389	
-0.361023	
-0.362305	
-0.362122	
-0.361877	
-0.362244	
-0.362122	
-0.361389	
-0.361633	
-0.362122	
-0.363464	
-0.363098	
-0.362305	
-0.362732	
-0.361572	
-0.363159	
-0.36377	
-0.363525	
-0.36322	
-0.362976	
-0.363403	
-0.364014	
-0.363464	
-0.362061	
-0.363647	
-0.363098	
-0.363403	
-0.363159	
-0.363464	
-0.363708	
-0.363647	
-0.36377	
-0.364502	
-0.364441	
-0.361938	
-0.362915	
-0.362244	
-0.362305	
-0.362671	
-0.363037	
-0.362976	
-0.363159	
-0.361877	
-0.36261	
-0.363525	
-0.362	
-0.36322	
-0.362549	
-0.362976	
-0.36322	
-0.363281	
-0.362732	
-0.363159	
-0.361633	
-0.362915	
-0.362976	
-0.360779	
-0.361694	
-0.362	
-0.36261	
-0.362793	
-0.363342	
-0.362976	
-0.363159	
-0.361328	
-0.362915	
-0.363586	
-0.361755	
-0.362793	
-0.362671	
-0.362183	
-0.362549	
-0.362976	
-0.361938	
-0.361877	
-0.359741	
-0.360779	
-0.361816	
-0.360046	
-0.359924	
-0.360413	
-0.360046	
-0.35907	
-0.359924	
-0.35907	
-0.358521	
-0.356934	
-0.358765	
-0.358154	
-0.358032	
-0.358643	
-0.357666	
-0.357849	
-0.358643	
-0.358887	
-0.357483	
-0.357849	
-0.357422	
-0.357849	
-0.358154	
-0.358154	
-0.357971	
-0.358459	
-0.358093	
-0.359375	
	
