E:\DOCUMENTS AND SETTINGS\JPOTAS\MEUS DOCUMENTOS\UFRJ\RSCI-BM 12 WK SERIES\070719-RSCI-BM-02\RSCI-BM-02-LEMG\070719-RSCI-BM-02-LEMG-0005.ACQ
0.025000 msec/sample
1 channel
Analog input
Volts
CH1	
2000	
-0.394714	
-0.395264	
-0.394836	
-0.395264	
-0.395142	
-0.394775	
-0.394226	
-0.394836	
-0.393921	
-0.394775	
-0.39447	
-0.394226	
-0.394653	
-0.394897	
-0.394958	
-0.394531	
-0.395752	
-0.394836	
-0.393799	
-0.394104	
-0.393616	
-0.393799	
-0.394348	
-0.392944	
-0.394104	
-0.394348	
-0.39502	
-0.394104	
-0.394104	
-0.393799	
-0.393555	
-0.393799	
-0.392639	
-0.392395	
-0.392395	
-0.3927	
-0.3927	
-0.393555	
-0.393066	
-0.394226	
-0.39386	
-0.39325	
-0.393188	
-0.392883	
-0.392578	
-0.393188	
-0.392273	
-0.393372	
-0.393982	
-0.394531	
-0.394165	
-0.394531	
-0.394043	
-0.394226	
-0.395081	
-0.39447	
-0.394714	
-0.394043	
-0.39447	
-0.394531	
-0.395508	
-0.394714	
-0.395386	
-0.39502	
-0.394897	
-0.394348	
-0.393921	
-0.393677	
-0.394409	
-0.394165	
-0.394348	
-0.394409	
-0.394531	
-0.395081	
-0.395081	
-0.393982	
-0.39386	
-0.39447	
-0.393921	
-0.394287	
-0.394165	
-0.39447	
-0.394653	
-0.394836	
-0.395142	
-0.394836	
-0.394409	
-0.393982	
-0.393372	
-0.393127	
-0.393555	
-0.394775	
-0.394409	
-0.394714	
-0.395935	
-0.395203	
-0.396179	
-0.395996	
-0.396118	
-0.395142	
-0.395996	
-0.395569	
-0.395691	
-0.395203	
-0.395691	
-0.395691	
-0.395264	
-0.395386	
-0.395447	
-0.394775	
-0.395081	
-0.394226	
-0.393677	
-0.394165	
-0.394287	
-0.394531	
-0.395264	
-0.395264	
-0.394897	
-0.396057	
-0.395508	
-0.395935	
-0.395203	
-0.395813	
-0.394958	
-0.395264	
-0.395203	
-0.395447	
-0.396729	
-0.395996	
-0.396301	
-0.396484	
-0.396851	
-0.396301	
-0.39624	
-0.395813	
-0.396545	
-0.396729	
-0.397461	
-0.39679	
-0.396606	
-0.396667	
-0.397278	
-0.395935	
-0.396851	
-0.396484	
-0.395813	
-0.395813	
-0.396118	
-0.39502	
-0.396118	
-0.397278	
-0.396667	
-0.396423	
-0.396362	
-0.396973	
-0.396057	
-0.395935	
-0.396362	
-0.396545	
-0.397095	
-0.398499	
-0.398682	
-0.398682	
-0.398865	
-0.399963	
-0.398743	
-0.399292	
-0.39917	
-0.398376	
-0.397583	
-0.398743	
-0.398254	
-0.398071	
-0.398926	
-0.397766	
-0.397766	
-0.397766	
-0.397461	
-0.396118	
-0.395813	
-0.39624	
-0.396606	
-0.395447	
-0.396545	
-0.396423	
-0.395996	
-0.395874	
-0.396912	
-0.395203	
-0.395874	
-0.395935	
-0.39447	
-0.394409	
-0.395203	
-0.395081	
-0.395508	
-0.38739	
-0.384827	
-0.386292	
-0.386353	
-0.38678	
-0.386597	
-0.397217	
-0.396973	
-0.396301	
-0.395813	
-0.395935	
-0.396362	
-0.395325	
-0.395325	
-0.395935	
-0.395447	
-0.39563	
-0.395752	
-0.394653	
-0.394775	
-0.384949	
-0.384399	
-0.385864	
-0.386475	
-0.386292	
-0.387207	
-0.397949	
-0.399231	
-0.3974	
-0.396667	
-0.397217	
-0.397278	
-0.396851	
-0.39801	
-0.399048	
-0.398438	
-0.39856	
-0.39978	
-0.399109	
-0.398804	
-0.398865	
-0.397278	
-0.397339	
-0.397583	
-0.397644	
-0.397339	
-0.397583	
-0.395996	
-0.395996	
-0.394348	
-0.395264	
-0.394409	
-0.392883	
-0.394104	
-0.394531	
-0.39563	
-0.3974	
-0.399536	
-0.400879	
-0.404114	
-0.406372	
-0.409119	
-0.411804	
-0.414795	
-0.420532	
-0.426147	
-0.430603	
-0.437134	
-0.442871	
-0.447876	
-0.454041	
-0.459717	
-0.465088	
-0.469299	
-0.473083	
-0.478333	
-0.482483	
-0.485474	
-0.490173	
-0.493896	
-0.496216	
-0.498474	
-0.50061	
-0.502319	
-0.502991	
-0.50293	
-0.503662	
-0.504028	
-0.503235	
-0.50415	
-0.504089	
-0.503418	
-0.503662	
-0.504211	
-0.50415	
-0.503784	
-0.505371	
-0.505432	
-0.507629	
-0.509521	
-0.512268	
-0.514099	
-0.51593	
-0.517944	
-0.520569	
-0.521301	
-0.52301	
-0.524048	
-0.523499	
-0.523193	
-0.522949	
-0.521606	
-0.520264	
-0.517334	
-0.514221	
-0.51062	
-0.506165	
-0.502563	
-0.497253	
-0.491394	
-0.487122	
-0.482483	
-0.477234	
-0.473633	
-0.469482	
-0.46405	
-0.459778	
-0.455322	
-0.451416	
-0.446106	
-0.441101	
-0.43634	
-0.43158	
-0.425964	
-0.420959	
-0.416382	
-0.409912	
-0.403625	
-0.398865	
-0.391785	
-0.385193	
-0.377014	
-0.368713	
-0.360535	
-0.351807	
-0.342285	
-0.333984	
-0.324463	
-0.314514	
-0.304871	
-0.294983	
-0.286255	
-0.277222	
-0.26886	
-0.259766	
-0.254578	
-0.249084	
-0.24469	
-0.242065	
-0.23938	
-0.238281	
-0.237854	
-0.238708	
-0.239807	
-0.241699	
-0.24353	
-0.247986	
-0.251465	
-0.255737	
-0.260071	
-0.263916	
-0.26886	
-0.272949	
-0.278076	
-0.28186	
-0.286133	
-0.290283	
-0.295532	
-0.299011	
-0.304321	
-0.308411	
-0.313049	
-0.317871	
-0.321716	
-0.326111	
-0.329224	
-0.332092	
-0.334534	
-0.338074	
-0.340393	
-0.343445	
-0.344849	
-0.346985	
-0.348755	
-0.350525	
-0.351624	
-0.35321	
-0.35321	
-0.355347	
-0.356812	
-0.358032	
-0.360107	
-0.361206	
-0.362183	
-0.362793	
-0.364685	
-0.364746	
-0.366028	
-0.365845	
-0.368347	
-0.368652	
-0.370117	
-0.371399	
-0.372253	
-0.37384	
-0.374329	
-0.376282	
-0.376648	
-0.37738	
-0.378235	
-0.380005	
-0.380066	
-0.381897	
-0.382202	
-0.38269	
-0.383179	
-0.383484	
-0.383789	
-0.382996	
-0.382568	
-0.381775	
-0.382141	
-0.38208	
-0.383057	
-0.382507	
-0.382019	
-0.382202	
-0.382324	
-0.382751	
-0.382202	
-0.381409	
-0.38031	
-0.381592	
-0.381836	
-0.382507	
-0.381897	
-0.381836	
-0.382019	
-0.38324	
-0.384827	
-0.384644	
-0.384155	
-0.383728	
-0.384583	
-0.385376	
-0.385803	
-0.386108	
-0.386536	
-0.386353	
-0.387756	
-0.389771	
-0.388794	
-0.388123	
-0.389282	
-0.389587	
-0.391479	
-0.391541	
-0.39209	
-0.392395	
-0.393311	
-0.394043	
-0.394836	
-0.394409	
-0.39386	
-0.391785	
-0.394897	
-0.395081	
-0.394531	
-0.394409	
-0.395081	
-0.395996	
-0.395142	
-0.394836	
-0.394104	
-0.393188	
-0.392517	
-0.393921	
-0.392822	
-0.392883	
-0.392273	
-0.392517	
-0.3927	
-0.393982	
-0.391602	
-0.389893	
-0.389893	
-0.390503	
-0.389954	
-0.388489	
-0.388184	
-0.388367	
-0.387878	
-0.388306	
-0.388367	
-0.387207	
-0.386658	
-0.385803	
-0.388062	
-0.387146	
-0.387024	
-0.387024	
-0.387207	
-0.388062	
-0.38855	
-0.387817	
-0.387024	
-0.387207	
-0.385681	
-0.387512	
-0.387146	
-0.387207	
-0.386292	
-0.387268	
-0.388367	
-0.38916	
-0.387329	
-0.387512	
-0.387329	
-0.387695	
-0.388611	
-0.388428	
-0.388367	
-0.38739	
-0.388672	
-0.389526	
-0.390259	
-0.388855	
-0.388062	
-0.389038	
-0.38916	
-0.389832	
-0.389465	
-0.389648	
-0.388977	
-0.389954	
-0.390869	
-0.391602	
-0.39093	
-0.390808	
-0.391174	
-0.391235	
-0.392578	
-0.392761	
-0.392578	
-0.391968	
-0.393494	
-0.394226	
-0.39447	
-0.394409	
-0.39325	
-0.393616	
-0.393738	
-0.394897	
-0.394165	
-0.393921	
-0.393799	
-0.39447	
-0.395386	
-0.39502	
-0.395203	
-0.394775	
-0.394653	
-0.393677	
-0.39447	
-0.394653	
-0.395264	
-0.395142	
-0.394897	
-0.396057	
-0.395691	
-0.396118	
-0.395874	
-0.395508	
-0.395325	
-0.395386	
-0.395386	
-0.395325	
-0.394836	
-0.395081	
-0.395935	
-0.39563	
-0.394958	
-0.394836	
-0.394226	
-0.39447	
-0.394348	
-0.395081	
-0.394897	
-0.394531	
-0.393982	
-0.394531	
-0.394958	
-0.394165	
-0.392944	
-0.393372	
-0.393188	
-0.39209	
-0.392517	
-0.3927	
-0.392029	
-0.39209	
-0.391968	
-0.392212	
-0.391113	
-0.391235	
-0.390625	
-0.390747	
-0.389709	
-0.389465	
-0.39032	
-0.389832	
-0.390442	
-0.389771	
-0.390137	
-0.390259	
-0.39032	
-0.388916	
-0.389648	
-0.389587	
-0.388977	
-0.389954	
-0.390198	
-0.390442	
-0.390137	
-0.39032	
-0.390137	
-0.390564	
-0.389648	
-0.390015	
-0.389526	
-0.38916	
-0.389771	
-0.38916	
-0.389954	
-0.388855	
-0.388977	
-0.38855	
-0.38916	
-0.388489	
-0.389526	
-0.388916	
-0.389343	
-0.390381	
-0.390198	
-0.391113	
-0.391357	
-0.392029	
-0.391968	
-0.392883	
-0.393005	
-0.393372	
-0.392883	
-0.393555	
-0.393982	
-0.393982	
-0.394958	
-0.395203	
-0.394958	
-0.394409	
-0.394775	
-0.394226	
-0.393372	
-0.393127	
-0.392883	
-0.393188	
-0.393005	
-0.392273	
-0.393188	
-0.39386	
-0.393372	
-0.393982	
-0.393799	
-0.394287	
-0.393982	
-0.393799	
-0.393311	
-0.393555	
-0.39325	
-0.393555	
-0.39386	
-0.393188	
-0.392578	
-0.393188	
-0.393372	
-0.392822	
-0.393982	
-0.392151	
-0.392883	
-0.3927	
-0.393433	
-0.3927	
-0.392578	
-0.392212	
-0.392212	
-0.39209	
-0.392029	
-0.391541	
-0.39209	
-0.392212	
-0.392395	
-0.3927	
-0.392639	
-0.392944	
-0.392334	
-0.392639	
-0.392273	
-0.392334	
-0.391296	
-0.393066	
-0.39209	
-0.392761	
-0.392761	
-0.392761	
-0.393616	
-0.39325	
-0.393738	
-0.393433	
-0.393555	
-0.392212	
-0.394226	
-0.392395	
-0.39325	
-0.393494	
-0.393738	
-0.394409	
-0.393555	
-0.392822	
-0.393372	
-0.394226	
-0.392334	
-0.393677	
-0.392456	
-0.392883	
-0.393005	
-0.393677	
-0.393494	
-0.393311	
-0.393005	
-0.393066	
-0.393616	
-0.3927	
-0.39386	
-0.392761	
-0.393188	
-0.39325	
-0.394531	
-0.393311	
-0.393005	
-0.392944	
-0.393188	
-0.393188	
-0.392578	
-0.394653	
-0.394043	
-0.394043	
-0.393738	
-0.394775	
-0.394409	
-0.394409	
-0.39447	
-0.39447	
-0.393799	
-0.393433	
-0.39502	
-0.394287	
-0.393799	
-0.394226	
-0.39563	
-0.394836	
-0.395081	
-0.394653	
-0.39386	
-0.392822	
-0.393494	
-0.394531	
-0.39386	
-0.392944	
-0.393555	
-0.394531	
-0.394104	
-0.395142	
-0.394958	
-0.394653	
-0.394226	
-0.395264	
-0.394775	
-0.394714	
-0.394836	
-0.394714	
-0.395447	
-0.395691	
-0.396973	
-0.396362	
-0.394531	
-0.396179	
-0.396545	
-0.396484	
-0.396606	
-0.396545	
-0.394897	
-0.395447	
-0.3974	
-0.396118	
-0.396362	
-0.395813	
-0.395813	
-0.395996	
-0.396423	
-0.396606	
-0.39624	
-0.395325	
-0.395935	
-0.3974	
-0.396118	
-0.396973	
-0.396667	
-0.396545	
-0.395447	
-0.39679	
-0.398132	
-0.398132	
-0.398743	
-0.398865	
-0.399658	
-0.399292	
-0.400085	
-0.399475	
-0.398804	
-0.398743	
-0.398865	
-0.399231	
-0.398926	
-0.398315	
-0.397522	
-0.397705	
-0.397766	
-0.398254	
-0.397827	
-0.396179	
-0.396729	
-0.39679	
-0.397278	
-0.39679	
-0.396362	
-0.395447	
-0.396057	
-0.396851	
-0.396301	
-0.396484	
-0.394958	
-0.395752	
-0.395264	
-0.397217	
-0.396851	
-0.395813	
-0.395752	
-0.396118	
-0.397339	
-0.396423	
-0.396667	
-0.395569	
-0.395386	
-0.395386	
-0.396545	
-0.395813	
-0.39563	
-0.395203	
-0.395752	
-0.396057	
-0.395996	
-0.396118	
-0.395203	
-0.395325	
-0.39447	
-0.395447	
-0.395691	
-0.395325	
-0.395874	
-0.395813	
-0.395447	
-0.396057	
-0.397156	
-0.396484	
-0.395386	
-0.395691	
-0.39563	
-0.397217	
-0.397766	
-0.397461	
-0.397461	
-0.397522	
-0.398621	
-0.398804	
-0.398743	
-0.397461	
-0.397949	
-0.397766	
-0.398193	
-0.398193	
-0.397766	
-0.396973	
-0.397644	
-0.398254	
-0.398438	
-0.398254	
-0.396423	
-0.396484	
-0.39679	
-0.397888	
-0.396851	
-0.397583	
-0.396729	
-0.397156	
-0.396912	
-0.397644	
-0.39801	
-0.397461	
-0.396973	
-0.396851	
-0.39801	
-0.397522	
-0.398071	
-0.396851	
-0.397339	
-0.397461	
-0.397827	
-0.398132	
-0.397461	
-0.396667	
-0.397278	
-0.398499	
-0.398315	
-0.398376	
-0.398132	
-0.398254	
-0.39856	
-0.399597	
-0.399597	
-0.398682	
-0.398682	
-0.398132	
-0.399597	
-0.398926	
-0.39917	
-0.399048	
-0.398621	
-0.398376	
-0.398132	
-0.399658	
-0.398621	
-0.398193	
-0.398132	
-0.398743	
-0.39856	
-0.398499	
-0.399475	
-0.397522	
-0.398987	
-0.398926	
-0.399475	
-0.399475	
-0.398865	
-0.397949	
-0.39856	
-0.400513	
-0.400269	
-0.400391	
-0.400269	
-0.400574	
-0.400391	
-0.401489	
-0.40155	
-0.400574	
-0.400024	
-0.399353	
-0.40033	
-0.399231	
-0.399414	
-0.399048	
-0.398376	
-0.39801	
-0.397949	
-0.398499	
-0.397278	
-0.397034	
-0.395996	
-0.39679	
-0.396851	
-0.396484	
-0.397339	
-0.395569	
-0.397034	
-0.397339	
-0.39856	
-0.397888	
-0.398193	
-0.3974	
-0.397888	
-0.39978	
-0.398804	
-0.39917	
-0.398438	
-0.398376	
-0.398804	
-0.398438	
-0.398865	
-0.398254	
-0.397095	
-0.397156	
-0.399414	
-0.398743	
-0.398804	
-0.398804	
-0.39917	
-0.399109	
-0.398804	
-0.400757	
-0.399048	
-0.39856	
-0.398682	
-0.399719	
-0.399658	
-0.399536	
-0.400452	
-0.399292	
-0.400146	
-0.400635	
-0.40094	
-0.400024	
-0.399719	
-0.399841	
-0.399902	
-0.400635	
-0.400208	
-0.40033	
-0.399292	
-0.400269	
-0.400818	
-0.400269	
-0.400085	
-0.399475	
-0.399902	
-0.398682	
-0.400024	
-0.399109	
-0.399597	
-0.398926	
-0.398621	
-0.399231	
-0.397766	
-0.399597	
-0.39856	
-0.39856	
-0.397888	
-0.399231	
-0.39917	
-0.399231	
-0.399841	
-0.398987	
-0.398987	
-0.398743	
-0.399841	
-0.398743	
-0.398682	
-0.39917	
-0.399414	
-0.399109	
-0.398682	
-0.398987	
-0.398682	
-0.398865	
-0.399109	
-0.398804	
-0.399597	
-0.397522	
-0.398254	
-0.397888	
-0.399109	
-0.398376	
-0.398621	
-0.398621	
-0.398743	
-0.399719	
-0.39801	
-0.399353	
-0.397583	
-0.397583	
-0.396667	
-0.398743	
-0.397644	
-0.397644	
-0.397827	
-0.397583	
-0.398315	
-0.397278	
-0.398621	
-0.397278	
-0.397339	
-0.397278	
-0.397095	
-0.397766	
-0.398071	
-0.397705	
-0.398132	
-0.39856	
-0.398499	
-0.398193	
-0.39917	
-0.39917	
-0.398315	
-0.398438	
-0.398621	
-0.398621	
-0.398376	
-0.39801	
-0.398315	
-0.39801	
-0.397827	
-0.398254	
-0.396729	
-0.397583	
-0.396545	
-0.39801	
-0.397217	
-0.396484	
-0.396545	
-0.396667	
-0.396423	
-0.395752	
-0.396118	
-0.394897	
-0.39563	
-0.395447	
-0.395752	
-0.396179	
-0.39624	
-0.395935	
-0.397461	
-0.397278	
-0.396606	
-0.397034	
-0.396667	
-0.396667	
-0.396667	
-0.39624	
-0.396973	
-0.396606	
-0.396667	
-0.39624	
-0.397095	
-0.396545	
-0.396179	
-0.396179	
-0.395142	
-0.394592	
-0.393066	
-0.395081	
-0.394104	
-0.393799	
-0.394165	
-0.394104	
-0.393921	
-0.393738	
-0.394287	
-0.393433	
-0.394714	
-0.39386	
-0.394714	
-0.395386	
-0.39563	
-0.396179	
-0.396545	
-0.397522	
-0.396362	
-0.397034	
-0.396729	
-0.396851	
-0.396912	
-0.395996	
-0.397522	
-0.397095	
-0.397522	
-0.397461	
-0.397827	
-0.397339	
-0.397827	
-0.398376	
-0.397583	
-0.3974	
-0.397156	
-0.398193	
-0.397461	
-0.3974	
-0.397888	
-0.397644	
-0.397522	
-0.397888	
-0.398499	
-0.397766	
-0.397644	
-0.39679	
-0.398132	
-0.398132	
-0.398376	
-0.398621	
-0.3974	
-0.398193	
-0.398132	
-0.397888	
-0.397827	
-0.397888	
-0.397461	
-0.397034	
-0.398804	
-0.397827	
-0.397278	
-0.397217	
-0.396912	
-0.396912	
-0.396729	
-0.395691	
-0.395508	
-0.39502	
-0.395386	
-0.396362	
-0.395874	
-0.395142	
-0.395935	
-0.396301	
-0.395081	
-0.395203	
-0.395386	
-0.395569	
-0.395447	
-0.393982	
-0.396057	
-0.395874	
-0.395508	
-0.395813	
-0.395752	
-0.395874	
-0.395569	
-0.396484	
-0.395264	
-0.395508	
-0.395081	
-0.394653	
-0.396423	
-0.396057	
-0.396118	
-0.395569	
-0.395447	
-0.395508	
-0.39502	
-0.395203	
-0.395569	
-0.395203	
-0.39502	
-0.395447	
-0.39563	
-0.39563	
-0.39624	
-0.394592	
-0.39447	
-0.394592	
-0.394409	
-0.394165	
-0.394165	
-0.392883	
-0.394531	
-0.394226	
-0.393677	
-0.394104	
-0.39386	
-0.393616	
-0.393066	
-0.394775	
-0.394104	
-0.393982	
-0.39386	
-0.393005	
-0.395142	
-0.394409	
-0.394409	
-0.394348	
-0.394104	
-0.394226	
-0.393494	
-0.394104	
-0.393677	
-0.393555	
-0.393005	
-0.393433	
-0.393494	
-0.393616	
-0.393555	
-0.391785	
-0.392517	
-0.391907	
-0.391724	
-0.391907	
-0.391907	
-0.390259	
-0.392212	
-0.392395	
-0.391785	
-0.393066	
-0.3927	
-0.392822	
-0.393005	
-0.394226	
-0.393555	
-0.393677	
-0.393799	
-0.394592	
-0.395874	
-0.394775	
-0.395264	
-0.395325	
-0.39563	
-0.395996	
-0.395874	
-0.395081	
-0.395569	
-0.395508	
-0.39447	
-0.395203	
-0.394653	
-0.394592	
-0.39386	
-0.393799	
-0.393555	
-0.393433	
-0.394348	
-0.393616	
-0.393433	
-0.392761	
-0.393982	
-0.394775	
-0.393799	
-0.394531	
-0.393982	
-0.393738	
-0.39386	
-0.394775	
-0.394043	
-0.393494	
-0.393433	
-0.393616	
-0.393921	
-0.393555	
-0.393555	
-0.393188	
-0.393433	
-0.392883	
-0.392822	
-0.392212	
-0.393188	
-0.392456	
-0.391235	
-0.392517	
-0.392639	
-0.3927	
-0.392517	
-0.391602	
-0.392212	
-0.392395	
-0.393311	
-0.3927	
-0.392395	
-0.39093	
-0.3927	
-0.393311	
-0.392639	
-0.393433	
-0.393127	
-0.393311	
-0.393127	
-0.394165	
-0.391907	
-0.393372	
-0.393188	
-0.393555	
-0.393982	
-0.393921	
-0.393921	
-0.393433	
-0.393982	
-0.393616	
-0.393066	
-0.393372	
-0.394043	
-0.393066	
-0.392639	
-0.393921	
-0.393799	
-0.393494	
-0.393433	
-0.392273	
-0.392456	
-0.3927	
-0.394287	
-0.393127	
-0.39325	
-0.392029	
-0.393127	
-0.394287	
-0.39325	
-0.394043	
-0.392944	
-0.393005	
-0.393188	
-0.394653	
-0.391907	
-0.393066	
-0.393005	
-0.393494	
-0.394226	
-0.393677	
-0.394043	
-0.394592	
-0.394531	
-0.394287	
-0.394897	
-0.394348	
-0.394592	
-0.394104	
-0.394043	
-0.395386	
-0.395081	
-0.394775	
-0.394287	
-0.394226	
-0.394531	
-0.393188	
-0.39502	
-0.394226	
-0.394165	
-0.392029	
-0.393799	
-0.394287	
-0.39386	
-0.39502	
-0.393921	
-0.394348	
-0.393921	
-0.395752	
-0.393433	
-0.394104	
-0.393982	
-0.394409	
-0.395081	
-0.394836	
-0.395203	
-0.395203	
-0.394897	
-0.395142	
-0.396301	
-0.395447	
-0.395752	
-0.395447	
-0.395508	
-0.396545	
-0.397156	
-0.396362	
-0.396423	
-0.395996	
-0.395935	
-0.395203	
-0.395813	
-0.394775	
-0.395691	
-0.393555	
-0.395691	
-0.396362	
-0.39563	
-0.396484	
-0.395203	
-0.396118	
-0.395203	
-0.397034	
-0.394836	
-0.395264	
-0.395264	
-0.395813	
-0.396362	
-0.39679	
-0.397583	
-0.397888	
-0.397644	
-0.398193	
-0.398865	
-0.398132	
-0.398132	
-0.397644	
-0.396851	
-0.398132	
-0.398621	
-0.397888	
-0.397339	
-0.396912	
-0.396179	
-0.395386	
-0.396545	
-0.395813	
-0.395691	
-0.393921	
-0.395386	
-0.395447	
-0.395142	
-0.395935	
-0.394775	
-0.394714	
-0.394409	
-0.395996	
-0.393616	
-0.394287	
-0.393555	
-0.394043	
-0.393921	
-0.394592	
-0.39447	
-0.394104	
-0.39447	
-0.394348	
-0.394409	
-0.394653	
-0.395081	
-0.394287	
-0.393311	
-0.394836	
-0.394775	
-0.394348	
-0.394653	
-0.394592	
-0.394409	
-0.393921	
-0.395203	
-0.393555	
-0.393677	
-0.392578	
-0.394104	
-0.395203	
-0.394348	
-0.394897	
-0.394531	
-0.395264	
-0.394653	
-0.396484	
-0.39447	
-0.395447	
-0.395264	
-0.395813	
-0.395813	
-0.396179	
-0.396301	
-0.396606	
-0.397339	
-0.397095	
-0.396057	
-0.397156	
-0.397278	
-0.396912	
-0.396179	
-0.397217	
-0.396973	
-0.396912	
-0.397644	
-0.395813	
-0.396729	
-0.396423	
-0.396973	
-0.395142	
-0.395752	
-0.394348	
-0.396118	
-0.396851	
-0.395691	
-0.396179	
-0.395691	
-0.39624	
-0.396057	
-0.39679	
-0.395386	
-0.396057	
-0.395447	
-0.395813	
-0.396484	
-0.39624	
-0.396301	
-0.39679	
-0.397095	
-0.395874	
-0.396118	
-0.396484	
-0.396545	
-0.396851	
-0.395874	
-0.397461	
-0.397705	
-0.397766	
-0.397766	
-0.396667	
-0.397766	
-0.398132	
-0.398865	
-0.396912	
-0.398132	
-0.397095	
-0.397766	
-0.39856	
-0.398071	
-0.397766	
-0.397949	
-0.398132	
-0.397461	
-0.397827	
-0.3974	
-0.397644	
-0.396851	
-0.397278	
-0.397827	
-0.3974	
-0.397888	
-0.398499	
-0.397949	
-0.397888	
-0.398254	
-0.398193	
-0.398193	
-0.398132	
-0.398071	
-0.399231	
-0.399536	
-0.399414	
-0.399719	
-0.399048	
-0.399292	
-0.399353	
-0.399963	
-0.397583	
-0.398438	
-0.397644	
-0.397888	
-0.397888	
-0.396973	
-0.396851	
-0.39624	
-0.397095	
-0.395935	
-0.395447	
-0.395325	
-0.395386	
-0.39502	
-0.394043	
-0.395264	
-0.395203	
-0.395142	
-0.39624	
-0.39502	
-0.395569	
-0.396057	
-0.397644	
-0.396667	
-0.397217	
-0.396057	
-0.397156	
-0.398132	
-0.397095	
-0.397461	
-0.396423	
-0.397339	
-0.396729	
-0.397705	
-0.39563	
-0.396484	
-0.396912	
-0.396606	
-0.397705	
-0.397339	
-0.397583	
-0.397461	
-0.398254	
-0.397705	
-0.3974	
-0.397766	
-0.398132	
-0.397827	
-0.397034	
-0.398132	
-0.397888	
-0.398438	
-0.399048	
-0.397583	
-0.398438	
-0.398438	
-0.399963	
-0.398621	
-0.399414	
-0.398193	
-0.398987	
-0.39978	
-0.398621	
-0.399536	
-0.398193	
-0.398254	
-0.398193	
-0.398682	
-0.397095	
-0.397583	
-0.397461	
-0.396729	
-0.39801	
-0.397522	
-0.3974	
-0.3974	
-0.397522	
-0.3974	
-0.396423	
-0.397644	
-0.397278	
-0.397583	
-0.39624	
-0.397705	
-0.397705	
-0.397522	
-0.398193	
-0.397156	
-0.397339	
-0.397156	
-0.399048	
-0.397827	
-0.397766	
-0.397095	
-0.397339	
-0.398315	
-0.397095	
-0.3974	
-0.396851	
-0.396912	
-0.397217	
-0.39679	
-0.396729	
-0.397156	
-0.396912	
-0.396851	
-0.397644	
-0.397156	
-0.396912	
-0.397766	
-0.398071	
-0.397095	
-0.396729	
-0.397339	
-0.396729	
-0.39624	
-0.394897	
-0.396362	
-0.396362	
-0.396423	
-0.395996	
-0.395752	
-0.396118	
-0.396362	
-0.396423	
-0.396301	
-0.396423	
-0.396362	
-0.396301	
-0.397339	
-0.39624	
-0.397217	
-0.398132	
-0.396851	
-0.397217	
-0.3974	
-0.397034	
-0.397095	
-0.396851	
-0.395691	
-0.397339	
-0.39679	
-0.396484	
-0.396606	
-0.397095	
-0.396667	
-0.396118	
-0.395996	
-0.396118	
-0.39563	
-0.394409	
-0.395264	
-0.395142	
-0.395569	
-0.394714	
-0.394775	
-0.394653	
-0.394714	
-0.395508	
-0.394653	
-0.394653	
-0.394409	
-0.394653	
-0.395691	
-0.395081	
-0.395203	
-0.395508	
-0.395447	
-0.39502	
-0.395386	
-0.394409	
-0.395142	
-0.39502	
-0.393677	
-0.395569	
-0.394775	
-0.394958	
-0.395081	
-0.395203	
-0.393494	
-0.393372	
-0.393372	
-0.392822	
-0.392151	
-0.391479	
-0.392212	
-0.392456	
-0.392334	
-0.392212	
-0.392029	
-0.392761	
-0.392822	
-0.393188	
-0.392883	
-0.393738	
-0.393555	
-0.393921	
-0.395508	
-0.394653	
-0.394836	
-0.395264	
-0.39502	
-0.394836	
-0.395386	
-0.394653	
-0.395325	
-0.395447	
-0.394165	
-0.396301	
-0.39563	
-0.396118	
-0.396179	
-0.39563	
-0.396179	
-0.39624	
-0.395813	
-0.395874	
-0.395874	
-0.395081	
-0.39563	
-0.396912	
-0.395752	
-0.395935	
-0.396912	
-0.396606	
-0.396606	
-0.396362	
-0.396118	
-0.396118	
-0.396301	
-0.395264	
-0.396545	
-0.396301	
-0.396301	
-0.397156	
-0.395935	
-0.396851	
-0.396423	
-0.396729	
-0.396301	
-0.395996	
-0.394592	
-0.395813	
-0.396179	
-0.395142	
-0.395447	
-0.395874	
-0.395081	
-0.394897	
-0.394592	
-0.394592	
-0.394409	
-0.393555	
-0.393982	
-0.394653	
-0.394531	
-0.393982	
-0.394775	
-0.394104	
-0.39386	
-0.393799	
-0.39502	
-0.394165	
-0.39386	
-0.3927	
-0.394592	
-0.394775	
-0.394897	
-0.395386	
-0.394165	
-0.394714	
-0.394287	
-0.394592	
-0.394226	
-0.394409	
-0.394226	
-0.394104	
-0.395081	
-0.394348	
-0.39447	
-0.394714	
-0.393799	
-0.394043	
-0.392639	
-0.394653	
-0.393982	
-0.393494	
-0.393188	
-0.394226	
-0.393555	
-0.393372	
-0.39447	
-0.391968	
-0.392517	
-0.392273	
-0.393433	
-0.392578	
-0.392395	
-0.391235	
-0.391907	
-0.392883	
-0.39209	
-0.392761	
-0.392212	
-0.392273	
-0.392212	
-0.392761	
-0.392822	
-0.392212	
-0.392273	
-0.391296	
-0.392822	
-0.392456	
-0.392456	
-0.392639	
-0.391663	
-0.391968	
-0.390869	
-0.392273	
-0.391541	
-0.391357	
-0.391113	
-0.391541	
-0.391479	
-0.391052	
-0.391968	
-0.389648	
-0.390137	
-0.389343	
-0.39093	
-0.389954	
-0.390076	
-0.38916	
-0.389648	
-0.391602	
-0.391235	
-0.392639	
-0.391785	
-0.392639	
-0.392517	
-0.392517	
-0.394104	
-0.393372	
-0.393494	
-0.39325	
-0.394226	
-0.394104	
-0.394226	
-0.394897	
-0.393188	
-0.394165	
-0.393738	
-0.394531	
	
