E:\DOCUMENTS AND SETTINGS\JPOTAS\MEUS DOCUMENTOS\UFRJ\RSCI-BM 12 WK SERIES\070719-RSCI-BM-02\RSCI-BM-02-LEMG\070719-RSCI-BM-02-LEMG-0016.ACQ
0.025000 msec/sample
1 channel
Analog input
Volts
CH1	
2000	
-0.3927	
-0.393005	
-0.392944	
-0.392822	
-0.392639	
-0.393494	
-0.393005	
-0.392639	
-0.391235	
-0.391602	
-0.392273	
-0.39209	
-0.392151	
-0.392395	
-0.392395	
-0.39325	
-0.394226	
-0.392883	
-0.392639	
-0.392578	
-0.393127	
-0.393311	
-0.393494	
-0.393738	
-0.393982	
-0.393677	
-0.39386	
-0.394592	
-0.394043	
-0.393372	
-0.393494	
-0.392883	
-0.393921	
-0.393433	
-0.393372	
-0.393982	
-0.393677	
-0.394531	
-0.394897	
-0.394592	
-0.394165	
-0.394836	
-0.393677	
-0.394226	
-0.394043	
-0.394043	
-0.394165	
-0.394897	
-0.395386	
-0.395325	
-0.394836	
-0.394409	
-0.394836	
-0.393433	
-0.393433	
-0.392761	
-0.392151	
-0.392578	
-0.392029	
-0.3927	
-0.392639	
-0.391785	
-0.390869	
-0.391846	
-0.390564	
-0.391052	
-0.390198	
-0.390137	
-0.390137	
-0.390015	
-0.390686	
-0.390381	
-0.390137	
-0.389832	
-0.39093	
-0.390442	
-0.390686	
-0.390564	
-0.390564	
-0.391418	
-0.391479	
-0.392334	
-0.392578	
-0.392151	
-0.391663	
-0.392456	
-0.391541	
-0.391968	
-0.391541	
-0.391724	
-0.392395	
-0.392334	
-0.393616	
-0.393982	
-0.393616	
-0.393494	
-0.394409	
-0.394165	
-0.39447	
-0.39447	
-0.394653	
-0.395752	
-0.395935	
-0.397034	
-0.397278	
-0.397522	
-0.397461	
-0.398621	
-0.398743	
-0.399658	
-0.399353	
-0.399536	
-0.400635	
-0.401001	
-0.401978	
-0.4021	
-0.401489	
-0.400879	
-0.400635	
-0.400574	
-0.400574	
-0.399109	
-0.399536	
-0.399719	
-0.399658	
-0.399963	
-0.399597	
-0.39917	
-0.398865	
-0.398499	
-0.397949	
-0.398376	
-0.397034	
-0.397339	
-0.397095	
-0.396301	
-0.396362	
-0.396545	
-0.395813	
-0.395142	
-0.394409	
-0.394348	
-0.394409	
-0.39386	
-0.394287	
-0.394104	
-0.394104	
-0.394348	
-0.394348	
-0.394409	
-0.39386	
-0.393433	
-0.393738	
-0.394043	
-0.393555	
-0.393005	
-0.393555	
-0.393799	
-0.39386	
-0.394226	
-0.39386	
-0.393555	
-0.393372	
-0.393188	
-0.393494	
-0.394043	
-0.393433	
-0.393921	
-0.393677	
-0.394104	
-0.394592	
-0.394287	
-0.394409	
-0.393921	
-0.394043	
-0.394531	
-0.395386	
-0.395386	
-0.395386	
-0.395264	
-0.395996	
-0.396484	
-0.39624	
-0.396301	
-0.395813	
-0.395569	
-0.396179	
-0.396179	
-0.395691	
-0.396301	
-0.396606	
-0.397156	
-0.396667	
-0.39624	
-0.396423	
-0.395752	
-0.395142	
-0.385437	
-0.383118	
-0.383789	
-0.384399	
-0.384338	
-0.384216	
-0.39447	
-0.395264	
-0.393982	
-0.393311	
-0.393188	
-0.392883	
-0.392029	
-0.391968	
-0.392273	
-0.391846	
-0.391968	
-0.392273	
-0.392822	
-0.392517	
-0.391846	
-0.392456	
-0.392273	
-0.392578	
-0.39209	
-0.392456	
-0.392517	
-0.392639	
-0.392944	
-0.393433	
-0.3927	
-0.392639	
-0.392212	
-0.392151	
-0.392212	
-0.392578	
-0.392578	
-0.393188	
-0.392761	
-0.3927	
-0.393311	
-0.392883	
-0.391785	
-0.391357	
-0.391296	
-0.391296	
-0.390686	
-0.389648	
-0.389282	
-0.389526	
-0.387878	
-0.387878	
-0.38623	
-0.385437	
-0.384216	
-0.384644	
-0.384949	
-0.385559	
-0.386597	
-0.38739	
-0.39032	
-0.391479	
-0.393677	
-0.396484	
-0.400024	
-0.40271	
-0.407043	
-0.410767	
-0.414856	
-0.419922	
-0.424866	
-0.431335	
-0.437439	
-0.442566	
-0.448425	
-0.454163	
-0.460144	
-0.464844	
-0.471191	
-0.475586	
-0.480225	
-0.483459	
-0.485168	
-0.487976	
-0.487427	
-0.487183	
-0.485596	
-0.486145	
-0.48468	
-0.484619	
-0.48468	
-0.484619	
-0.486084	
-0.486755	
-0.48822	
-0.489929	
-0.492126	
-0.494202	
-0.498169	
-0.501099	
-0.503052	
-0.506653	
-0.50885	
-0.512268	
-0.513428	
-0.515076	
-0.515808	
-0.516724	
-0.517151	
-0.51532	
-0.51355	
-0.509521	
-0.507385	
-0.50354	
-0.499268	
-0.495728	
-0.489807	
-0.485657	
-0.481567	
-0.477661	
-0.4729	
-0.46936	
-0.465027	
-0.462158	
-0.459412	
-0.455872	
-0.454773	
-0.450745	
-0.448425	
-0.445251	
-0.442688	
-0.439453	
-0.437134	
-0.434753	
-0.431885	
-0.429504	
-0.425354	
-0.422913	
-0.417358	
-0.413574	
-0.40802	
-0.402771	
-0.397156	
-0.391846	
-0.385742	
-0.379089	
-0.372314	
-0.364197	
-0.357666	
-0.348267	
-0.34021	
-0.329163	
-0.32019	
-0.310974	
-0.302917	
-0.294373	
-0.287476	
-0.28064	
-0.274414	
-0.270447	
-0.264465	
-0.262268	
-0.258728	
-0.25824	
-0.257874	
-0.258606	
-0.259644	
-0.26178	
-0.26532	
-0.268494	
-0.271973	
-0.274719	
-0.27887	
-0.282227	
-0.287415	
-0.291565	
-0.29541	
-0.300964	
-0.305481	
-0.309509	
-0.314453	
-0.317078	
-0.321533	
-0.323608	
-0.327454	
-0.329346	
-0.332947	
-0.336365	
-0.33905	
-0.341553	
-0.344177	
-0.346069	
-0.348022	
-0.349243	
-0.350891	
-0.352905	
-0.35437	
-0.356018	
-0.358093	
-0.360291	
-0.361572	
-0.364014	
-0.364746	
-0.367554	
-0.36853	
-0.370911	
-0.372314	
-0.37384	
-0.376343	
-0.377991	
-0.379578	
-0.381714	
-0.382751	
-0.385254	
-0.386169	
-0.387146	
-0.388306	
-0.390198	
-0.391968	
-0.392639	
-0.39447	
-0.394653	
-0.396179	
-0.394836	
-0.395569	
-0.395203	
-0.395691	
-0.395935	
-0.394775	
-0.395508	
-0.395508	
-0.394897	
-0.395081	
-0.395142	
-0.394043	
-0.393494	
-0.391846	
-0.391846	
-0.391418	
-0.39093	
-0.39093	
-0.390015	
-0.389221	
-0.388855	
-0.387695	
-0.386963	
-0.386963	
-0.38501	
-0.384155	
-0.384216	
-0.384827	
-0.384338	
-0.385681	
-0.384338	
-0.384888	
-0.384155	
-0.384888	
-0.38501	
-0.384277	
-0.383606	
-0.383911	
-0.384766	
-0.384766	
-0.385376	
-0.384766	
-0.385681	
-0.383423	
-0.384216	
-0.383545	
-0.384216	
-0.384949	
-0.385315	
-0.385315	
-0.385742	
-0.385498	
-0.385498	
-0.385193	
-0.386047	
-0.385437	
-0.385193	
-0.381104	
-0.374084	
-0.375366	
-0.375549	
-0.377014	
-0.376587	
-0.386047	
-0.386475	
-0.387634	
-0.386841	
-0.386963	
-0.387207	
-0.387207	
-0.38739	
-0.387695	
-0.38739	
-0.388	
-0.38739	
-0.388489	
-0.388123	
-0.387451	
-0.387085	
-0.387207	
-0.388	
-0.388184	
-0.388245	
-0.388489	
-0.389832	
-0.387695	
-0.387878	
-0.386047	
-0.387024	
-0.386414	
-0.386719	
-0.387024	
-0.387329	
-0.386292	
-0.386475	
-0.385925	
-0.386841	
-0.385437	
-0.384888	
-0.383179	
-0.382996	
-0.383667	
-0.383179	
-0.382141	
-0.38147	
-0.382019	
-0.37915	
-0.37915	
-0.377197	
-0.378113	
-0.377747	
-0.378967	
-0.379944	
-0.382202	
-0.384521	
-0.387817	
-0.391174	
-0.39386	
-0.39856	
-0.400269	
-0.405823	
-0.410034	
-0.415283	
-0.419983	
-0.42572	
-0.431519	
-0.437988	
-0.44342	
-0.450012	
-0.453064	
-0.458984	
-0.460999	
-0.466248	
-0.469727	
-0.472534	
-0.473999	
-0.474915	
-0.475525	
-0.474304	
-0.475342	
-0.473267	
-0.472229	
-0.472107	
-0.472534	
-0.472778	
-0.473938	
-0.475708	
-0.478271	
-0.481323	
-0.484436	
-0.488403	
-0.490723	
-0.495239	
-0.498047	
-0.502258	
-0.504333	
-0.506653	
-0.506897	
-0.506836	
-0.50531	
-0.504578	
-0.500122	
-0.496765	
-0.492432	
-0.487793	
-0.4823	
-0.47583	
-0.470642	
-0.465454	
-0.460022	
-0.454163	
-0.451965	
-0.447388	
-0.443665	
-0.440125	
-0.437805	
-0.434937	
-0.432922	
-0.430054	
-0.427917	
-0.424377	
-0.420898	
-0.418579	
-0.414124	
-0.410278	
-0.405334	
-0.402588	
-0.397827	
-0.393921	
-0.388672	
-0.384094	
-0.378418	
-0.372742	
-0.36676	
-0.359253	
-0.351746	
-0.344482	
-0.337097	
-0.328918	
-0.321472	
-0.312866	
-0.305786	
-0.299011	
-0.292419	
-0.28717	
-0.281738	
-0.277649	
-0.274719	
-0.272644	
-0.271301	
-0.27063	
-0.26947	
-0.270142	
-0.269409	
-0.271484	
-0.271301	
-0.273254	
-0.276611	
-0.279724	
-0.283142	
-0.287415	
-0.290344	
-0.294312	
-0.298218	
-0.302673	
-0.307068	
-0.311279	
-0.31543	
-0.319031	
-0.323853	
-0.327881	
-0.331726	
-0.335938	
-0.338989	
-0.34259	
-0.346497	
-0.348206	
-0.350891	
-0.353394	
-0.357422	
-0.360291	
-0.363953	
-0.365417	
-0.368286	
-0.369812	
-0.372559	
-0.373169	
-0.375244	
-0.376953	
-0.378845	
-0.380981	
-0.382446	
-0.384399	
-0.386047	
-0.38678	
-0.388	
-0.389282	
-0.389709	
-0.39032	
-0.390747	
-0.391785	
-0.392395	
-0.393616	
-0.39386	
-0.394836	
-0.394958	
-0.395325	
-0.394714	
-0.394531	
-0.394836	
-0.394653	
-0.395325	
-0.395935	
-0.396057	
-0.395325	
-0.395813	
-0.393982	
-0.39502	
-0.393127	
-0.39386	
-0.393372	
-0.393188	
-0.393433	
-0.393066	
-0.393066	
-0.393066	
-0.393066	
-0.392822	
-0.3927	
-0.391541	
-0.391479	
-0.391235	
-0.391663	
-0.391418	
-0.391663	
-0.391174	
-0.392212	
-0.391602	
-0.391479	
-0.390808	
-0.388855	
-0.388489	
-0.388367	
-0.389099	
-0.388733	
-0.389038	
-0.388062	
-0.389465	
-0.387695	
-0.387817	
-0.386353	
-0.385925	
-0.386475	
-0.386169	
-0.386108	
-0.385864	
-0.385437	
-0.385315	
-0.385376	
-0.385254	
-0.385925	
-0.384766	
-0.38446	
-0.384888	
-0.385803	
-0.385864	
-0.38678	
-0.386475	
-0.387329	
-0.386597	
-0.387268	
-0.385559	
-0.385986	
-0.386902	
-0.386963	
-0.386902	
-0.387695	
-0.387329	
-0.387756	
-0.388489	
-0.387573	
-0.387817	
-0.387268	
-0.388489	
-0.388794	
-0.389954	
-0.390259	
-0.390625	
-0.391235	
-0.392029	
-0.391846	
-0.392212	
-0.392639	
-0.393372	
-0.393677	
-0.395142	
-0.395752	
-0.396545	
-0.396606	
-0.397156	
-0.397278	
-0.397949	
-0.39624	
-0.395203	
-0.396179	
-0.396851	
-0.396362	
-0.39679	
-0.395752	
-0.395874	
-0.396057	
-0.39563	
-0.39502	
-0.394592	
-0.394653	
-0.395203	
-0.394653	
-0.39447	
-0.394531	
-0.393982	
-0.394043	
-0.393677	
-0.393311	
-0.391296	
-0.391541	
-0.391602	
-0.391479	
-0.391357	
-0.391479	
-0.391235	
-0.39093	
-0.390808	
-0.391968	
-0.391602	
-0.389587	
-0.388855	
-0.390137	
-0.390747	
-0.39032	
-0.391296	
-0.390442	
-0.390991	
-0.390808	
-0.391479	
-0.391235	
-0.390198	
-0.388794	
-0.390076	
-0.390808	
-0.39093	
-0.391663	
-0.390564	
-0.391479	
-0.391113	
-0.391174	
-0.391296	
-0.390442	
-0.389771	
-0.390442	
-0.391479	
-0.391724	
-0.393066	
-0.392212	
-0.393433	
-0.392944	
-0.393127	
-0.393433	
-0.393005	
-0.39325	
-0.392578	
-0.393982	
-0.394409	
-0.394958	
-0.394409	
-0.394775	
-0.394531	
-0.394653	
-0.394043	
-0.394165	
-0.39447	
-0.393372	
-0.394409	
-0.394165	
-0.39447	
-0.393738	
-0.392944	
-0.393433	
-0.393005	
-0.392273	
-0.391418	
-0.391907	
-0.390503	
-0.391235	
-0.39093	
-0.390686	
-0.391296	
-0.390503	
-0.390503	
-0.390198	
-0.389893	
-0.389099	
-0.390076	
-0.389954	
-0.390198	
-0.391235	
-0.391113	
-0.391357	
-0.392029	
-0.390503	
-0.390869	
-0.390625	
-0.390869	
-0.390564	
-0.391113	
-0.390991	
-0.391418	
-0.391541	
-0.390869	
-0.391479	
-0.390991	
-0.391479	
-0.389282	
-0.390625	
-0.390442	
-0.390869	
-0.391663	
-0.391052	
-0.391418	
-0.391357	
-0.391479	
-0.390259	
-0.390747	
-0.391113	
-0.391418	
-0.391357	
-0.39209	
-0.392456	
-0.393311	
-0.393372	
-0.394836	
-0.393616	
-0.394714	
-0.39325	
-0.395081	
-0.394775	
-0.395386	
-0.396057	
-0.396179	
-0.397217	
-0.396362	
-0.397095	
-0.395874	
-0.396851	
-0.394409	
-0.395996	
-0.395142	
-0.396057	
-0.396484	
-0.395386	
-0.395874	
-0.395203	
-0.394775	
-0.394043	
-0.394531	
-0.39386	
-0.394104	
-0.392883	
-0.393616	
-0.394348	
-0.393066	
-0.393127	
-0.393066	
-0.392029	
-0.390869	
-0.391602	
-0.390869	
-0.390747	
-0.389587	
-0.390137	
-0.39032	
-0.389526	
-0.389709	
-0.389465	
-0.388306	
-0.387451	
-0.388184	
-0.388062	
-0.387878	
-0.387573	
-0.387878	
-0.388611	
-0.388123	
-0.387878	
-0.388733	
-0.388184	
-0.388	
-0.387634	
-0.388	
-0.388489	
-0.388611	
-0.389465	
-0.389771	
-0.389648	
-0.390015	
-0.390442	
-0.390259	
-0.390381	
-0.389526	
-0.390808	
-0.390503	
-0.390381	
-0.391418	
-0.391418	
-0.391418	
-0.391296	
-0.391418	
-0.391479	
-0.391235	
-0.390442	
-0.391724	
-0.391357	
-0.391357	
-0.391602	
-0.391907	
-0.392212	
-0.391785	
-0.391235	
-0.391479	
-0.392395	
-0.390503	
-0.391724	
-0.391418	
-0.391785	
-0.391907	
-0.391357	
-0.392517	
-0.392029	
-0.390991	
-0.391296	
-0.391602	
-0.391113	
-0.390747	
-0.390442	
-0.390686	
-0.390686	
-0.390625	
-0.391174	
-0.391174	
-0.390076	
-0.389526	
-0.389282	
-0.390198	
-0.390259	
-0.388855	
-0.389893	
-0.39032	
-0.390137	
-0.390381	
-0.390564	
-0.389587	
-0.388794	
-0.388611	
-0.389771	
-0.38916	
-0.389221	
-0.389404	
-0.390259	
-0.389648	
-0.389526	
-0.389221	
-0.388855	
-0.388428	
-0.388611	
-0.390015	
-0.390259	
-0.390869	
-0.391541	
-0.391968	
-0.392273	
-0.392944	
-0.391846	
-0.39209	
-0.392151	
-0.391846	
-0.392578	
-0.392334	
-0.393433	
-0.392944	
-0.39386	
-0.393799	
-0.394409	
-0.392639	
-0.393066	
-0.393005	
-0.392517	
-0.392639	
-0.391968	
-0.392456	
-0.392822	
-0.392212	
-0.39209	
-0.392639	
-0.390015	
-0.39093	
-0.391052	
-0.390991	
-0.390869	
-0.390869	
-0.390869	
-0.390808	
-0.390686	
-0.390625	
-0.390564	
-0.389343	
-0.389587	
-0.388794	
-0.389282	
-0.388733	
-0.387939	
-0.387756	
-0.387512	
-0.387451	
-0.387573	
-0.386963	
-0.38623	
-0.38562	
-0.385376	
-0.384277	
-0.383667	
-0.38208	
-0.383118	
-0.383118	
-0.38208	
-0.382935	
-0.382385	
-0.381897	
-0.381348	
-0.381775	
-0.381897	
-0.382629	
-0.381653	
-0.383057	
-0.383423	
-0.382813	
-0.384399	
-0.38385	
-0.383484	
-0.382874	
-0.383423	
-0.384033	
-0.384033	
-0.384216	
-0.384766	
-0.38623	
-0.386108	
-0.386902	
-0.386658	
-0.386597	
-0.387268	
-0.387207	
-0.387451	
-0.387329	
-0.387634	
-0.387817	
-0.388733	
-0.388611	
-0.388916	
-0.38855	
-0.388428	
-0.388916	
-0.388367	
-0.388184	
-0.388367	
-0.388245	
-0.388489	
-0.389404	
-0.389221	
-0.389587	
-0.38916	
-0.388611	
-0.388306	
-0.387695	
-0.388123	
-0.388306	
-0.388855	
-0.388977	
-0.389771	
-0.389648	
-0.389099	
-0.388794	
-0.388184	
-0.388123	
-0.387329	
-0.388611	
-0.387939	
-0.387756	
-0.387878	
-0.38855	
-0.387695	
-0.386658	
-0.386108	
-0.385376	
-0.38739	
-0.386353	
-0.385864	
-0.385681	
-0.386169	
-0.386353	
-0.387024	
-0.386475	
-0.386292	
-0.385315	
-0.38562	
-0.386719	
-0.386597	
-0.386658	
-0.386108	
-0.387207	
-0.387451	
-0.387939	
-0.388184	
-0.388123	
-0.387451	
-0.388489	
-0.388916	
-0.388977	
-0.389526	
-0.388733	
-0.389893	
-0.390198	
-0.390259	
-0.390991	
-0.390442	
-0.389771	
-0.390015	
-0.390076	
-0.390198	
-0.390137	
-0.389404	
-0.389404	
-0.389709	
-0.389954	
-0.390076	
-0.389893	
-0.388916	
-0.389404	
-0.389343	
-0.389587	
-0.389526	
-0.389282	
-0.389343	
-0.390198	
-0.390015	
-0.390381	
-0.390137	
-0.389282	
-0.389404	
-0.388916	
-0.389404	
-0.389282	
-0.389465	
-0.389221	
-0.389954	
-0.389832	
-0.390015	
-0.389282	
-0.388855	
-0.388916	
-0.387878	
-0.388428	
-0.38739	
-0.387207	
-0.386658	
-0.387268	
-0.386719	
-0.38562	
-0.385132	
-0.384338	
-0.38446	
-0.383545	
-0.383606	
-0.38269	
-0.383728	
-0.383484	
-0.384033	
-0.384583	
-0.383179	
-0.382996	
-0.383545	
-0.38446	
-0.383179	
-0.384094	
-0.383789	
-0.384827	
-0.384766	
-0.385925	
-0.386353	
-0.385193	
-0.384949	
-0.385437	
-0.385864	
-0.38562	
-0.386597	
-0.386536	
-0.386902	
-0.387329	
-0.388184	
-0.38916	
-0.388245	
-0.387451	
-0.388123	
-0.388977	
-0.389648	
-0.389282	
-0.389709	
-0.390198	
-0.390869	
-0.390991	
-0.392212	
-0.391113	
-0.390686	
-0.389771	
-0.391052	
-0.391052	
-0.391357	
-0.391174	
-0.391235	
-0.391785	
-0.391785	
-0.391846	
-0.391174	
-0.390747	
-0.389709	
-0.390442	
-0.390442	
-0.389893	
-0.390137	
-0.389832	
-0.389343	
-0.389282	
-0.389404	
-0.388611	
-0.388184	
-0.387756	
-0.388123	
-0.387756	
-0.387207	
-0.387451	
-0.388062	
-0.388	
-0.388062	
-0.387756	
-0.387146	
-0.386841	
-0.387085	
-0.38678	
-0.386902	
-0.386108	
-0.38678	
-0.387085	
-0.387451	
-0.387939	
-0.386902	
-0.387207	
-0.386475	
-0.387146	
-0.386169	
-0.386292	
-0.386414	
-0.386963	
-0.387268	
-0.388245	
-0.388855	
-0.387634	
-0.388	
-0.386719	
-0.388306	
-0.387146	
-0.387573	
-0.387573	
-0.388123	
-0.388123	
-0.388794	
-0.389343	
-0.388123	
-0.387451	
-0.386841	
-0.388733	
-0.386536	
-0.387573	
-0.387146	
-0.387939	
-0.388428	
-0.38855	
-0.389404	
-0.388611	
-0.387634	
-0.387634	
-0.38916	
-0.38739	
-0.388428	
-0.38739	
-0.389038	
-0.388916	
-0.388733	
-0.389709	
-0.388245	
-0.387634	
-0.385986	
-0.387268	
-0.385742	
-0.385925	
-0.385071	
-0.385864	
-0.38623	
-0.385376	
-0.386292	
-0.385132	
-0.384521	
-0.383179	
-0.384277	
-0.383606	
-0.383972	
-0.383789	
-0.384216	
-0.384766	
-0.384155	
-0.384583	
-0.384399	
-0.384521	
-0.384338	
-0.384766	
-0.384338	
-0.385132	
-0.385803	
-0.385254	
-0.386536	
-0.386292	
-0.386475	
-0.385742	
-0.385681	
-0.385925	
-0.386353	
-0.385681	
-0.385864	
-0.386658	
-0.387268	
-0.388	
-0.388306	
-0.388367	
-0.387939	
-0.388245	
-0.388672	
-0.388733	
-0.388977	
-0.388916	
-0.390198	
-0.390259	
-0.391724	
-0.391846	
-0.392578	
-0.392883	
-0.393555	
-0.393677	
-0.393982	
-0.394348	
-0.394226	
-0.395081	
-0.395325	
-0.395752	
-0.395264	
-0.394836	
-0.394409	
-0.394104	
-0.393982	
-0.393799	
-0.39386	
-0.392639	
-0.392822	
-0.393005	
-0.393921	
-0.393677	
-0.393005	
-0.392395	
-0.391602	
-0.391907	
-0.391113	
-0.390747	
-0.389465	
-0.390137	
-0.389954	
-0.390015	
-0.390015	
-0.389465	
-0.388733	
-0.388123	
-0.387756	
-0.387329	
-0.388062	
-0.38739	
-0.387756	
-0.388123	
-0.388123	
-0.388733	
-0.388489	
-0.386719	
-0.386414	
-0.386536	
-0.386658	
-0.387878	
-0.386597	
-0.387024	
-0.387451	
-0.387695	
-0.388977	
-0.387817	
-0.386719	
-0.387207	
-0.387573	
-0.387817	
-0.387939	
-0.386536	
-0.387695	
-0.387756	
-0.387756	
-0.388611	
-0.387634	
-0.388245	
-0.387756	
-0.388184	
-0.389221	
-0.388977	
-0.388306	
-0.389526	
-0.389709	
-0.389832	
-0.391235	
-0.390381	
-0.389893	
-0.389099	
-0.389648	
-0.390564	
-0.390381	
-0.389465	
-0.390381	
-0.391235	
-0.390625	
-0.391174	
-0.390564	
-0.389771	
-0.388794	
-0.388	
-0.388672	
-0.388733	
-0.387451	
-0.388123	
-0.38855	
-0.387695	
-0.388123	
-0.386292	
-0.385925	
-0.385803	
-0.384705	
-0.385681	
-0.385498	
-0.385437	
-0.385864	
-0.386047	
-0.385864	
-0.386536	
-0.384521	
-0.386047	
-0.384827	
-0.385742	
-0.38678	
-0.386475	
-0.385742	
-0.38623	
-0.386597	
-0.386353	
-0.386963	
-0.385986	
-0.386047	
-0.384766	
-0.386169	
-0.38623	
-0.385864	
-0.386292	
-0.386414	
-0.386353	
-0.386169	
-0.387085	
-0.386169	
-0.385986	
-0.384949	
-0.386353	
-0.385925	
-0.385803	
-0.385925	
-0.386963	
-0.386169	
-0.387146	
-0.388	
-0.387634	
-0.387695	
-0.388245	
-0.388428	
-0.389099	
-0.389099	
-0.389893	
-0.390747	
-0.390198	
-0.390747	
-0.391418	
-0.391418	
-0.391602	
-0.391846	
-0.391968	
-0.391479	
-0.391113	
-0.391907	
-0.391968	
-0.391296	
-0.391113	
-0.391357	
-0.390625	
-0.390198	
-0.390808	
-0.390442	
-0.389587	
-0.38916	
-0.389771	
-0.390076	
-0.388977	
-0.389526	
-0.389282	
-0.38855	
-0.388367	
-0.38855	
-0.387329	
-0.387573	
-0.387024	
-0.386902	
-0.387268	
-0.386414	
-0.386292	
-0.385925	
-0.38501	
-0.384644	
-0.385315	
-0.384277	
-0.384094	
-0.383484	
-0.384399	
-0.384827	
-0.383667	
-0.384705	
-0.384644	
-0.383911	
-0.384094	
-0.38446	
-0.383911	
-0.384033	
-0.384033	
-0.385071	
-0.385071	
-0.384705	
-0.385742	
-0.386047	
-0.385559	
-0.385193	
-0.385986	
-0.386597	
-0.386475	
-0.386047	
-0.38678	
-0.387756	
-0.387512	
-0.387878	
-0.387878	
-0.387329	
-0.386169	
-0.386841	
-0.387512	
-0.38739	
-0.387207	
-0.387451	
-0.38855	
-0.388611	
-0.388306	
-0.387512	
-0.388184	
-0.387024	
-0.387573	
-0.387695	
-0.388306	
-0.387817	
-0.388245	
-0.388245	
-0.38855	
-0.389221	
-0.388855	
-0.387939	
-0.387573	
-0.387939	
-0.388062	
-0.388184	
-0.386658	
-0.387756	
-0.387024	
-0.387573	
-0.388	
-0.387207	
-0.386719	
-0.387268	
-0.386475	
-0.386841	
-0.386963	
-0.386292	
-0.387329	
-0.386902	
-0.387451	
-0.387695	
-0.386902	
-0.385864	
-0.385925	
-0.385498	
-0.386353	
-0.38623	
-0.384949	
-0.387329	
-0.386047	
-0.386719	
-0.386597	
-0.385986	
-0.384949	
-0.385132	
-0.385742	
-0.386108	
-0.386353	
-0.386047	
-0.388184	
-0.387878	
-0.388	
-0.387939	
-0.388184	
-0.387573	
-0.38855	
-0.389099	
-0.38916	
-0.389343	
-0.388428	
-0.390564	
-0.390076	
-0.390564	
-0.389709	
-0.390015	
-0.389038	
-0.390381	
-0.390259	
-0.390259	
-0.390015	
-0.388855	
-0.390137	
-0.389832	
-0.389648	
-0.389282	
-0.388672	
-0.387634	
-0.388428	
-0.388611	
-0.388611	
-0.388367	
-0.387451	
-0.388916	
-0.388123	
-0.388245	
-0.388245	
-0.387756	
-0.387024	
-0.387085	
-0.387207	
-0.386597	
-0.386353	
-0.386292	
-0.386902	
-0.385803	
-0.385498	
-0.384705	
-0.383911	
-0.383545	
-0.38269	
-0.383179	
-0.382385	
-0.381409	
-0.381104	
-0.381531	
-0.380676	
-0.380737	
-0.378784	
-0.379089	
-0.379456	
-0.379822	
-0.379822	
-0.379883	
-0.379822	
-0.379944	
-0.380066	
-0.380859	
-0.380981	
-0.379944	
-0.381653	
-0.380859	
-0.382202	
-0.381592	
-0.381592	
-0.381653	
-0.382141	
-0.382813	
-0.38324	
-0.38446	
-0.383118	
-0.383911	
-0.384399	
-0.385986	
-0.385498	
-0.385254	
-0.384949	
-0.385925	
-0.385986	
-0.386597	
-0.386597	
-0.385925	
-0.386353	
-0.386169	
-0.387695	
-0.386475	
-0.386475	
-0.385925	
-0.387268	
-0.387268	
-0.387817	
-0.388	
-0.387207	
-0.386658	
-0.38678	
-0.387085	
-0.38678	
-0.387146	
-0.386719	
-0.387634	
-0.387268	
-0.388428	
-0.388611	
-0.387268	
-0.387085	
-0.386719	
-0.387329	
-0.387268	
-0.387146	
-0.386536	
-0.387146	
-0.386414	
-0.386963	
-0.386597	
-0.385315	
-0.38446	
-0.384216	
-0.384949	
-0.385193	
-0.384399	
-0.384705	
-0.385376	
-0.384827	
-0.385193	
-0.384399	
-0.384399	
-0.383667	
-0.38446	
-0.384888	
-0.384766	
-0.385254	
-0.385437	
-0.385864	
-0.385925	
-0.385864	
-0.385803	
-0.386292	
-0.385864	
-0.386536	
-0.387085	
-0.387634	
-0.386536	
-0.387817	
-0.388489	
-0.388611	
-0.388672	
-0.388184	
-0.388672	
-0.388489	
-0.387878	
-0.388733	
-0.38855	
-0.387878	
-0.388916	
-0.388672	
-0.38855	
-0.38855	
-0.388062	
-0.387756	
-0.388123	
-0.387817	
-0.387573	
-0.388367	
-0.387878	
-0.388306	
-0.388367	
-0.388245	
-0.388367	
-0.387695	
-0.388	
-0.387939	
-0.387695	
-0.388062	
-0.387756	
-0.388062	
-0.388367	
-0.388428	
-0.388123	
-0.388184	
-0.388	
-0.387817	
-0.387146	
-0.387695	
-0.387268	
-0.386963	
-0.38623	
-0.385986	
-0.386108	
-0.385437	
-0.385315	
-0.384155	
-0.384094	
-0.38269	
-0.382751	
-0.382996	
-0.382385	
-0.382446	
-0.382141	
-0.382141	
-0.382263	
-0.382813	
-0.381714	
-0.382019	
-0.381042	
-0.381348	
-0.382385	
-0.382446	
-0.382507	
-0.383423	
-0.383362	
-0.383667	
-0.384827	
-0.383545	
-0.384033	
-0.38324	
-0.383789	
-0.384644	
-0.384766	
-0.385315	
-0.385376	
-0.385498	
-0.386353	
-0.386841	
-0.386169	
-0.386353	
-0.386047	
-0.38739	
-0.387634	
-0.388245	
-0.388916	
-0.389465	
-0.388672	
-0.389282	
-0.389587	
-0.389526	
-0.389465	
-0.389709	
-0.389587	
-0.389648	
-0.389282	
-0.389893	
-0.390137	
-0.390259	
-0.390564	
-0.389832	
-0.389648	
-0.38916	
-0.390076	
-0.38916	
-0.388733	
-0.388062	
-0.388611	
-0.389282	
-0.388245	
-0.388855	
-0.387573	
-0.387146	
-0.386719	
-0.386841	
-0.386536	
-0.386841	
-0.384888	
-0.386597	
-0.387024	
-0.385925	
-0.387573	
-0.386169	
-0.385803	
-0.385132	
	
