E:\DOCUMENTS AND SETTINGS\JPOTAS\MEUS DOCUMENTOS\UFRJ\RSCI-BM 12 WK SERIES\070719-RSCI-BM-02\RSCI-BM-02-LEMG\070719-RSCI-BM-02-LEMG-0000.ACQ
0.025000 msec/sample
1 channel
Analog input
Volts
CH1	
2000	
-0.396667	
-0.395752	
-0.395325	
-0.396729	
-0.396118	
-0.39679	
-0.397278	
-0.397705	
-0.397522	
-0.397339	
-0.3974	
-0.396423	
-0.396973	
-0.396057	
-0.39563	
-0.396362	
-0.394348	
-0.395691	
-0.39563	
-0.395569	
-0.39447	
-0.39447	
-0.39447	
-0.392395	
-0.392517	
-0.391479	
-0.390503	
-0.39093	
-0.389343	
-0.390381	
-0.390381	
-0.390747	
-0.389893	
-0.390381	
-0.390503	
-0.389038	
-0.389465	
-0.389099	
-0.388672	
-0.389099	
-0.388	
-0.38916	
-0.389099	
-0.389465	
-0.389282	
-0.390503	
-0.390137	
-0.388306	
-0.390564	
-0.390442	
-0.390076	
-0.390503	
-0.389465	
-0.391052	
-0.391724	
-0.392334	
-0.392395	
-0.392761	
-0.392273	
-0.391663	
-0.392273	
-0.392151	
-0.392334	
-0.392639	
-0.39093	
-0.3927	
-0.393066	
-0.393677	
-0.393005	
-0.39386	
-0.393738	
-0.393066	
-0.39325	
-0.393127	
-0.393127	
-0.393372	
-0.391479	
-0.394043	
-0.393921	
-0.394043	
-0.393494	
-0.393921	
-0.394104	
-0.393311	
-0.393555	
-0.393494	
-0.392883	
-0.392517	
-0.390625	
-0.3927	
-0.393188	
-0.393738	
-0.392151	
-0.392212	
-0.392395	
-0.391479	
-0.39093	
-0.391113	
-0.391724	
-0.391296	
-0.389099	
-0.391113	
-0.391418	
-0.392151	
-0.391846	
-0.391235	
-0.391541	
-0.391357	
-0.392273	
-0.391174	
-0.391357	
-0.391052	
-0.389771	
-0.391907	
-0.39209	
-0.392456	
-0.392761	
-0.392761	
-0.392517	
-0.392822	
-0.394104	
-0.392883	
-0.393372	
-0.393066	
-0.391602	
-0.393799	
-0.393372	
-0.393982	
-0.394714	
-0.393799	
-0.393188	
-0.392944	
-0.394409	
-0.392822	
-0.393555	
-0.3927	
-0.392639	
-0.39325	
-0.393311	
-0.393188	
-0.393188	
-0.393127	
-0.393494	
-0.393188	
-0.39563	
-0.393555	
-0.394226	
-0.394409	
-0.393982	
-0.39502	
-0.395264	
-0.395691	
-0.395752	
-0.395569	
-0.395508	
-0.395203	
-0.397461	
-0.395447	
-0.395935	
-0.39624	
-0.395874	
-0.396667	
-0.396667	
-0.3974	
-0.395874	
-0.39624	
-0.395752	
-0.395447	
-0.39679	
-0.394348	
-0.39447	
-0.394226	
-0.393555	
-0.393677	
-0.39386	
-0.394653	
-0.392944	
-0.392151	
-0.391968	
-0.391296	
-0.392334	
-0.390442	
-0.390503	
-0.389526	
-0.390259	
-0.39032	
-0.390503	
-0.391418	
-0.389954	
-0.39032	
-0.390503	
-0.390503	
-0.391663	
-0.390259	
-0.390503	
-0.390015	
-0.390991	
-0.375732	
-0.377808	
-0.380493	
-0.381104	
-0.382202	
-0.382141	
-0.400269	
-0.398621	
-0.396362	
-0.396301	
-0.395874	
-0.396362	
-0.39679	
-0.397156	
-0.396118	
-0.396423	
-0.396301	
-0.39624	
-0.397278	
-0.397461	
-0.396301	
-0.396606	
-0.396545	
-0.397156	
-0.396851	
-0.397705	
-0.396606	
-0.39679	
-0.396545	
-0.396179	
-0.396606	
-0.397278	
-0.396179	
-0.396423	
-0.395569	
-0.396057	
-0.396362	
-0.397034	
-0.39563	
-0.39624	
-0.395813	
-0.394897	
-0.395813	
-0.396057	
-0.394836	
-0.395081	
-0.393311	
-0.394592	
-0.39447	
-0.394897	
-0.393005	
-0.391968	
-0.391357	
-0.389526	
-0.390564	
-0.389465	
-0.387451	
-0.386353	
-0.384827	
-0.385071	
-0.384888	
-0.386475	
-0.38623	
-0.387817	
-0.389832	
-0.392456	
-0.397278	
-0.400696	
-0.40387	
-0.407349	
-0.410828	
-0.414734	
-0.418884	
-0.425232	
-0.428223	
-0.432495	
-0.437256	
-0.44104	
-0.445496	
-0.450684	
-0.455627	
-0.459412	
-0.463074	
-0.468445	
-0.472107	
-0.47467	
-0.477417	
-0.478882	
-0.478882	
-0.479797	
-0.479126	
-0.476929	
-0.476807	
-0.476257	
-0.476746	
-0.47644	
-0.477295	
-0.476379	
-0.476624	
-0.476501	
-0.476624	
-0.4776	
-0.478516	
-0.478821	
-0.481812	
-0.484436	
-0.487366	
-0.48999	
-0.491394	
-0.493042	
-0.49469	
-0.49469	
-0.495972	
-0.495972	
-0.494751	
-0.493835	
-0.490723	
-0.48822	
-0.486572	
-0.484558	
-0.479126	
-0.474854	
-0.470459	
-0.465393	
-0.459595	
-0.454224	
-0.447815	
-0.44281	
-0.436523	
-0.432739	
-0.428345	
-0.425659	
-0.419617	
-0.416382	
-0.412842	
-0.410828	
-0.40802	
-0.405273	
-0.401306	
-0.398071	
-0.393677	
-0.39032	
-0.386108	
-0.382202	
-0.374939	
-0.368835	
-0.362671	
-0.356262	
-0.349182	
-0.340942	
-0.331909	
-0.323914	
-0.314575	
-0.306641	
-0.298218	
-0.290649	
-0.281006	
-0.273132	
-0.265198	
-0.258545	
-0.252563	
-0.245789	
-0.23822	
-0.233276	
-0.228455	
-0.225037	
-0.222717	
-0.220154	
-0.219238	
-0.220154	
-0.220764	
-0.224609	
-0.227539	
-0.231262	
-0.235168	
-0.238831	
-0.242981	
-0.249207	
-0.255615	
-0.259888	
-0.265808	
-0.271606	
-0.277588	
-0.283264	
-0.288025	
-0.293213	
-0.296631	
-0.300903	
-0.305725	
-0.309631	
-0.312561	
-0.315308	
-0.318298	
-0.322144	
-0.325195	
-0.328552	
-0.330383	
-0.332031	
-0.334961	
-0.338074	
-0.341248	
-0.341919	
-0.343933	
-0.345215	
-0.346924	
-0.348877	
-0.350952	
-0.352295	
-0.352539	
-0.354553	
-0.355652	
-0.359253	
-0.358337	
-0.359314	
-0.361206	
-0.36322	
-0.365051	
-0.366028	
-0.366638	
-0.367798	
-0.369507	
-0.370972	
-0.373779	
-0.374207	
-0.375732	
-0.376892	
-0.376831	
-0.379089	
-0.380371	
-0.381104	
-0.382019	
-0.382446	
-0.383423	
-0.384399	
-0.384277	
-0.383972	
-0.384155	
-0.382446	
-0.38269	
-0.382507	
-0.381226	
-0.380676	
-0.379517	
-0.379272	
-0.377991	
-0.378052	
-0.377014	
-0.376404	
-0.374939	
-0.374207	
-0.373413	
-0.371765	
-0.371216	
-0.369202	
-0.367615	
-0.366333	
-0.365906	
-0.364502	
-0.362915	
-0.361694	
-0.361267	
-0.361206	
-0.361511	
-0.360229	
-0.360474	
-0.361145	
-0.361023	
-0.361694	
-0.362122	
-0.362793	
-0.363403	
-0.364746	
-0.364075	
-0.366272	
-0.365967	
-0.367065	
-0.366577	
-0.367249	
-0.368286	
-0.368042	
-0.369873	
-0.368652	
-0.369812	
-0.369324	
-0.369873	
-0.369385	
-0.369629	
-0.369324	
-0.368835	
-0.369324	
-0.367859	
-0.369751	
-0.368286	
-0.369934	
-0.369141	
-0.36969	
-0.36969	
-0.369934	
-0.370178	
-0.371155	
-0.370667	
-0.370178	
-0.371887	
-0.371155	
-0.37323	
-0.373108	
-0.37384	
-0.374207	
-0.37439	
-0.374939	
-0.375916	
-0.376221	
-0.37616	
-0.377502	
-0.377136	
-0.379333	
-0.379089	
-0.379028	
-0.3797	
-0.380127	
-0.381042	
-0.380432	
-0.380554	
-0.380432	
-0.380676	
-0.380432	
-0.380676	
-0.380676	
-0.380737	
-0.380188	
-0.379883	
-0.380493	
-0.380249	
-0.380859	
-0.3797	
-0.378662	
-0.379333	
-0.37915	
-0.378784	
-0.378601	
-0.377869	
-0.376282	
-0.376587	
-0.376831	
-0.376953	
-0.377014	
-0.376038	
-0.37677	
-0.376587	
-0.377502	
-0.376709	
-0.376648	
-0.376526	
-0.377075	
-0.377014	
-0.375793	
-0.377441	
-0.376892	
-0.375854	
-0.377197	
-0.377869	
-0.377563	
-0.377686	
-0.377808	
-0.377991	
-0.378845	
-0.379089	
-0.378906	
-0.379639	
-0.379333	
-0.380066	
-0.380371	
-0.381104	
-0.38092	
-0.381226	
-0.38092	
-0.381836	
-0.38269	
-0.383057	
-0.382202	
-0.382019	
-0.382507	
-0.383362	
-0.383667	
-0.38385	
-0.384094	
-0.384399	
-0.384766	
-0.384521	
-0.38501	
-0.384766	
-0.386169	
-0.385376	
-0.38501	
-0.385803	
-0.387451	
-0.386047	
-0.386536	
-0.385193	
-0.38678	
-0.387329	
-0.388123	
-0.386719	
-0.387817	
-0.38739	
-0.388184	
-0.388611	
-0.388	
-0.388123	
-0.387512	
-0.387329	
-0.387573	
-0.388306	
-0.387024	
-0.387207	
-0.387146	
-0.387634	
-0.387512	
-0.387207	
-0.387024	
-0.387085	
-0.387268	
-0.387146	
-0.387695	
-0.387634	
-0.388123	
-0.387695	
-0.386719	
-0.388611	
-0.38855	
-0.388062	
-0.387878	
-0.387756	
-0.388672	
-0.387939	
-0.388428	
-0.388123	
-0.387573	
-0.387024	
-0.387146	
-0.387085	
-0.387024	
-0.386597	
-0.387146	
-0.38678	
-0.387024	
-0.387451	
-0.386902	
-0.38562	
-0.386841	
-0.387146	
-0.386169	
-0.387085	
-0.386475	
-0.386414	
-0.38678	
-0.387634	
-0.387207	
-0.387512	
-0.387756	
-0.387695	
-0.386658	
-0.387939	
-0.388428	
-0.388855	
-0.387573	
-0.388367	
-0.388428	
-0.38916	
-0.389832	
-0.389465	
-0.388123	
-0.38916	
-0.389648	
-0.388733	
-0.390564	
-0.390015	
-0.389709	
-0.389404	
-0.390442	
-0.389954	
-0.390137	
-0.389954	
-0.388489	
-0.388489	
-0.388367	
-0.388367	
-0.388245	
-0.387695	
-0.387329	
-0.386597	
-0.387695	
-0.38678	
-0.384888	
-0.384644	
-0.384094	
-0.384033	
-0.382385	
-0.382874	
-0.381897	
-0.382568	
-0.382263	
-0.381592	
-0.38324	
-0.382813	
-0.382019	
-0.381714	
-0.381958	
-0.381226	
-0.380554	
-0.382263	
-0.381714	
-0.381409	
-0.381409	
-0.382019	
-0.382935	
-0.382385	
-0.383118	
-0.382568	
-0.382263	
-0.382568	
-0.383545	
-0.382446	
-0.38385	
-0.384033	
-0.383423	
-0.384521	
-0.384583	
-0.38446	
-0.384888	
-0.384277	
-0.383362	
-0.38446	
-0.385193	
-0.384888	
-0.384888	
-0.384888	
-0.384705	
-0.38562	
-0.385803	
-0.385376	
-0.385071	
-0.383606	
-0.384705	
-0.384827	
-0.385559	
-0.385315	
-0.385193	
-0.38501	
-0.385132	
-0.386475	
-0.385559	
-0.385803	
-0.384949	
-0.384705	
-0.384399	
-0.383606	
-0.384399	
-0.383911	
-0.383911	
-0.382629	
-0.383789	
-0.384338	
-0.383606	
-0.383545	
-0.381775	
-0.381653	
-0.381409	
-0.383301	
-0.38269	
-0.382202	
-0.382507	
-0.382446	
-0.383057	
-0.382751	
-0.383301	
-0.38208	
-0.381775	
-0.381775	
-0.38208	
-0.382507	
-0.382629	
-0.382629	
-0.381836	
-0.382813	
-0.383911	
-0.384644	
-0.384277	
-0.383179	
-0.383789	
-0.383484	
-0.384766	
-0.38446	
-0.384399	
-0.384094	
-0.38446	
-0.385071	
-0.385315	
-0.38501	
-0.384766	
-0.383911	
-0.384094	
-0.383362	
-0.384888	
-0.384094	
-0.383911	
-0.383423	
-0.383728	
-0.384705	
-0.384888	
-0.385071	
-0.384521	
-0.384583	
-0.383484	
-0.383423	
-0.385071	
-0.385132	
-0.385681	
-0.384705	
-0.38562	
-0.38623	
-0.387085	
-0.387512	
-0.385986	
-0.385742	
-0.38623	
-0.386719	
-0.386841	
-0.386902	
-0.386841	
-0.386108	
-0.387146	
-0.387329	
-0.387695	
-0.388062	
-0.386597	
-0.384583	
-0.385376	
-0.386414	
-0.385315	
-0.385437	
-0.384644	
-0.384277	
-0.384155	
-0.385193	
-0.384277	
-0.383484	
-0.382141	
-0.380676	
-0.380005	
-0.381836	
-0.381165	
-0.380615	
-0.380066	
-0.380493	
-0.380615	
-0.381714	
-0.381165	
-0.380859	
-0.380737	
-0.379272	
-0.380371	
-0.381104	
-0.380798	
-0.381042	
-0.380127	
-0.381409	
-0.381897	
-0.383179	
-0.382385	
-0.382385	
-0.38269	
-0.382141	
-0.383362	
-0.384827	
-0.385071	
-0.385254	
-0.384949	
-0.38562	
-0.386169	
-0.387878	
-0.386841	
-0.385803	
-0.384949	
-0.385254	
-0.38623	
-0.385742	
-0.385681	
-0.386047	
-0.386169	
-0.386108	
-0.387024	
-0.388	
-0.387268	
-0.385864	
-0.384338	
-0.386169	
-0.386536	
-0.386047	
-0.385742	
-0.384827	
-0.385254	
-0.385498	
-0.386536	
-0.385742	
-0.385742	
-0.38446	
-0.383057	
-0.384766	
-0.383972	
-0.383545	
-0.383545	
-0.382996	
-0.383789	
-0.383179	
-0.384583	
-0.38269	
-0.382385	
-0.38147	
-0.380005	
-0.381409	
-0.381836	
-0.381226	
-0.380798	
-0.381104	
-0.381042	
-0.381042	
-0.38269	
-0.380859	
-0.380371	
-0.380066	
-0.380432	
-0.380493	
-0.381226	
-0.381287	
-0.380371	
-0.380737	
-0.380981	
-0.381531	
-0.382751	
-0.381775	
-0.380859	
-0.379517	
-0.381104	
-0.381165	
-0.381287	
-0.381775	
-0.380432	
-0.38147	
-0.381348	
-0.381775	
-0.382019	
-0.381836	
-0.380737	
-0.378784	
-0.381531	
-0.381653	
-0.38092	
-0.380615	
-0.380493	
-0.380737	
-0.38092	
-0.381958	
-0.380737	
-0.38147	
-0.380615	
-0.379028	
-0.381531	
-0.381287	
-0.380676	
-0.381042	
-0.382019	
-0.381958	
-0.381653	
-0.38385	
-0.381958	
-0.382446	
-0.381531	
-0.382202	
-0.381958	
-0.382263	
-0.382202	
-0.381836	
-0.382507	
-0.382324	
-0.382813	
-0.383972	
-0.382813	
-0.382568	
-0.380981	
-0.382324	
-0.381409	
-0.381775	
-0.38147	
-0.380737	
-0.381348	
-0.380981	
-0.38147	
-0.380615	
-0.380615	
-0.380188	
-0.377991	
-0.381287	
-0.379456	
-0.380554	
-0.38031	
-0.380005	
-0.379883	
-0.380127	
-0.380737	
-0.379272	
-0.379456	
-0.379028	
-0.377258	
-0.379211	
-0.37854	
-0.379333	
-0.379211	
-0.380249	
-0.38031	
-0.380859	
-0.383484	
-0.381287	
-0.381897	
-0.382141	
-0.383179	
-0.38324	
-0.384521	
-0.384949	
-0.384216	
-0.385742	
-0.386169	
-0.386292	
-0.387695	
-0.38623	
-0.386963	
-0.385315	
-0.387146	
-0.386536	
-0.386719	
-0.387024	
-0.386719	
-0.387024	
-0.387207	
-0.387756	
-0.387329	
-0.387451	
-0.386902	
-0.384155	
-0.387512	
-0.386292	
-0.387024	
-0.386475	
-0.386169	
-0.38623	
-0.385986	
-0.386536	
-0.385193	
-0.385132	
-0.38446	
-0.383301	
-0.385071	
-0.383606	
-0.38446	
-0.384399	
-0.384888	
-0.384827	
-0.384583	
-0.387024	
-0.384216	
-0.384705	
-0.383606	
-0.384216	
-0.383667	
-0.383179	
-0.383972	
-0.382568	
-0.383057	
-0.382813	
-0.383606	
-0.385071	
-0.383484	
-0.384216	
-0.382141	
-0.38385	
-0.383606	
-0.384033	
-0.383972	
-0.383179	
-0.384338	
-0.384094	
-0.385071	
-0.384949	
-0.38446	
-0.385132	
-0.383057	
-0.385803	
-0.385315	
-0.385315	
-0.385315	
-0.38562	
-0.385559	
-0.386047	
-0.387634	
-0.38562	
-0.385437	
-0.385376	
-0.384644	
-0.386658	
-0.385498	
-0.385864	
-0.385315	
-0.386169	
-0.386353	
-0.38678	
-0.387451	
-0.385559	
-0.385498	
-0.384094	
-0.385254	
-0.384888	
-0.383606	
-0.38385	
-0.383606	
-0.384094	
-0.383911	
-0.384888	
-0.384766	
-0.383667	
-0.384033	
-0.382507	
-0.38446	
-0.383301	
-0.383057	
-0.383362	
-0.383728	
-0.384338	
-0.384277	
-0.385193	
-0.38446	
-0.384033	
-0.384766	
-0.382141	
-0.384521	
-0.383545	
-0.383423	
-0.383179	
-0.382935	
-0.382629	
-0.382813	
-0.383728	
-0.381897	
-0.382202	
-0.381958	
-0.380493	
-0.381897	
-0.381592	
-0.381042	
-0.380432	
-0.381226	
-0.381104	
-0.381287	
-0.382568	
-0.380615	
-0.38031	
-0.379822	
-0.380798	
-0.38092	
-0.380249	
-0.380859	
-0.380066	
-0.381531	
-0.382019	
-0.383118	
-0.383911	
-0.382629	
-0.382751	
-0.383484	
-0.384033	
-0.384338	
-0.38385	
-0.385742	
-0.385925	
-0.386353	
-0.386963	
-0.387268	
-0.387268	
-0.38678	
-0.386414	
-0.386047	
-0.387512	
-0.386292	
-0.385315	
-0.38623	
-0.386536	
-0.386414	
-0.386292	
-0.386475	
-0.386169	
-0.385315	
-0.384583	
-0.38324	
-0.385742	
-0.384399	
-0.384583	
-0.383728	
-0.383545	
-0.382874	
-0.383179	
-0.382568	
-0.381714	
-0.381836	
-0.381653	
-0.379517	
-0.381042	
-0.381042	
-0.380615	
-0.380127	
-0.380676	
-0.380859	
-0.381592	
-0.382141	
-0.380249	
-0.380371	
-0.380371	
-0.380554	
-0.380859	
-0.379883	
-0.380127	
-0.380066	
-0.380798	
-0.380859	
-0.381653	
-0.382507	
-0.381165	
-0.381409	
-0.381104	
-0.382202	
-0.381653	
-0.38092	
-0.382019	
-0.382202	
-0.38208	
-0.38269	
-0.382874	
-0.38385	
-0.382751	
-0.383057	
-0.383484	
-0.383789	
-0.383667	
-0.384338	
-0.383301	
-0.384155	
-0.384277	
-0.384888	
-0.384827	
-0.385742	
-0.384949	
-0.384766	
-0.384277	
-0.385193	
-0.384583	
-0.384949	
-0.384644	
-0.385071	
-0.385132	
-0.38623	
-0.385742	
-0.385559	
-0.385254	
-0.385376	
-0.385071	
-0.385132	
-0.384277	
-0.384705	
-0.384399	
-0.384277	
-0.38446	
-0.385498	
-0.385559	
-0.384277	
-0.384705	
-0.384399	
-0.383911	
-0.384766	
-0.383057	
-0.384338	
-0.384827	
-0.384644	
-0.384827	
-0.385132	
-0.385681	
-0.384583	
-0.38501	
-0.38446	
-0.384949	
-0.384644	
-0.384705	
-0.384583	
-0.384888	
-0.384583	
-0.384827	
-0.38501	
-0.385254	
-0.384155	
-0.383362	
-0.382751	
-0.383728	
-0.383667	
-0.383484	
-0.382935	
-0.382813	
-0.383606	
-0.384338	
-0.384216	
-0.384094	
-0.38324	
-0.383362	
-0.382996	
-0.383118	
-0.382751	
-0.382996	
-0.382141	
-0.383728	
-0.384094	
-0.384827	
-0.384705	
-0.384644	
-0.384216	
-0.384766	
-0.385315	
-0.384705	
-0.384766	
-0.385132	
-0.384888	
-0.385315	
-0.385681	
-0.385803	
-0.385803	
-0.386047	
-0.385681	
-0.385559	
-0.386292	
-0.386047	
-0.385376	
-0.386108	
-0.385925	
-0.386047	
-0.386108	
-0.385925	
-0.385559	
-0.384949	
-0.384155	
-0.383728	
-0.383545	
-0.383911	
-0.382507	
-0.381958	
-0.382202	
-0.381592	
-0.381348	
-0.38092	
-0.380981	
-0.3797	
-0.378967	
-0.379333	
-0.378357	
-0.378845	
-0.378296	
-0.378418	
-0.378845	
-0.378784	
-0.379517	
-0.378906	
-0.378906	
-0.378235	
-0.379028	
-0.37915	
-0.378174	
-0.378479	
-0.378296	
-0.378723	
-0.378967	
-0.37915	
-0.380127	
-0.379578	
-0.380676	
-0.380066	
-0.380432	
-0.380859	
-0.380676	
-0.380554	
-0.380676	
-0.381165	
-0.381042	
-0.381165	
-0.383179	
-0.381775	
-0.382202	
-0.381775	
-0.382751	
-0.381714	
-0.38208	
-0.381714	
-0.381165	
-0.382263	
-0.382324	
-0.382507	
-0.383301	
-0.382996	
-0.383545	
-0.38269	
-0.383301	
-0.382019	
-0.382874	
-0.381287	
-0.382263	
-0.382935	
-0.382751	
-0.38324	
-0.38208	
-0.382568	
-0.381836	
-0.380676	
-0.382568	
-0.380737	
-0.381653	
-0.380188	
-0.381104	
-0.381287	
-0.381042	
-0.38147	
-0.380676	
-0.38147	
-0.380188	
-0.380005	
-0.379883	
-0.379639	
-0.380249	
-0.379272	
-0.380432	
-0.380432	
-0.380432	
-0.381958	
-0.380249	
-0.381104	
-0.380371	
-0.381104	
-0.380615	
-0.380981	
-0.381348	
-0.381348	
-0.38147	
-0.382019	
-0.382202	
-0.383179	
-0.38269	
-0.383179	
-0.382202	
-0.383545	
-0.38269	
-0.382629	
-0.382446	
-0.383362	
-0.382751	
-0.383362	
-0.383911	
-0.384155	
-0.38269	
-0.382874	
-0.381958	
-0.38208	
-0.38208	
-0.382629	
-0.380127	
-0.382202	
-0.382324	
-0.382874	
-0.384277	
-0.383972	
-0.383606	
-0.383545	
-0.38446	
-0.383667	
-0.383362	
-0.38385	
-0.383484	
-0.384583	
-0.384827	
-0.385254	
-0.386536	
-0.385376	
-0.38562	
-0.385193	
-0.38623	
-0.385803	
-0.38501	
-0.385254	
-0.385864	
-0.38562	
-0.385315	
-0.385254	
-0.385681	
-0.384949	
-0.385742	
-0.383789	
-0.383789	
-0.383545	
-0.382935	
-0.382141	
-0.382324	
-0.382446	
-0.381653	
-0.381592	
-0.38092	
-0.380188	
-0.380432	
-0.378662	
-0.3797	
-0.379211	
-0.379395	
-0.378906	
-0.379272	
-0.379089	
-0.37915	
-0.380005	
-0.380188	
-0.379578	
-0.380127	
-0.379578	
-0.380493	
-0.379395	
-0.380554	
-0.380676	
-0.380676	
-0.381409	
-0.382324	
-0.382874	
-0.382996	
-0.384094	
-0.384216	
-0.384094	
-0.384949	
-0.384155	
-0.384277	
-0.384766	
-0.38501	
-0.385193	
-0.385193	
-0.386353	
-0.385376	
-0.386536	
-0.385681	
-0.384705	
-0.385864	
-0.385925	
-0.384766	
-0.385376	
-0.386047	
-0.385986	
-0.385864	
-0.386963	
-0.38623	
-0.38678	
-0.385376	
-0.385254	
-0.385437	
-0.385193	
-0.384888	
-0.384155	
-0.384705	
-0.384949	
-0.385132	
-0.385559	
-0.384705	
-0.38446	
-0.38385	
-0.38385	
-0.383179	
-0.383667	
-0.383423	
-0.381897	
-0.382568	
-0.381897	
-0.383118	
-0.383057	
-0.382629	
-0.38208	
-0.381653	
-0.381836	
-0.381531	
-0.380859	
-0.381775	
-0.380737	
-0.381714	
-0.381531	
-0.382263	
-0.382141	
-0.382446	
-0.382019	
-0.38147	
-0.382202	
-0.381958	
-0.382019	
-0.381836	
-0.381592	
-0.382141	
-0.382202	
-0.382568	
-0.382935	
-0.382996	
-0.381775	
-0.381775	
-0.382507	
-0.381836	
-0.382202	
-0.382141	
-0.382202	
-0.38269	
-0.383484	
-0.383301	
-0.38324	
-0.382507	
-0.381775	
-0.380737	
-0.381958	
-0.38147	
-0.381897	
-0.381958	
-0.381958	
-0.382751	
-0.383118	
-0.382935	
-0.383118	
-0.383057	
-0.382385	
-0.382202	
-0.383301	
-0.382935	
-0.382996	
-0.382996	
-0.383362	
-0.383667	
-0.384033	
-0.384644	
-0.384033	
-0.383118	
-0.383728	
-0.383484	
-0.383179	
-0.383972	
-0.38385	
-0.383423	
-0.384033	
-0.384216	
-0.384033	
-0.384705	
-0.383789	
-0.382141	
-0.382874	
-0.382263	
-0.381897	
-0.382507	
-0.38208	
-0.381226	
-0.382202	
-0.382507	
-0.38208	
-0.382996	
-0.382629	
-0.382019	
-0.380798	
-0.381409	
-0.38147	
-0.381226	
-0.380554	
-0.380737	
-0.381287	
-0.381897	
-0.381592	
-0.381897	
-0.381531	
-0.381531	
-0.381042	
-0.38269	
-0.382568	
-0.382263	
-0.382263	
-0.383545	
-0.384094	
-0.384583	
-0.385498	
-0.386719	
-0.385437	
-0.386353	
-0.387146	
-0.387268	
-0.387756	
-0.387634	
-0.387573	
-0.388184	
-0.388672	
-0.388611	
-0.388489	
-0.389038	
-0.388306	
-0.387939	
-0.388733	
-0.387939	
-0.388794	
-0.388977	
-0.388062	
-0.388733	
-0.389832	
-0.389221	
-0.389221	
-0.389526	
-0.388367	
-0.387268	
-0.387756	
-0.387634	
-0.387085	
-0.387207	
-0.385742	
-0.386597	
-0.38678	
-0.387085	
-0.386536	
-0.386108	
-0.385864	
-0.385925	
-0.385559	
-0.38623	
-0.386108	
-0.38562	
-0.385681	
-0.385498	
-0.385559	
-0.385986	
-0.386169	
-0.385132	
-0.385254	
-0.38501	
-0.384644	
-0.384949	
-0.384644	
-0.384827	
-0.385193	
-0.385864	
-0.385315	
-0.385437	
-0.386536	
-0.385071	
-0.384644	
-0.385742	
-0.38562	
-0.386597	
-0.385925	
-0.386292	
-0.386658	
-0.387451	
-0.387268	
-0.387451	
-0.388672	
-0.38739	
-0.387695	
-0.387695	
-0.387939	
-0.388123	
-0.388123	
-0.387695	
-0.388245	
-0.388672	
-0.388855	
-0.388062	
-0.389099	
-0.387878	
-0.388306	
-0.387695	
-0.388794	
-0.388062	
-0.388306	
-0.387573	
-0.388367	
-0.388428	
-0.388	
-0.387451	
-0.387268	
-0.386353	
-0.386292	
-0.385498	
-0.385986	
-0.386169	
-0.385864	
-0.385071	
-0.38623	
-0.386047	
-0.386047	
-0.386658	
-0.385315	
-0.385132	
-0.386047	
-0.386169	
-0.386353	
-0.38623	
-0.385681	
-0.386108	
-0.386841	
-0.386902	
-0.386169	
-0.386902	
-0.38446	
-0.385193	
-0.384827	
-0.385132	
-0.384888	
-0.384583	
-0.384216	
-0.384705	
-0.385071	
-0.38501	
-0.384033	
-0.383789	
-0.383362	
-0.383179	
-0.382996	
-0.382324	
-0.382935	
-0.382507	
-0.382202	
-0.382813	
-0.383789	
-0.383667	
-0.383728	
-0.383423	
-0.383484	
-0.38385	
-0.383789	
-0.383911	
-0.384705	
-0.384644	
-0.384399	
-0.386108	
-0.386475	
-0.386597	
-0.387817	
-0.388123	
-0.38739	
-0.38855	
-0.389099	
-0.389221	
-0.389282	
-0.389038	
-0.388977	
-0.389709	
-0.389404	
-0.389648	
-0.389221	
-0.388916	
-0.388306	
-0.388489	
-0.38916	
-0.388733	
-0.388672	
-0.388428	
-0.388306	
-0.388916	
-0.388428	
-0.387634	
-0.387085	
-0.386963	
-0.386292	
-0.385376	
-0.385437	
-0.38446	
-0.384155	
-0.383789	
-0.384094	
-0.384521	
-0.384583	
-0.384399	
-0.383484	
-0.383057	
-0.383362	
-0.382263	
-0.382263	
-0.383057	
-0.382813	
-0.382263	
-0.383423	
-0.383179	
-0.383057	
-0.383606	
-0.38324	
-0.382568	
-0.382996	
-0.38385	
-0.383606	
-0.383789	
-0.383484	
-0.383545	
-0.384094	
-0.384399	
-0.384216	
-0.385254	
-0.384094	
-0.383728	
-0.384949	
-0.386108	
-0.386047	
-0.385681	
-0.385071	
-0.385437	
-0.386719	
-0.386902	
-0.38678	
-0.387634	
-0.387085	
-0.386902	
-0.387634	
-0.386902	
-0.38739	
-0.387512	
-0.386963	
-0.387573	
-0.389404	
-0.388916	
-0.388	
-0.388489	
-0.38739	
-0.387939	
-0.38855	
-0.387512	
-0.388306	
-0.388245	
-0.387024	
-0.388184	
-0.38855	
-0.388428	
-0.387817	
-0.388062	
-0.386719	
-0.387268	
-0.387573	
-0.386597	
-0.387146	
-0.387207	
-0.387451	
-0.387634	
-0.387451	
-0.387207	
-0.38739	
-0.387207	
-0.386658	
-0.387085	
-0.386658	
-0.386841	
-0.387756	
-0.387268	
-0.387573	
-0.388184	
-0.388916	
-0.387878	
-0.387573	
-0.386658	
-0.387512	
-0.387512	
-0.387024	
-0.387207	
-0.387085	
-0.386658	
-0.38678	
-0.38739	
-0.387207	
-0.386414	
-0.387207	
-0.386719	
-0.385925	
-0.386414	
-0.386475	
-0.386108	
-0.385925	
-0.385376	
-0.386108	
-0.386902	
-0.386169	
-0.386108	
-0.386719	
-0.385864	
-0.38623	
-0.386414	
-0.385681	
-0.387024	
-0.386536	
-0.386169	
-0.387695	
-0.387512	
-0.387756	
-0.387695	
-0.388367	
-0.38678	
-0.387817	
	
