E:\DOCUMENTS AND SETTINGS\JPOTAS\MEUS DOCUMENTOS\UFRJ\RSCI-BM 12 WK SERIES\070719-RSCI-BM-02\RSCI-BM-02-LEMG\070719-RSCI-BM-02-LEMG-0015.ACQ
0.025000 msec/sample
1 channel
Analog input
Volts
CH1	
2000	
-0.393982	
-0.392822	
-0.392883	
-0.39093	
-0.39386	
-0.39325	
-0.393677	
-0.392944	
-0.393494	
-0.393982	
-0.393372	
-0.394348	
-0.392578	
-0.392639	
-0.391724	
-0.39325	
-0.393188	
-0.393188	
-0.3927	
-0.392944	
-0.393188	
-0.393127	
-0.394531	
-0.393433	
-0.393555	
-0.392273	
-0.394165	
-0.394043	
-0.394592	
-0.393372	
-0.393738	
-0.394348	
-0.394226	
-0.395081	
-0.393921	
-0.393921	
-0.393555	
-0.395264	
-0.394958	
-0.395752	
-0.394348	
-0.394836	
-0.395264	
-0.395081	
-0.396118	
-0.393982	
-0.394104	
-0.393982	
-0.394714	
-0.393372	
-0.394409	
-0.39325	
-0.393066	
-0.392883	
-0.392456	
-0.393677	
-0.391785	
-0.391479	
-0.390503	
-0.391113	
-0.390198	
-0.391113	
-0.389526	
-0.389954	
-0.390503	
-0.390198	
-0.391602	
-0.390503	
-0.390381	
-0.389954	
-0.391663	
-0.391113	
-0.391907	
-0.390686	
-0.391418	
-0.392822	
-0.392822	
-0.394287	
-0.393066	
-0.394226	
-0.394287	
-0.395813	
-0.395874	
-0.396973	
-0.39679	
-0.397888	
-0.39801	
-0.397644	
-0.399353	
-0.397705	
-0.398254	
-0.397949	
-0.399475	
-0.399048	
-0.39978	
-0.398804	
-0.399353	
-0.399597	
-0.399292	
-0.400513	
-0.399353	
-0.399536	
-0.399109	
-0.400024	
-0.399658	
-0.40033	
-0.39856	
-0.398987	
-0.400024	
-0.399292	
-0.399658	
-0.397888	
-0.39801	
-0.397339	
-0.397949	
-0.397156	
-0.397461	
-0.396667	
-0.396423	
-0.396851	
-0.396545	
-0.39679	
-0.395142	
-0.395081	
-0.394714	
-0.394348	
-0.394592	
-0.394836	
-0.393982	
-0.393982	
-0.395081	
-0.39386	
-0.394897	
-0.393677	
-0.393738	
-0.393799	
-0.394165	
-0.39386	
-0.39502	
-0.394287	
-0.394592	
-0.394958	
-0.394897	
-0.395996	
-0.395264	
-0.395447	
-0.394958	
-0.395447	
-0.395569	
-0.396729	
-0.395813	
-0.396179	
-0.397034	
-0.397034	
-0.397827	
-0.396118	
-0.396729	
-0.396118	
-0.397034	
-0.396973	
-0.39801	
-0.396851	
-0.39679	
-0.397461	
-0.397461	
-0.398376	
-0.397095	
-0.397339	
-0.39679	
-0.396729	
-0.397217	
-0.397522	
-0.396606	
-0.396423	
-0.39679	
-0.396973	
-0.397644	
-0.396851	
-0.396667	
-0.395935	
-0.395325	
-0.395874	
-0.396667	
-0.395996	
-0.394592	
-0.395142	
-0.395752	
-0.396545	
-0.395874	
-0.394409	
-0.395142	
-0.395081	
-0.396545	
-0.396545	
-0.395935	
-0.394287	
-0.39447	
-0.386047	
-0.384277	
-0.384827	
-0.383545	
-0.384216	
-0.384277	
-0.396057	
-0.39624	
-0.394897	
-0.393677	
-0.393677	
-0.393433	
-0.394531	
-0.393433	
-0.392395	
-0.39209	
-0.391541	
-0.39325	
-0.393005	
-0.392456	
-0.391907	
-0.391907	
-0.393066	
-0.394043	
-0.393066	
-0.392822	
-0.392395	
-0.39209	
-0.39447	
-0.393677	
-0.393494	
-0.393921	
-0.393555	
-0.39447	
-0.395569	
-0.395325	
-0.395447	
-0.395508	
-0.395691	
-0.397705	
-0.398254	
-0.397644	
-0.398132	
-0.397949	
-0.397949	
-0.399292	
-0.398499	
-0.397278	
-0.39679	
-0.395264	
-0.39563	
-0.395142	
-0.393127	
-0.392029	
-0.391052	
-0.390015	
-0.390076	
-0.388245	
-0.387085	
-0.386536	
-0.385803	
-0.387939	
-0.389893	
-0.39032	
-0.392212	
-0.395081	
-0.398499	
-0.402222	
-0.404602	
-0.408081	
-0.412231	
-0.417297	
-0.424194	
-0.429382	
-0.435974	
-0.441711	
-0.449097	
-0.454651	
-0.460938	
-0.465271	
-0.470764	
-0.474548	
-0.478455	
-0.481506	
-0.482849	
-0.483826	
-0.482544	
-0.483948	
-0.483032	
-0.482361	
-0.480835	
-0.481262	
-0.481079	
-0.482422	
-0.483826	
-0.484497	
-0.486267	
-0.487732	
-0.491821	
-0.495056	
-0.497864	
-0.498901	
-0.502258	
-0.505066	
-0.509277	
-0.51178	
-0.515259	
-0.517517	
-0.519836	
-0.52124	
-0.520996	
-0.519836	
-0.517883	
-0.51532	
-0.512451	
-0.510437	
-0.505737	
-0.501831	
-0.497131	
-0.492432	
-0.487671	
-0.482727	
-0.477295	
-0.47168	
-0.467651	
-0.463013	
-0.460876	
-0.456848	
-0.453979	
-0.451538	
-0.450317	
-0.448181	
-0.445435	
-0.443054	
-0.439941	
-0.438354	
-0.434509	
-0.433472	
-0.429443	
-0.425049	
-0.420044	
-0.415771	
-0.410461	
-0.404846	
-0.399048	
-0.392212	
-0.386414	
-0.378662	
-0.372986	
-0.364868	
-0.356873	
-0.347839	
-0.339172	
-0.330261	
-0.321228	
-0.312439	
-0.303467	
-0.295044	
-0.286926	
-0.28125	
-0.273682	
-0.268311	
-0.263611	
-0.259827	
-0.257629	
-0.256409	
-0.255859	
-0.25647	
-0.258606	
-0.261536	
-0.266479	
-0.269287	
-0.273071	
-0.276733	
-0.282288	
-0.286377	
-0.290588	
-0.293213	
-0.297668	
-0.302917	
-0.307922	
-0.311707	
-0.316345	
-0.319946	
-0.32428	
-0.328674	
-0.331665	
-0.334473	
-0.33728	
-0.341187	
-0.343506	
-0.347107	
-0.34845	
-0.350769	
-0.351563	
-0.355591	
-0.356934	
-0.358765	
-0.358765	
-0.361023	
-0.354797	
-0.352966	
-0.354492	
-0.356812	
-0.358398	
-0.360413	
-0.372864	
-0.375488	
-0.376221	
-0.377625	
-0.379517	
-0.38092	
-0.382263	
-0.383728	
-0.384033	
-0.385925	
-0.387817	
-0.387939	
-0.389099	
-0.388306	
-0.389526	
-0.389465	
-0.391968	
-0.39093	
-0.391113	
-0.389893	
-0.391846	
-0.39209	
-0.391235	
-0.391235	
-0.390259	
-0.390503	
-0.390137	
-0.390991	
-0.390442	
-0.390076	
-0.389404	
-0.390625	
-0.391235	
-0.390442	
-0.390198	
-0.389648	
-0.39032	
-0.39093	
-0.389465	
-0.389282	
-0.38916	
-0.38916	
-0.389282	
-0.38916	
-0.388	
-0.387146	
-0.38623	
-0.386719	
-0.388062	
-0.387085	
-0.38739	
-0.387207	
-0.388855	
-0.391052	
-0.392517	
-0.394836	
-0.396362	
-0.399414	
-0.403625	
-0.408264	
-0.411377	
-0.415466	
-0.418762	
-0.425049	
-0.430725	
-0.435425	
-0.440552	
-0.444946	
-0.451294	
-0.45813	
-0.46106	
-0.466125	
-0.469238	
-0.472412	
-0.475159	
-0.474976	
-0.475952	
-0.474182	
-0.473755	
-0.472168	
-0.471924	
-0.469421	
-0.469604	
-0.468567	
-0.471069	
-0.474182	
-0.475525	
-0.47876	
-0.480164	
-0.484436	
-0.487793	
-0.491821	
-0.494568	
-0.497498	
-0.498474	
-0.501892	
-0.503479	
-0.502502	
-0.501343	
-0.498535	
-0.495605	
-0.491089	
-0.486389	
-0.481384	
-0.476013	
-0.46991	
-0.466003	
-0.460388	
-0.455261	
-0.450806	
-0.446411	
-0.443298	
-0.44043	
-0.43689	
-0.433899	
-0.430725	
-0.427368	
-0.426086	
-0.422424	
-0.419312	
-0.416016	
-0.411987	
-0.409851	
-0.407654	
-0.403381	
-0.39917	
-0.394348	
-0.390686	
-0.386475	
-0.380676	
-0.375061	
-0.367615	
-0.360779	
-0.354431	
-0.347351	
-0.338074	
-0.32959	
-0.32074	
-0.312988	
-0.306091	
-0.298279	
-0.292236	
-0.2854	
-0.280151	
-0.277283	
-0.27417	
-0.271423	
-0.269836	
-0.268372	
-0.269348	
-0.270874	
-0.272766	
-0.275269	
-0.276855	
-0.280273	
-0.283447	
-0.287598	
-0.290222	
-0.293457	
-0.297119	
-0.302612	
-0.306152	
-0.310425	
-0.313721	
-0.317993	
-0.322449	
-0.326416	
-0.32959	
-0.332336	
-0.335388	
-0.338867	
-0.342285	
-0.344177	
-0.346924	
-0.348877	
-0.352173	
-0.353638	
-0.357971	
-0.360107	
-0.361816	
-0.364502	
-0.369263	
-0.370972	
-0.373657	
-0.375305	
-0.378296	
-0.381042	
-0.382813	
-0.384827	
-0.38678	
-0.389099	
-0.391846	
-0.394287	
-0.39502	
-0.397339	
-0.398254	
-0.39917	
-0.400513	
-0.40155	
-0.401001	
-0.401184	
-0.40155	
-0.402222	
-0.402466	
-0.402649	
-0.402466	
-0.401184	
-0.402405	
-0.401489	
-0.402039	
-0.401489	
-0.399902	
-0.39856	
-0.400452	
-0.398865	
-0.397766	
-0.396606	
-0.396362	
-0.396301	
-0.395081	
-0.394531	
-0.39386	
-0.392029	
-0.392212	
-0.393494	
-0.391724	
-0.391296	
-0.390625	
-0.390381	
-0.390137	
-0.390015	
-0.389709	
-0.389282	
-0.387817	
-0.388245	
-0.38916	
-0.38739	
-0.38739	
-0.385864	
-0.386963	
-0.386902	
-0.387085	
-0.386047	
-0.385925	
-0.385925	
-0.38623	
-0.386475	
-0.385803	
-0.386963	
-0.38501	
-0.386047	
-0.386475	
-0.386536	
-0.385986	
-0.385193	
-0.384949	
-0.386536	
-0.385803	
-0.385925	
-0.385742	
-0.385986	
-0.386658	
-0.387085	
-0.386414	
-0.385803	
-0.385742	
-0.386169	
-0.387146	
-0.386536	
-0.387634	
-0.38446	
-0.38623	
-0.386719	
-0.386719	
-0.386292	
-0.385193	
-0.385925	
-0.387817	
-0.386414	
-0.386658	
-0.38623	
-0.38678	
-0.386963	
-0.387024	
-0.386719	
-0.386902	
-0.386963	
-0.387451	
-0.388367	
-0.387451	
-0.388672	
-0.386536	
-0.388062	
-0.388428	
-0.388367	
-0.388306	
-0.387329	
-0.387268	
-0.389282	
-0.388489	
-0.388916	
-0.388367	
-0.388733	
-0.388977	
-0.38916	
-0.389221	
-0.389099	
-0.388489	
-0.390076	
-0.390137	
-0.389038	
-0.388733	
-0.387146	
-0.388428	
-0.388306	
-0.388916	
-0.387512	
-0.387634	
-0.387451	
-0.387695	
-0.387207	
-0.385925	
-0.385986	
-0.385132	
-0.384827	
-0.385559	
-0.385742	
-0.385132	
-0.384949	
-0.384644	
-0.386475	
-0.386658	
-0.385803	
-0.386169	
-0.385498	
-0.386414	
-0.386536	
-0.387451	
-0.387146	
-0.387268	
-0.387268	
-0.389526	
-0.389648	
-0.390076	
-0.390686	
-0.39093	
-0.391968	
-0.392578	
-0.393372	
-0.393494	
-0.393494	
-0.3927	
-0.395142	
-0.394775	
-0.393982	
-0.393982	
-0.393982	
-0.395081	
-0.395447	
-0.395203	
-0.395386	
-0.395264	
-0.395325	
-0.396423	
-0.396667	
-0.395691	
-0.395447	
-0.394653	
-0.396301	
-0.396423	
-0.395569	
-0.395813	
-0.395935	
-0.395935	
-0.395935	
-0.395447	
-0.395081	
-0.394653	
-0.393982	
-0.394348	
-0.394287	
-0.393616	
-0.393982	
-0.392273	
-0.393677	
-0.393372	
-0.392578	
-0.392578	
-0.393066	
-0.392273	
-0.391724	
-0.391602	
-0.391602	
-0.391479	
-0.391785	
-0.392273	
-0.392883	
-0.391418	
-0.390625	
-0.391296	
-0.391785	
-0.392578	
-0.392578	
-0.392639	
-0.392639	
-0.391785	
-0.393311	
-0.393188	
-0.393005	
-0.393494	
-0.392639	
-0.393738	
-0.394287	
-0.393982	
-0.394043	
-0.39325	
-0.395325	
-0.394653	
-0.394409	
-0.394531	
-0.39502	
-0.394775	
-0.395203	
-0.394958	
-0.395142	
-0.395447	
-0.395081	
-0.396057	
-0.395996	
-0.395142	
-0.394531	
-0.395569	
-0.39563	
-0.395813	
-0.394775	
-0.395447	
-0.395447	
-0.395142	
-0.395142	
-0.395081	
-0.394348	
-0.394592	
-0.393555	
-0.394714	
-0.395325	
-0.394165	
-0.394348	
-0.39386	
-0.394348	
-0.394226	
-0.394531	
-0.393921	
-0.393982	
-0.393677	
-0.394714	
-0.394714	
-0.394287	
-0.394592	
-0.39325	
-0.394897	
-0.394165	
-0.393555	
-0.393738	
-0.393738	
-0.393188	
-0.393555	
-0.393494	
-0.392395	
-0.392212	
-0.391296	
-0.393066	
-0.392395	
-0.39209	
-0.391785	
-0.391357	
-0.391296	
-0.391418	
-0.391174	
-0.390747	
-0.390747	
-0.390076	
-0.391418	
-0.391785	
-0.391479	
-0.390564	
-0.391418	
-0.391724	
-0.391663	
-0.391968	
-0.391724	
-0.391785	
-0.391907	
-0.392334	
-0.393372	
-0.393066	
-0.392029	
-0.393494	
-0.39447	
-0.394592	
-0.395264	
-0.395325	
-0.395752	
-0.396667	
-0.396423	
-0.397156	
-0.396973	
-0.396973	
-0.3974	
-0.397217	
-0.397888	
-0.397766	
-0.397644	
-0.397339	
-0.397522	
-0.396423	
-0.397949	
-0.397156	
-0.396973	
-0.396301	
-0.396362	
-0.397034	
-0.395813	
-0.395874	
-0.394714	
-0.394714	
-0.393066	
-0.393799	
-0.391724	
-0.391785	
-0.391052	
-0.390869	
-0.391235	
-0.39032	
-0.390076	
-0.389893	
-0.390564	
-0.390076	
-0.390076	
-0.388367	
-0.389954	
-0.390076	
-0.389832	
-0.389832	
-0.389587	
-0.389832	
-0.389099	
-0.389709	
-0.389771	
-0.389832	
-0.389587	
-0.389587	
-0.390381	
-0.389709	
-0.389832	
-0.390198	
-0.389709	
-0.389343	
-0.390198	
-0.39093	
-0.390442	
-0.390869	
-0.391174	
-0.391907	
-0.391479	
-0.391602	
-0.391846	
-0.391296	
-0.390991	
-0.391724	
-0.393188	
-0.392395	
-0.392822	
-0.392578	
-0.393616	
-0.393433	
-0.393555	
-0.393555	
-0.393372	
-0.392456	
-0.392639	
-0.393982	
-0.392944	
-0.393066	
-0.39325	
-0.393738	
-0.393433	
-0.393494	
-0.393616	
-0.39325	
-0.392761	
-0.391968	
-0.39386	
-0.392517	
-0.392395	
-0.391296	
-0.392639	
-0.391846	
-0.391907	
-0.392151	
-0.391785	
-0.392639	
-0.390747	
-0.392334	
-0.391296	
-0.391541	
-0.39093	
-0.392273	
-0.391724	
-0.391418	
-0.39093	
-0.391174	
-0.391968	
-0.390564	
-0.391907	
-0.391235	
-0.391418	
-0.390625	
-0.392273	
-0.391479	
-0.390991	
-0.390625	
-0.390381	
-0.391235	
-0.390015	
-0.390808	
-0.389526	
-0.390015	
-0.389099	
-0.391174	
-0.390869	
-0.389954	
-0.389587	
-0.389771	
-0.390381	
-0.388794	
-0.389832	
-0.388428	
-0.388794	
-0.387939	
-0.390076	
-0.389954	
-0.389282	
-0.388733	
-0.389587	
-0.390259	
-0.389282	
-0.390198	
-0.389099	
-0.390076	
-0.389465	
-0.391602	
-0.391785	
-0.391235	
-0.391113	
-0.391602	
-0.392761	
-0.392273	
-0.393372	
-0.391968	
-0.393005	
-0.392456	
-0.394043	
-0.393555	
-0.393066	
-0.391968	
-0.391479	
-0.392395	
-0.391785	
-0.392029	
-0.391174	
-0.391602	
-0.390442	
-0.391968	
-0.391052	
-0.389832	
-0.38855	
-0.388184	
-0.388672	
-0.387146	
-0.386963	
-0.386169	
-0.385986	
-0.384216	
-0.385864	
-0.385071	
-0.384827	
-0.383362	
-0.38446	
-0.38446	
-0.384216	
-0.384277	
-0.383911	
-0.383972	
-0.38385	
-0.384155	
-0.383789	
-0.383606	
-0.382629	
-0.383545	
-0.383667	
-0.383545	
-0.383362	
-0.383423	
-0.384033	
-0.383789	
-0.384338	
-0.384094	
-0.383972	
-0.384094	
-0.384766	
-0.385193	
-0.385437	
-0.386108	
-0.386719	
-0.38678	
-0.387146	
-0.387512	
-0.387817	
-0.387634	
-0.387695	
-0.388123	
-0.388	
-0.388611	
-0.388855	
-0.389282	
-0.388855	
-0.389099	
-0.389099	
-0.38916	
-0.389465	
-0.389038	
-0.389648	
-0.389221	
-0.389709	
-0.388794	
-0.388611	
-0.388611	
-0.389221	
-0.388977	
-0.388672	
-0.388916	
-0.388733	
-0.388855	
-0.387695	
-0.388184	
-0.387451	
-0.387512	
-0.386414	
-0.387146	
-0.387268	
-0.386597	
-0.386841	
-0.386597	
-0.387146	
-0.386108	
-0.386902	
-0.385437	
-0.386047	
-0.384949	
-0.385742	
-0.38623	
-0.385803	
-0.386108	
-0.385437	
-0.385986	
-0.386353	
-0.386597	
-0.385498	
-0.385986	
-0.385437	
-0.38678	
-0.387451	
-0.386475	
-0.387207	
-0.386902	
-0.387329	
-0.386719	
-0.386963	
-0.38562	
-0.387024	
-0.386108	
-0.38739	
-0.388123	
-0.38739	
-0.387634	
-0.386414	
-0.387146	
-0.387146	
-0.38739	
-0.385986	
-0.386902	
-0.385742	
-0.387268	
-0.387573	
-0.38678	
-0.387512	
-0.386719	
-0.387329	
-0.387268	
-0.388	
-0.387024	
-0.388245	
-0.38739	
-0.389526	
-0.389771	
-0.389526	
-0.389343	
-0.388611	
-0.389832	
-0.389771	
-0.389954	
-0.389099	
-0.390076	
-0.389343	
-0.390564	
-0.390076	
-0.389893	
-0.389954	
-0.388306	
-0.389343	
-0.388733	
-0.389465	
-0.388184	
-0.388855	
-0.387817	
-0.388916	
-0.388489	
-0.388306	
-0.388428	
-0.386169	
-0.386902	
-0.386047	
-0.386353	
-0.385254	
-0.384888	
-0.383972	
-0.384705	
-0.38446	
-0.384216	
-0.38385	
-0.382507	
-0.383911	
-0.382751	
-0.38324	
-0.38324	
-0.383118	
-0.382996	
-0.384277	
-0.383728	
-0.383911	
-0.384277	
-0.384033	
-0.38446	
-0.383911	
-0.384399	
-0.385193	
-0.385437	
-0.385376	
-0.387695	
-0.387085	
-0.388123	
-0.389038	
-0.388916	
-0.388916	
-0.389099	
-0.39032	
-0.390137	
-0.389954	
-0.389587	
-0.390686	
-0.389465	
-0.390381	
-0.390381	
-0.390503	
-0.390137	
-0.389526	
-0.390442	
-0.390747	
-0.390076	
-0.389404	
-0.391296	
-0.389893	
-0.390076	
-0.390442	
-0.39032	
-0.390076	
-0.389038	
-0.389587	
-0.389771	
-0.389709	
-0.388855	
-0.390076	
-0.389099	
-0.389771	
-0.389587	
-0.389343	
-0.388184	
-0.387634	
-0.387878	
-0.388306	
-0.387817	
-0.386902	
-0.388611	
-0.386719	
-0.386597	
-0.386475	
-0.386658	
-0.386292	
-0.385254	
-0.386047	
-0.385803	
-0.386108	
-0.384766	
-0.38739	
-0.385925	
-0.385986	
-0.385986	
-0.386719	
-0.386414	
-0.384888	
-0.386108	
-0.386169	
-0.386108	
-0.385742	
-0.38739	
-0.38623	
-0.386353	
-0.385925	
-0.387756	
-0.386963	
-0.38623	
-0.387207	
-0.386841	
-0.386841	
-0.386108	
-0.388	
-0.387329	
-0.387024	
-0.385925	
-0.387573	
-0.387207	
-0.386658	
-0.386841	
-0.386963	
-0.386963	
-0.386292	
-0.387573	
-0.38678	
-0.386719	
-0.385986	
-0.387451	
-0.387024	
-0.387024	
-0.386963	
-0.387634	
-0.387512	
-0.387512	
-0.388794	
-0.387573	
-0.387939	
-0.387268	
-0.388733	
-0.387573	
-0.388245	
-0.387634	
-0.388611	
-0.388062	
-0.388062	
-0.389343	
-0.388794	
-0.388977	
-0.388245	
-0.389709	
-0.38855	
-0.388794	
-0.387878	
-0.38855	
-0.388245	
-0.388489	
-0.388611	
-0.387451	
-0.387573	
-0.386536	
-0.387634	
-0.386414	
-0.386902	
-0.385071	
-0.385498	
-0.385376	
-0.385437	
-0.385071	
-0.384155	
-0.384766	
-0.383179	
-0.384583	
-0.384033	
-0.384766	
-0.383362	
-0.384094	
-0.384827	
-0.385925	
-0.385254	
-0.385193	
-0.386108	
-0.384766	
-0.386047	
-0.386108	
-0.387146	
-0.386658	
-0.387817	
-0.388184	
-0.390442	
-0.390442	
-0.390747	
-0.391541	
-0.390747	
-0.39209	
-0.391907	
-0.3927	
-0.391846	
-0.392883	
-0.392761	
-0.393799	
-0.39325	
-0.393188	
-0.393494	
-0.392639	
-0.393616	
-0.393677	
-0.39447	
-0.393188	
-0.393616	
-0.393738	
-0.39502	
-0.394775	
-0.393921	
-0.393677	
-0.393005	
-0.393738	
-0.393494	
-0.39447	
-0.392944	
-0.393005	
-0.3927	
-0.393066	
-0.392944	
-0.391724	
-0.391907	
-0.390747	
-0.390686	
-0.390259	
-0.391479	
-0.390564	
-0.390686	
-0.389893	
-0.390198	
-0.389771	
-0.389038	
-0.388672	
-0.388733	
-0.388367	
-0.388672	
-0.389587	
-0.388489	
-0.388367	
-0.387756	
-0.388733	
-0.389465	
-0.38916	
-0.388794	
-0.388916	
-0.389465	
-0.389099	
-0.389771	
-0.389343	
-0.389343	
-0.389221	
-0.390442	
-0.390808	
-0.390625	
-0.39032	
-0.390869	
-0.390625	
-0.390625	
-0.390869	
-0.391052	
-0.391296	
-0.390015	
-0.391174	
-0.391663	
-0.391479	
-0.392639	
-0.391602	
-0.391846	
-0.391296	
-0.391541	
-0.391785	
-0.391785	
-0.390869	
-0.391357	
-0.391785	
-0.391113	
-0.391968	
-0.390869	
-0.391235	
-0.391235	
-0.390137	
-0.390442	
-0.390381	
-0.390381	
-0.390869	
-0.39093	
-0.389343	
-0.390442	
-0.388977	
-0.389832	
-0.389771	
-0.389648	
-0.389893	
-0.389526	
-0.389893	
-0.390015	
-0.390076	
-0.389526	
-0.390381	
-0.388977	
-0.389404	
-0.389343	
-0.389526	
-0.389221	
-0.389221	
-0.388489	
-0.388794	
-0.388733	
-0.387573	
-0.388916	
-0.386719	
-0.387756	
-0.387268	
-0.387329	
-0.386841	
-0.386597	
-0.386169	
-0.386475	
-0.386719	
-0.385559	
-0.387024	
-0.385376	
-0.386841	
-0.386719	
-0.386597	
-0.386902	
-0.387085	
-0.386841	
-0.387024	
-0.387634	
-0.386536	
-0.388855	
-0.386292	
-0.388	
-0.387756	
-0.388367	
-0.388733	
-0.388977	
-0.389648	
-0.390137	
-0.391113	
-0.390625	
-0.392578	
-0.390869	
-0.391846	
-0.392395	
-0.3927	
-0.392395	
-0.392456	
-0.393188	
-0.392578	
-0.392578	
-0.391724	
-0.393066	
-0.391968	
-0.3927	
-0.392578	
-0.392334	
-0.392029	
-0.392029	
-0.392517	
-0.391296	
-0.390869	
-0.389832	
-0.391174	
-0.388977	
-0.389465	
-0.388611	
-0.388123	
-0.387207	
-0.386719	
-0.386841	
-0.386353	
-0.386047	
-0.38501	
-0.386963	
-0.385254	
-0.386353	
-0.386841	
-0.386353	
-0.386169	
-0.385986	
-0.386292	
-0.386047	
-0.385742	
-0.384949	
-0.386902	
-0.385254	
-0.386169	
-0.386353	
-0.386047	
-0.385925	
-0.385986	
-0.387207	
-0.386536	
-0.386597	
-0.385925	
-0.388367	
-0.386475	
-0.387451	
-0.387451	
-0.387695	
-0.387634	
-0.387268	
-0.388733	
-0.388245	
-0.388184	
-0.387573	
-0.390198	
-0.388428	
-0.389526	
-0.388733	
-0.390259	
-0.390503	
-0.389282	
-0.390198	
-0.390076	
-0.390564	
-0.389404	
-0.391663	
-0.389343	
-0.390564	
-0.389221	
-0.390686	
-0.390747	
-0.389526	
-0.390625	
-0.390747	
-0.390564	
-0.389404	
-0.391052	
-0.389221	
-0.389832	
-0.389587	
-0.389954	
-0.389282	
-0.389282	
-0.389465	
-0.389771	
-0.389832	
-0.388672	
-0.390015	
-0.388306	
-0.389343	
-0.389343	
-0.38916	
-0.389343	
-0.389526	
-0.389404	
-0.389648	
-0.389221	
-0.38855	
-0.390198	
-0.387939	
-0.389404	
-0.389099	
-0.389404	
-0.389343	
-0.389404	
-0.388855	
-0.389282	
-0.389099	
-0.388489	
-0.389221	
-0.387329	
-0.388428	
-0.388611	
-0.388184	
-0.388611	
-0.388489	
-0.387939	
-0.388123	
-0.388	
-0.388733	
-0.388489	
-0.386414	
-0.387451	
-0.387268	
-0.38739	
-0.386841	
-0.387695	
-0.387573	
-0.38739	
-0.387451	
-0.388733	
-0.38855	
-0.38739	
-0.388489	
-0.388062	
-0.388611	
-0.389526	
-0.389648	
-0.389404	
-0.390076	
-0.390015	
-0.391724	
-0.391907	
-0.390747	
-0.392334	
-0.391418	
-0.391541	
-0.391663	
-0.391968	
-0.391113	
-0.391357	
-0.391479	
-0.39209	
-0.391663	
-0.389954	
-0.391296	
-0.389709	
-0.390076	
-0.389404	
-0.389954	
-0.38916	
-0.389099	
-0.388062	
-0.388489	
-0.387756	
-0.385681	
-0.386353	
-0.38446	
-0.384338	
-0.383911	
-0.38446	
-0.383423	
-0.383545	
-0.383362	
-0.38385	
-0.383972	
-0.382385	
-0.382935	
-0.382446	
-0.382751	
-0.381836	
-0.383179	
-0.382507	
-0.382446	
-0.382202	
-0.383301	
-0.382751	
-0.382385	
-0.382446	
-0.38147	
-0.382324	
-0.381958	
-0.38324	
-0.382751	
-0.38324	
-0.383362	
-0.384399	
-0.383728	
-0.384705	
-0.385071	
-0.384827	
-0.385315	
-0.38446	
-0.386902	
-0.386658	
-0.387024	
-0.386292	
-0.387573	
-0.386719	
-0.386963	
-0.387207	
-0.387939	
-0.387817	
-0.386963	
-0.388489	
-0.388062	
-0.388123	
-0.388	
-0.389221	
-0.387634	
-0.387756	
-0.387268	
-0.387512	
-0.387573	
-0.38739	
-0.388245	
-0.387207	
-0.388794	
-0.387268	
-0.388306	
-0.386475	
-0.386719	
-0.385925	
-0.385681	
-0.38562	
-0.385559	
-0.38623	
-0.385437	
-0.385925	
-0.384888	
-0.386536	
-0.385132	
-0.38562	
-0.384399	
-0.384521	
-0.384521	
-0.384644	
-0.385254	
-0.384277	
-0.385132	
-0.384583	
-0.386108	
-0.384705	
-0.385437	
-0.384827	
-0.385132	
-0.384766	
-0.385437	
-0.386292	
-0.385742	
-0.386169	
-0.385315	
-0.387268	
-0.385681	
-0.386169	
-0.385803	
-0.386597	
-0.38623	
-0.386292	
-0.386658	
-0.386475	
-0.387085	
-0.385864	
-0.387512	
-0.385925	
-0.386475	
-0.385559	
-0.385986	
-0.385986	
-0.386047	
-0.386597	
-0.386108	
-0.387085	
-0.386475	
-0.388611	
-0.386658	
-0.387512	
-0.386536	
-0.387634	
-0.387451	
-0.387878	
-0.388916	
-0.388489	
-0.389465	
-0.388733	
-0.390503	
-0.389282	
-0.389771	
-0.388184	
-0.389282	
-0.389343	
-0.389099	
-0.389771	
-0.388916	
-0.389282	
-0.388672	
-0.389954	
-0.388184	
-0.388977	
-0.386963	
-0.388428	
-0.387573	
-0.387817	
-0.388184	
-0.387146	
-0.386963	
-0.386475	
-0.387329	
-0.384705	
-0.384888	
-0.382935	
-0.383911	
-0.383179	
-0.383179	
-0.383972	
-0.382996	
-0.38324	
-0.382507	
-0.383484	
-0.381836	
-0.382813	
-0.38147	
-0.382629	
-0.382629	
-0.382507	
-0.383362	
-0.383118	
-0.38385	
-0.38324	
-0.384094	
-0.382935	
-0.384094	
-0.383545	
-0.384949	
-0.385559	
-0.385742	
-0.387512	
-0.387268	
-0.387695	
-0.387939	
-0.389221	
-0.387634	
-0.389587	
-0.388306	
-0.389221	
-0.389099	
-0.38855	
-0.389832	
-0.389221	
-0.38916	
-0.388855	
-0.390259	
-0.38916	
-0.389648	
-0.388428	
-0.389832	
-0.389587	
-0.388733	
-0.39032	
-0.389771	
-0.389587	
-0.388672	
-0.390137	
-0.38916	
-0.38916	
-0.388062	
-0.388977	
-0.388123	
-0.388428	
-0.389404	
-0.388855	
-0.388306	
-0.38739	
-0.388733	
-0.387451	
-0.38739	
-0.385559	
-0.387024	
-0.386719	
-0.386292	
-0.386719	
-0.386169	
-0.385925	
-0.38501	
-0.385803	
-0.385437	
-0.385376	
-0.384521	
-0.385498	
-0.385132	
-0.385315	
-0.385132	
-0.385864	
-0.385254	
-0.385071	
-0.386169	
-0.386047	
-0.385254	
-0.384216	
-0.385498	
-0.385376	
-0.385925	
-0.385498	
-0.386536	
-0.385864	
-0.386658	
-0.386353	
	
