E:\DOCUMENTS AND SETTINGS\JPOTAS\MEUS DOCUMENTOS\UFRJ\RSCI-BM 12 WK SERIES\070719-RSCI-BM-02\RSCI-BM-02-LEMG\070719-RSCI-BM-02-LEMG-0006.ACQ
0.025000 msec/sample
1 channel
Analog input
Volts
CH1	
2000	
-0.399841	
-0.400269	
-0.400452	
-0.400635	
-0.400513	
-0.400085	
-0.40033	
-0.399353	
-0.401306	
-0.400146	
-0.399841	
-0.399292	
-0.399841	
-0.399353	
-0.399719	
-0.400024	
-0.39917	
-0.399292	
-0.398804	
-0.399109	
-0.397949	
-0.39978	
-0.39856	
-0.397461	
-0.398071	
-0.398132	
-0.398315	
-0.397461	
-0.397095	
-0.397156	
-0.397156	
-0.397644	
-0.396362	
-0.395569	
-0.395142	
-0.394836	
-0.394592	
-0.394165	
-0.394165	
-0.393738	
-0.392639	
-0.392273	
-0.392212	
-0.39209	
-0.392578	
-0.391663	
-0.390625	
-0.391052	
-0.391235	
-0.391235	
-0.390198	
-0.390015	
-0.389893	
-0.390015	
-0.389832	
-0.390442	
-0.390686	
-0.390381	
-0.39032	
-0.390991	
-0.391602	
-0.391052	
-0.390076	
-0.391052	
-0.390991	
-0.390808	
-0.39209	
-0.391724	
-0.391479	
-0.391052	
-0.391479	
-0.39209	
-0.39209	
-0.392334	
-0.390808	
-0.391174	
-0.391724	
-0.392822	
-0.392456	
-0.392334	
-0.391968	
-0.392456	
-0.392273	
-0.392822	
-0.392151	
-0.392273	
-0.392029	
-0.392395	
-0.392883	
-0.393188	
-0.392639	
-0.393005	
-0.392944	
-0.392578	
-0.393188	
-0.392578	
-0.392273	
-0.392395	
-0.392822	
-0.391602	
-0.392822	
-0.392395	
-0.392395	
-0.391724	
-0.39209	
-0.393494	
-0.393188	
-0.39386	
-0.393982	
-0.393433	
-0.394165	
-0.395447	
-0.395569	
-0.394836	
-0.394897	
-0.395386	
-0.394775	
-0.395386	
-0.394653	
-0.394836	
-0.393982	
-0.39447	
-0.394409	
-0.395081	
-0.394653	
-0.394348	
-0.393677	
-0.394226	
-0.395142	
-0.394165	
-0.394104	
-0.394043	
-0.393616	
-0.393494	
-0.395325	
-0.394653	
-0.394348	
-0.394104	
-0.394592	
-0.395203	
-0.395142	
-0.39447	
-0.394897	
-0.393921	
-0.394714	
-0.395081	
-0.395203	
-0.39447	
-0.394714	
-0.39502	
-0.39502	
-0.395203	
-0.394775	
-0.395325	
-0.39386	
-0.393982	
-0.393921	
-0.395203	
-0.394287	
-0.393921	
-0.393677	
-0.393127	
-0.395142	
-0.394165	
-0.393311	
-0.394043	
-0.394104	
-0.393921	
-0.394653	
-0.394836	
-0.393494	
-0.39325	
-0.394043	
-0.393799	
-0.39325	
-0.392761	
-0.392212	
-0.391602	
-0.391052	
-0.390991	
-0.391113	
-0.390381	
-0.389954	
-0.388672	
-0.389404	
-0.390259	
-0.389099	
-0.38855	
-0.387817	
-0.388489	
-0.387939	
-0.389709	
-0.390015	
-0.389282	
-0.389404	
-0.389465	
-0.389954	
-0.383911	
-0.378601	
-0.377441	
-0.37854	
-0.378052	
-0.378784	
-0.385803	
-0.390503	
-0.390686	
-0.390625	
-0.390808	
-0.390503	
-0.390808	
-0.390503	
-0.390442	
-0.390381	
-0.390991	
-0.391418	
-0.391357	
-0.391724	
-0.390991	
-0.39093	
-0.391907	
-0.391724	
-0.390991	
-0.390808	
-0.392639	
-0.391968	
-0.393372	
-0.393311	
-0.392456	
-0.392639	
-0.388062	
-0.383118	
-0.382507	
-0.38385	
-0.383118	
-0.384033	
-0.39032	
-0.395935	
-0.39624	
-0.394958	
-0.394226	
-0.394409	
-0.394226	
-0.392395	
-0.391968	
-0.390137	
-0.389526	
-0.388855	
-0.387451	
-0.388428	
-0.387817	
-0.387695	
-0.388367	
-0.390015	
-0.392456	
-0.393921	
-0.396118	
-0.397766	
-0.401794	
-0.404419	
-0.409607	
-0.41333	
-0.416504	
-0.421265	
-0.425659	
-0.430969	
-0.435059	
-0.438721	
-0.443359	
-0.447937	
-0.451599	
-0.457275	
-0.460327	
-0.463745	
-0.466614	
-0.469299	
-0.473083	
-0.474487	
-0.475342	
-0.476807	
-0.478943	
-0.479797	
-0.482056	
-0.482117	
-0.482056	
-0.48291	
-0.482849	
-0.483643	
-0.482971	
-0.483704	
-0.483337	
-0.485901	
-0.486938	
-0.489624	
-0.491882	
-0.493286	
-0.495667	
-0.498535	
-0.500854	
-0.501526	
-0.503845	
-0.503967	
-0.505188	
-0.50531	
-0.505249	
-0.5047	
-0.502686	
-0.500244	
-0.49762	
-0.495178	
-0.49115	
-0.486572	
-0.482483	
-0.47876	
-0.474426	
-0.47052	
-0.46698	
-0.462952	
-0.459412	
-0.456055	
-0.454346	
-0.451172	
-0.44751	
-0.44458	
-0.441956	
-0.438782	
-0.434753	
-0.433838	
-0.429016	
-0.425049	
-0.421143	
-0.416077	
-0.411926	
-0.406982	
-0.401794	
-0.395325	
-0.390686	
-0.383911	
-0.378174	
-0.371765	
-0.364014	
-0.356873	
-0.34967	
-0.34375	
-0.336304	
-0.328613	
-0.321533	
-0.31427	
-0.307617	
-0.299744	
-0.295837	
-0.289368	
-0.284119	
-0.279968	
-0.276917	
-0.274353	
-0.272644	
-0.272583	
-0.27124	
-0.273621	
-0.27478	
-0.279541	
-0.281738	
-0.286011	
-0.291077	
-0.296936	
-0.302856	
-0.308594	
-0.314026	
-0.319397	
-0.325745	
-0.331665	
-0.337524	
-0.341919	
-0.347351	
-0.352234	
-0.357544	
-0.361694	
-0.366211	
-0.370483	
-0.374268	
-0.377502	
-0.380554	
-0.383423	
-0.385132	
-0.386597	
-0.386841	
-0.389099	
-0.388672	
-0.388794	
-0.389343	
-0.390442	
-0.390442	
-0.390808	
-0.391174	
-0.391113	
-0.392212	
-0.391479	
-0.394043	
-0.394287	
-0.395142	
-0.39502	
-0.39563	
-0.396118	
-0.397278	
-0.397278	
-0.396057	
-0.395935	
-0.394165	
-0.394287	
-0.3927	
-0.391174	
-0.389709	
-0.388733	
-0.386292	
-0.384583	
-0.38269	
-0.380127	
-0.377808	
-0.375061	
-0.37207	
-0.369202	
-0.36554	
-0.362488	
-0.358643	
-0.355164	
-0.351929	
-0.348511	
-0.344482	
-0.340515	
-0.336853	
-0.334106	
-0.331421	
-0.328796	
-0.327087	
-0.325867	
-0.324646	
-0.325073	
-0.324646	
-0.323669	
-0.324219	
-0.324341	
-0.325134	
-0.326233	
-0.328064	
-0.329773	
-0.332092	
-0.334229	
-0.338074	
-0.340271	
-0.343506	
-0.346497	
-0.348206	
-0.351196	
-0.354675	
-0.357178	
-0.360596	
-0.363098	
-0.364929	
-0.369873	
-0.371277	
-0.374084	
-0.37677	
-0.378845	
-0.381226	
-0.383057	
-0.385437	
-0.388184	
-0.389648	
-0.390686	
-0.39447	
-0.394775	
-0.39563	
-0.397156	
-0.398804	
-0.398865	
-0.399963	
-0.400146	
-0.401062	
-0.401489	
-0.402222	
-0.403564	
-0.403015	
-0.40387	
-0.402527	
-0.404175	
-0.403992	
-0.405273	
-0.403992	
-0.404907	
-0.404236	
-0.405823	
-0.405579	
-0.405334	
-0.405029	
-0.403809	
-0.404419	
-0.403748	
-0.402893	
-0.4021	
-0.401062	
-0.39978	
-0.399902	
-0.398682	
-0.397583	
-0.396057	
-0.395691	
-0.394348	
-0.393921	
-0.393066	
-0.392822	
-0.392273	
-0.392395	
-0.393738	
-0.39209	
-0.392517	
-0.391846	
-0.393005	
-0.393127	
-0.393433	
-0.393311	
-0.394287	
-0.394592	
-0.395203	
-0.396484	
-0.395508	
-0.396362	
-0.396118	
-0.396301	
-0.39679	
-0.397583	
-0.396179	
-0.397949	
-0.397522	
-0.398376	
-0.399658	
-0.398743	
-0.39978	
-0.399292	
-0.399231	
-0.399597	
-0.40155	
-0.400024	
-0.40155	
-0.401611	
-0.402344	
-0.403381	
-0.402771	
-0.40271	
-0.401855	
-0.40155	
-0.401672	
-0.402161	
-0.399841	
-0.400818	
-0.400269	
-0.400269	
-0.400879	
-0.399658	
-0.399841	
-0.398132	
-0.398621	
-0.396851	
-0.397827	
-0.395325	
-0.395813	
-0.395081	
-0.394836	
-0.394897	
-0.394104	
-0.393127	
-0.391174	
-0.39209	
-0.390686	
-0.392212	
-0.390015	
-0.39032	
-0.389221	
-0.390137	
-0.390198	
-0.389893	
-0.389526	
-0.388367	
-0.389038	
-0.389221	
-0.389404	
-0.387573	
-0.388245	
-0.388184	
-0.388367	
-0.38855	
-0.388489	
-0.387817	
-0.386719	
-0.38678	
-0.387268	
-0.387878	
-0.386292	
-0.387268	
-0.387268	
-0.387512	
-0.387756	
-0.387634	
-0.38678	
-0.385925	
-0.386047	
-0.386169	
-0.387085	
-0.386658	
-0.387451	
-0.387573	
-0.387695	
-0.388428	
-0.389099	
-0.388611	
-0.387512	
-0.387634	
-0.387207	
-0.388306	
-0.388184	
-0.388672	
-0.388611	
-0.388	
-0.389648	
-0.390015	
-0.389954	
-0.38855	
-0.389038	
-0.38855	
-0.388428	
-0.388184	
-0.388306	
-0.388733	
-0.388977	
-0.389343	
-0.388672	
-0.389038	
-0.388733	
-0.388672	
-0.388306	
-0.388794	
-0.388916	
-0.388977	
-0.389099	
-0.388977	
-0.389832	
-0.39032	
-0.390564	
-0.389893	
-0.390991	
-0.390564	
-0.390991	
-0.391296	
-0.39209	
-0.39209	
-0.392395	
-0.392578	
-0.393616	
-0.394104	
-0.394653	
-0.394958	
-0.39386	
-0.395996	
-0.39679	
-0.39801	
-0.398315	
-0.398743	
-0.398071	
-0.399658	
-0.400391	
-0.400146	
-0.398926	
-0.399292	
-0.399109	
-0.400146	
-0.399231	
-0.399963	
-0.399536	
-0.398621	
-0.400085	
-0.40033	
-0.400085	
-0.397339	
-0.399048	
-0.398438	
-0.398804	
-0.398743	
-0.398254	
-0.398193	
-0.397888	
-0.398621	
-0.398621	
-0.398438	
-0.397156	
-0.398193	
-0.398193	
-0.397644	
-0.398376	
-0.398071	
-0.397156	
-0.396545	
-0.397705	
-0.396545	
-0.396423	
-0.395386	
-0.395142	
-0.394653	
-0.394958	
-0.395752	
-0.394226	
-0.394531	
-0.393311	
-0.395325	
-0.394836	
-0.394592	
-0.393494	
-0.393494	
-0.393005	
-0.393066	
-0.39325	
-0.391907	
-0.393066	
-0.391968	
-0.393677	
-0.393738	
-0.394043	
-0.393188	
-0.393372	
-0.392944	
-0.393372	
-0.393494	
-0.392212	
-0.393433	
-0.393066	
-0.394775	
-0.393982	
-0.394348	
-0.393555	
-0.393494	
-0.393372	
-0.39386	
-0.393127	
-0.392334	
-0.393372	
-0.392456	
-0.393982	
-0.393677	
-0.394165	
-0.39325	
-0.393738	
-0.393311	
-0.393677	
-0.392944	
-0.391907	
-0.393188	
-0.3927	
-0.394409	
-0.393555	
-0.394836	
-0.393799	
-0.393921	
-0.392883	
-0.393677	
-0.393555	
-0.392761	
-0.393066	
-0.393799	
-0.394531	
-0.393494	
-0.394348	
-0.393372	
-0.393616	
-0.394043	
-0.394653	
-0.394836	
-0.39502	
-0.395142	
-0.395569	
-0.395935	
-0.395691	
-0.396973	
-0.395813	
-0.395874	
-0.396606	
-0.395874	
-0.396057	
-0.395508	
-0.39563	
-0.395813	
-0.396301	
-0.395996	
-0.396606	
-0.395874	
-0.394897	
-0.395447	
-0.394531	
-0.395508	
-0.39502	
-0.394836	
-0.394958	
-0.395386	
-0.39563	
-0.39563	
-0.395813	
-0.394714	
-0.395752	
-0.394409	
-0.396301	
-0.396118	
-0.395691	
-0.395203	
-0.396301	
-0.396423	
-0.395996	
-0.397156	
-0.39563	
-0.396301	
-0.395447	
-0.396423	
-0.395935	
-0.395569	
-0.395386	
-0.396179	
-0.396545	
-0.395691	
-0.396912	
-0.394714	
-0.395203	
-0.39502	
-0.39563	
-0.39563	
-0.393799	
-0.39447	
-0.395142	
-0.395203	
-0.39447	
-0.395508	
-0.394287	
-0.394226	
-0.394714	
-0.394653	
-0.393677	
-0.392761	
-0.392883	
-0.392456	
-0.392151	
-0.392029	
-0.391724	
-0.390991	
-0.389282	
-0.390259	
-0.388611	
-0.389282	
-0.388672	
-0.388733	
-0.388611	
-0.388977	
-0.389526	
-0.389099	
-0.389526	
-0.388367	
-0.389771	
-0.388123	
-0.388611	
-0.388062	
-0.388916	
-0.388184	
-0.38855	
-0.389099	
-0.388855	
-0.39032	
-0.389465	
-0.390381	
-0.38916	
-0.389832	
-0.389526	
-0.389343	
-0.388855	
-0.389832	
-0.390259	
-0.390198	
-0.391113	
-0.390564	
-0.390808	
-0.390564	
-0.39093	
-0.391479	
-0.391357	
-0.391296	
-0.391602	
-0.391846	
-0.392395	
-0.392395	
-0.392456	
-0.391357	
-0.392334	
-0.393005	
-0.392639	
-0.39325	
-0.393005	
-0.394043	
-0.394592	
-0.395142	
-0.395081	
-0.395569	
-0.394531	
-0.394775	
-0.393616	
-0.394714	
-0.393799	
-0.394592	
-0.394531	
-0.394348	
-0.395813	
-0.394958	
-0.395752	
-0.394531	
-0.39502	
-0.393921	
-0.394592	
-0.394531	
-0.395081	
-0.39502	
-0.395569	
-0.395935	
-0.395569	
-0.39679	
-0.395508	
-0.39624	
-0.395752	
-0.394836	
-0.394958	
-0.395386	
-0.394348	
-0.394653	
-0.395081	
-0.394592	
-0.394165	
-0.394775	
-0.394409	
-0.394104	
-0.394043	
-0.393494	
-0.393616	
-0.393188	
-0.393127	
-0.393677	
-0.393555	
-0.393311	
-0.393372	
-0.392029	
-0.393005	
-0.393188	
-0.392578	
-0.391113	
-0.392456	
-0.392212	
-0.392395	
-0.392883	
-0.392883	
-0.393555	
-0.392395	
-0.393433	
-0.392822	
-0.391968	
-0.392395	
-0.393005	
-0.393555	
-0.393677	
-0.39447	
-0.39386	
-0.394775	
-0.39447	
-0.394653	
-0.394226	
-0.393677	
-0.394165	
-0.394226	
-0.394165	
-0.393982	
-0.394348	
-0.394165	
-0.394714	
-0.39447	
-0.393738	
-0.393616	
-0.393555	
-0.393433	
-0.392456	
-0.391907	
-0.393005	
-0.392883	
-0.3927	
-0.392395	
-0.392395	
-0.390625	
-0.391846	
-0.390137	
-0.388733	
-0.389465	
-0.389099	
-0.389099	
-0.388489	
-0.389221	
-0.38855	
-0.389404	
-0.388489	
-0.389343	
-0.388855	
-0.388245	
-0.388977	
-0.388672	
-0.388611	
-0.389221	
-0.390076	
-0.389465	
-0.389832	
-0.390564	
-0.390503	
-0.389893	
-0.389832	
-0.390076	
-0.390686	
-0.389709	
-0.390808	
-0.39093	
-0.391052	
-0.391663	
-0.392029	
-0.392212	
-0.392151	
-0.392273	
-0.392639	
-0.393555	
-0.393066	
-0.394409	
-0.394592	
-0.395142	
-0.395691	
-0.396118	
-0.395386	
-0.39624	
-0.397583	
-0.395691	
-0.395874	
-0.397095	
-0.397522	
-0.397766	
-0.398438	
-0.398315	
-0.398865	
-0.398682	
-0.399048	
-0.399292	
-0.399048	
-0.39801	
-0.399353	
-0.399536	
-0.399048	
-0.399658	
-0.398865	
-0.398438	
-0.398621	
-0.39917	
-0.398621	
-0.396667	
-0.397217	
-0.397583	
-0.396179	
-0.396851	
-0.397583	
-0.397461	
-0.3974	
-0.39801	
-0.397705	
-0.396973	
-0.397095	
-0.395752	
-0.396545	
-0.395874	
-0.396729	
-0.39624	
-0.39679	
-0.396423	
-0.396912	
-0.395996	
-0.395874	
-0.396362	
-0.39502	
-0.396118	
-0.396179	
-0.396667	
-0.396606	
-0.3974	
-0.396729	
-0.396912	
-0.396973	
-0.396912	
-0.396179	
-0.395691	
-0.395264	
-0.39624	
-0.395813	
-0.396912	
-0.3974	
-0.39679	
-0.396729	
-0.396606	
-0.396301	
-0.394836	
-0.393799	
-0.393799	
-0.393921	
-0.393188	
-0.394165	
-0.394287	
-0.394104	
-0.394043	
-0.394653	
-0.393738	
-0.39386	
-0.394165	
-0.393494	
-0.394287	
-0.393616	
-0.394165	
-0.394531	
-0.39502	
-0.394836	
-0.394836	
-0.394043	
-0.394409	
-0.394836	
-0.392883	
-0.39386	
-0.394714	
-0.39447	
-0.394531	
-0.394836	
-0.394043	
-0.394287	
-0.394592	
-0.393616	
-0.393616	
-0.392456	
-0.391968	
-0.393616	
-0.392883	
-0.393433	
-0.393982	
-0.39386	
-0.393555	
-0.394531	
-0.394165	
-0.393555	
-0.394287	
-0.393799	
-0.394287	
-0.394226	
-0.394531	
-0.395325	
-0.394958	
-0.394836	
-0.395325	
-0.394226	
-0.394836	
-0.394897	
-0.394165	
-0.395142	
-0.394775	
-0.394409	
-0.394836	
-0.396179	
-0.395813	
-0.396057	
-0.396729	
-0.396545	
-0.396851	
-0.395935	
-0.396545	
-0.397644	
-0.3974	
-0.398682	
-0.399719	
-0.399109	
-0.398987	
-0.400635	
-0.400391	
-0.399597	
-0.400146	
-0.399536	
-0.399902	
-0.399475	
-0.399292	
-0.399841	
-0.399109	
-0.398865	
-0.399963	
-0.399231	
-0.399414	
-0.399048	
-0.398132	
-0.399048	
-0.399048	
-0.398254	
-0.398926	
-0.398804	
-0.398254	
-0.398865	
-0.397766	
-0.397766	
-0.398132	
-0.396484	
-0.398132	
-0.3974	
-0.396851	
-0.397827	
-0.397644	
-0.396606	
-0.39679	
-0.397888	
-0.396484	
-0.396484	
-0.39624	
-0.394897	
-0.395996	
-0.395874	
-0.395752	
-0.395996	
-0.395447	
-0.395264	
-0.396667	
-0.395935	
-0.394897	
-0.394714	
-0.394592	
-0.394409	
-0.394531	
-0.393005	
-0.394287	
-0.394653	
-0.393616	
-0.393982	
-0.393311	
-0.393372	
-0.39386	
-0.393188	
-0.393616	
-0.393982	
-0.393127	
-0.393921	
-0.394348	
-0.393433	
-0.39386	
-0.394287	
-0.393188	
-0.392944	
-0.391907	
-0.392456	
-0.392639	
-0.39209	
-0.391968	
-0.392517	
-0.3927	
-0.393005	
-0.394775	
-0.393555	
-0.392944	
-0.393005	
-0.3927	
-0.393311	
-0.39325	
-0.393555	
-0.394226	
-0.394287	
-0.393982	
-0.394958	
-0.394592	
-0.394165	
-0.394226	
-0.394226	
-0.394592	
-0.394226	
-0.394043	
-0.394897	
-0.395569	
-0.395325	
-0.395935	
-0.396057	
-0.395752	
-0.395508	
-0.394897	
-0.39563	
-0.395569	
-0.395569	
-0.395203	
-0.395569	
-0.394836	
-0.394958	
-0.39563	
-0.394531	
-0.39447	
-0.392944	
-0.39447	
-0.393738	
-0.393188	
-0.393555	
-0.393738	
-0.393555	
-0.393127	
-0.394409	
-0.391785	
-0.39325	
-0.392761	
-0.391663	
-0.392944	
-0.393433	
-0.392517	
-0.393188	
-0.394165	
-0.393188	
-0.394287	
-0.393921	
-0.393311	
-0.393188	
-0.394043	
-0.394409	
-0.394531	
-0.394348	
-0.395264	
-0.395996	
-0.396301	
-0.3974	
-0.397827	
-0.397156	
-0.397644	
-0.39563	
-0.397461	
-0.398254	
-0.397156	
-0.397766	
-0.398193	
-0.397705	
-0.3974	
-0.399109	
-0.395996	
-0.397034	
-0.396057	
-0.396057	
-0.39624	
-0.396484	
-0.395081	
-0.396118	
-0.39679	
-0.395691	
-0.396973	
-0.395691	
-0.395386	
-0.394714	
-0.395325	
-0.394897	
-0.394836	
-0.394165	
-0.395142	
-0.395142	
-0.394348	
-0.393921	
-0.394104	
-0.392273	
-0.391907	
-0.389893	
-0.391479	
-0.390808	
-0.390259	
-0.390625	
-0.390015	
-0.389709	
-0.389526	
-0.39093	
-0.387817	
-0.388428	
-0.387634	
-0.387329	
-0.38739	
-0.387268	
-0.386902	
-0.387329	
-0.387756	
-0.387085	
-0.388367	
-0.387268	
-0.386841	
-0.386841	
-0.386963	
-0.38739	
-0.38739	
-0.386292	
-0.388062	
-0.388855	
-0.388489	
-0.389038	
-0.389099	
-0.388184	
-0.388184	
-0.387878	
-0.388367	
-0.388428	
-0.388123	
-0.388672	
-0.389526	
-0.388611	
-0.388855	
-0.389954	
-0.388733	
-0.389038	
-0.387756	
-0.389648	
-0.389465	
-0.388916	
-0.388977	
-0.389221	
-0.389648	
-0.389465	
-0.391174	
-0.388794	
-0.390198	
-0.389771	
-0.388855	
-0.389893	
-0.389221	
-0.389709	
-0.388977	
-0.390015	
-0.389587	
-0.389954	
-0.389587	
-0.388733	
-0.38855	
-0.38855	
-0.389343	
-0.389526	
-0.389221	
-0.390747	
-0.390869	
-0.390625	
-0.391418	
-0.391724	
-0.390625	
-0.390869	
-0.389954	
-0.391235	
-0.390747	
-0.390259	
-0.391479	
-0.391235	
-0.391113	
-0.391296	
-0.392517	
-0.389648	
-0.390503	
-0.390381	
-0.390503	
-0.390442	
-0.390259	
-0.390076	
-0.390198	
-0.390991	
-0.390381	
-0.391541	
-0.390747	
-0.390564	
-0.390259	
-0.390076	
-0.390869	
-0.390808	
-0.390503	
-0.391235	
-0.391174	
-0.391052	
-0.391479	
-0.391663	
-0.39093	
-0.390869	
-0.389771	
-0.390991	
-0.390869	
-0.390259	
-0.391235	
-0.391052	
-0.391296	
-0.391113	
-0.391968	
-0.388977	
-0.390503	
-0.389832	
-0.390137	
-0.39032	
-0.390198	
-0.390137	
-0.39032	
-0.391174	
-0.390137	
-0.391296	
-0.389709	
-0.389893	
-0.38916	
-0.389038	
-0.389404	
-0.389038	
-0.388245	
-0.388794	
-0.388672	
-0.387756	
-0.388	
-0.387634	
-0.387085	
-0.385986	
-0.384338	
-0.386047	
-0.385437	
-0.385132	
-0.384888	
-0.384827	
-0.384888	
-0.385315	
-0.386963	
-0.383728	
-0.38501	
-0.384583	
-0.384949	
-0.384888	
-0.384583	
-0.385071	
-0.385315	
-0.386047	
-0.385376	
-0.387024	
-0.385315	
-0.386108	
-0.385742	
-0.38446	
-0.386414	
-0.385925	
-0.384888	
-0.385925	
-0.386658	
-0.386353	
-0.387024	
-0.387024	
-0.386597	
-0.386719	
-0.386047	
-0.387085	
-0.387146	
-0.387329	
-0.387756	
-0.388245	
-0.388123	
-0.388489	
-0.389954	
-0.386841	
-0.388123	
-0.388245	
-0.388245	
-0.388672	
-0.388733	
-0.389893	
-0.390137	
-0.390808	
-0.390259	
-0.391663	
-0.390076	
-0.390503	
-0.390564	
-0.389038	
-0.390503	
-0.390869	
-0.390442	
-0.390076	
-0.390869	
-0.390198	
-0.390625	
-0.390686	
-0.390381	
-0.389771	
-0.388733	
-0.39032	
-0.390259	
-0.390015	
-0.390808	
-0.390808	
-0.390808	
-0.391174	
-0.392334	
-0.390747	
-0.391174	
-0.390381	
-0.390625	
-0.390381	
-0.389771	
-0.390503	
-0.390259	
-0.39032	
-0.390015	
-0.391235	
-0.389099	
-0.390015	
-0.390015	
-0.388184	
-0.38916	
-0.38916	
-0.389221	
-0.388672	
-0.389526	
-0.389038	
-0.389648	
-0.389343	
-0.388184	
-0.388123	
-0.387085	
-0.387756	
-0.387817	
-0.387756	
-0.388062	
-0.388245	
-0.387878	
-0.388306	
-0.389526	
-0.388489	
-0.388245	
-0.387268	
-0.388794	
-0.388306	
-0.387817	
-0.388672	
-0.389282	
-0.389587	
-0.390137	
-0.390625	
-0.388489	
-0.390137	
-0.390747	
-0.389099	
-0.390381	
-0.389771	
-0.389893	
-0.390076	
-0.390991	
-0.389832	
-0.39093	
-0.390503	
-0.389526	
-0.389832	
-0.388611	
-0.389526	
-0.389038	
-0.389099	
-0.388977	
-0.389282	
-0.388367	
-0.388794	
-0.389587	
-0.388123	
-0.387451	
-0.385864	
-0.385803	
-0.385864	
-0.384583	
-0.385193	
-0.385254	
-0.385559	
-0.38562	
-0.385803	
-0.384155	
-0.384766	
-0.384521	
-0.383911	
-0.385498	
-0.385315	
-0.385498	
-0.385681	
-0.386658	
-0.385803	
-0.386841	
-0.386902	
-0.386475	
-0.386902	
-0.38562	
-0.386719	
-0.386841	
-0.386292	
-0.387695	
-0.388489	
-0.387939	
-0.388855	
-0.389404	
-0.388611	
-0.388489	
-0.389465	
-0.389709	
-0.389832	
-0.389893	
-0.390869	
-0.391296	
-0.391541	
-0.392334	
-0.392456	
-0.391724	
-0.392639	
-0.393005	
-0.391174	
-0.393127	
-0.393311	
-0.393982	
-0.393982	
-0.394958	
-0.39447	
-0.395081	
-0.396545	
-0.395264	
-0.394531	
-0.395691	
-0.395813	
-0.39563	
-0.394531	
-0.395569	
-0.395691	
-0.395203	
-0.395264	
-0.395325	
-0.394836	
-0.393494	
-0.394836	
-0.394165	
-0.393616	
-0.393005	
-0.39325	
-0.39386	
-0.393799	
-0.394531	
-0.393677	
-0.393066	
-0.393555	
-0.39325	
-0.391357	
-0.392944	
-0.393127	
-0.392822	
-0.393555	
-0.393738	
-0.393433	
-0.393066	
-0.393921	
-0.392822	
-0.391785	
-0.392334	
-0.392761	
-0.393372	
-0.392395	
-0.393188	
-0.393799	
-0.393311	
-0.39386	
-0.394287	
-0.392822	
-0.392212	
-0.392944	
-0.392944	
-0.392822	
-0.393311	
-0.393433	
-0.393799	
-0.39325	
-0.393677	
-0.392151	
-0.391418	
-0.391663	
-0.391113	
-0.389954	
-0.390198	
-0.390747	
-0.389587	
-0.390991	
-0.391235	
-0.390442	
-0.390625	
-0.390991	
-0.39032	
-0.390991	
-0.390259	
-0.390625	
-0.390747	
-0.390625	
-0.391235	
-0.391968	
-0.391357	
-0.391418	
-0.391968	
-0.391296	
-0.390259	
-0.391357	
-0.39093	
-0.391418	
-0.390991	
-0.391235	
-0.39209	
-0.391052	
-0.391479	
-0.391174	
-0.390442	
-0.390503	
-0.391113	
-0.389771	
-0.39093	
-0.390625	
-0.389709	
-0.391235	
-0.390808	
-0.391174	
-0.390686	
-0.391357	
-0.390381	
-0.390991	
-0.391174	
-0.391418	
-0.391541	
-0.391663	
-0.391785	
-0.392212	
-0.392151	
-0.392212	
-0.392395	
-0.392273	
-0.391052	
-0.392029	
-0.391846	
-0.392212	
-0.391846	
-0.392273	
-0.393494	
-0.393005	
-0.393494	
-0.39386	
-0.394287	
-0.393738	
-0.394287	
-0.394043	
-0.395386	
-0.395142	
-0.394958	
-0.396118	
-0.395935	
-0.396973	
-0.396484	
-0.397217	
-0.396912	
-0.396545	
-0.39624	
-0.396606	
-0.396667	
-0.396423	
-0.396606	
-0.396545	
-0.396667	
-0.39624	
-0.396423	
-0.39624	
-0.394958	
-0.395447	
-0.395996	
-0.395935	
-0.395691	
-0.394836	
-0.396729	
-0.395935	
-0.395874	
-0.396484	
-0.395264	
-0.394714	
-0.395142	
-0.394409	
-0.394653	
-0.394897	
-0.394409	
-0.394348	
-0.394226	
-0.394409	
-0.393677	
-0.393738	
-0.393494	
-0.393616	
-0.392517	
-0.393677	
-0.393311	
-0.392944	
-0.392944	
-0.393311	
-0.393127	
-0.393433	
-0.393433	
-0.392029	
-0.391846	
-0.391907	
-0.391785	
-0.390808	
-0.391724	
-0.390381	
-0.39209	
-0.391357	
-0.390869	
-0.391479	
-0.391052	
-0.390381	
-0.391479	
-0.392151	
-0.391357	
-0.391418	
-0.391296	
-0.391418	
-0.391418	
-0.392151	
-0.391602	
-0.389893	
-0.390259	
-0.390625	
-0.388733	
-0.390869	
-0.39032	
-0.39032	
-0.389954	
-0.391663	
-0.39093	
-0.39093	
-0.391541	
-0.391052	
-0.390747	
-0.390381	
-0.391846	
-0.390991	
-0.391479	
-0.391479	
-0.392212	
-0.391907	
-0.391846	
-0.393005	
-0.391968	
-0.391052	
-0.391602	
-0.392395	
-0.392334	
-0.392456	
-0.392273	
-0.392578	
-0.393066	
-0.39386	
-0.393616	
-0.392212	
-0.392822	
-0.393188	
-0.392029	
-0.393555	
-0.392883	
-0.393188	
-0.391968	
-0.393311	
-0.392761	
-0.392822	
-0.392761	
-0.391479	
-0.391541	
-0.39032	
-0.391479	
-0.390564	
-0.390747	
-0.390869	
-0.391113	
-0.390747	
-0.390991	
-0.391907	
-0.390686	
-0.389465	
-0.390015	
-0.391235	
-0.390991	
-0.390625	
-0.390442	
-0.391418	
-0.391296	
-0.392456	
-0.391846	
-0.390259	
-0.391052	
-0.391235	
-0.391541	
-0.392151	
-0.392212	
-0.393188	
-0.393127	
-0.395142	
-0.394958	
-0.394897	
	
