E:\DOCUMENTS AND SETTINGS\JPOTAS\MEUS DOCUMENTOS\UFRJ\RSCI-BM 12 WK SERIES\070719-RSCI-BM-02\RSCI-BM-02-LEMG\070719-RSCI-BM-02-LEMG-0014.ACQ
0.025000 msec/sample
1 channel
Analog input
Volts
CH1	
2000	
-0.395386	
-0.395264	
-0.395264	
-0.39563	
-0.395142	
-0.395569	
-0.396484	
-0.395691	
-0.396606	
-0.395752	
-0.396057	
-0.395996	
-0.395752	
-0.396301	
-0.395508	
-0.395996	
-0.39679	
-0.3974	
-0.39679	
-0.397339	
-0.39679	
-0.396729	
-0.397217	
-0.395813	
-0.397583	
-0.396912	
-0.397583	
-0.398621	
-0.399414	
-0.398621	
-0.399231	
-0.398438	
-0.398926	
-0.398987	
-0.397156	
-0.398987	
-0.397705	
-0.397949	
-0.398926	
-0.399475	
-0.39856	
-0.399048	
-0.398682	
-0.398376	
-0.398499	
-0.3974	
-0.397583	
-0.396484	
-0.396973	
-0.397217	
-0.398071	
-0.396362	
-0.396362	
-0.396484	
-0.396118	
-0.39563	
-0.394653	
-0.394836	
-0.393799	
-0.394714	
-0.394836	
-0.395874	
-0.394714	
-0.394653	
-0.394836	
-0.394165	
-0.394409	
-0.393982	
-0.394104	
-0.3927	
-0.393799	
-0.393982	
-0.394836	
-0.393921	
-0.394165	
-0.394775	
-0.394226	
-0.394165	
-0.393066	
-0.39386	
-0.393311	
-0.39386	
-0.394226	
-0.394897	
-0.394348	
-0.394409	
-0.395386	
-0.394287	
-0.394775	
-0.394714	
-0.394592	
-0.394348	
-0.395081	
-0.395752	
-0.397217	
-0.396606	
-0.396423	
-0.397522	
-0.397217	
-0.397644	
-0.397217	
-0.397156	
-0.396118	
-0.397766	
-0.397217	
-0.398926	
-0.398376	
-0.398193	
-0.399231	
-0.398621	
-0.398254	
-0.397644	
-0.398132	
-0.3974	
-0.39801	
-0.39679	
-0.398743	
-0.397888	
-0.397644	
-0.397827	
-0.397217	
-0.39679	
-0.395996	
-0.395264	
-0.395081	
-0.396606	
-0.395203	
-0.396851	
-0.39624	
-0.396606	
-0.39679	
-0.39679	
-0.3974	
-0.396851	
-0.397583	
-0.396667	
-0.397705	
-0.397583	
-0.398743	
-0.397949	
-0.397949	
-0.398499	
-0.398865	
-0.399109	
-0.398621	
-0.399353	
-0.398376	
-0.399231	
-0.399048	
-0.399902	
-0.398926	
-0.399353	
-0.399475	
-0.399231	
-0.400085	
-0.398682	
-0.399292	
-0.398438	
-0.398804	
-0.398376	
-0.399597	
-0.398865	
-0.398804	
-0.398315	
-0.398621	
-0.398987	
-0.397461	
-0.397583	
-0.397095	
-0.396973	
-0.396484	
-0.397339	
-0.396545	
-0.396423	
-0.39624	
-0.396667	
-0.397644	
-0.396423	
-0.39563	
-0.396484	
-0.396912	
-0.396545	
-0.397278	
-0.39679	
-0.396851	
-0.396667	
-0.397095	
-0.397034	
-0.396118	
-0.394836	
-0.395691	
-0.396057	
-0.395691	
-0.395874	
-0.395508	
-0.395813	
-0.395691	
-0.386353	
-0.384216	
-0.383606	
-0.383667	
-0.384155	
-0.384033	
-0.395325	
-0.396851	
-0.395935	
-0.396057	
-0.395508	
-0.396118	
-0.397461	
-0.396851	
-0.396545	
-0.397339	
-0.397949	
-0.398071	
-0.398804	
-0.398804	
-0.398804	
-0.398987	
-0.399658	
-0.399963	
-0.398621	
-0.398621	
-0.398743	
-0.399048	
-0.399536	
-0.399292	
-0.399414	
-0.398926	
-0.398987	
-0.39978	
-0.399841	
-0.398438	
-0.398315	
-0.398438	
-0.398193	
-0.397583	
-0.397156	
-0.397583	
-0.396851	
-0.397339	
-0.397949	
-0.396545	
-0.395935	
-0.394714	
-0.394836	
-0.393738	
-0.392517	
-0.391174	
-0.390869	
-0.389709	
-0.388489	
-0.387024	
-0.38623	
-0.384705	
-0.382629	
-0.382813	
-0.382751	
-0.383362	
-0.38385	
-0.386902	
-0.389099	
-0.392334	
-0.395264	
-0.39917	
-0.401611	
-0.404114	
-0.410217	
-0.415039	
-0.420288	
-0.425964	
-0.432617	
-0.439026	
-0.445862	
-0.45105	
-0.456848	
-0.461975	
-0.468018	
-0.471924	
-0.475769	
-0.478394	
-0.481262	
-0.481995	
-0.482361	
-0.482605	
-0.482056	
-0.481201	
-0.480896	
-0.481384	
-0.481079	
-0.481079	
-0.480774	
-0.483459	
-0.48407	
-0.485779	
-0.488525	
-0.490784	
-0.492188	
-0.493835	
-0.496521	
-0.499817	
-0.50293	
-0.50592	
-0.510132	
-0.511963	
-0.514343	
-0.517212	
-0.518127	
-0.517334	
-0.515381	
-0.514099	
-0.512451	
-0.509521	
-0.506226	
-0.502869	
-0.497314	
-0.492859	
-0.479309	
-0.469788	
-0.465454	
-0.459473	
-0.4552	
-0.451355	
-0.45813	
-0.456299	
-0.45343	
-0.449829	
-0.447632	
-0.445923	
-0.442566	
-0.440369	
-0.43689	
-0.435669	
-0.4328	
-0.430542	
-0.42749	
-0.424072	
-0.419189	
-0.415161	
-0.410278	
-0.404236	
-0.398499	
-0.391113	
-0.386353	
-0.378845	
-0.371338	
-0.362976	
-0.356689	
-0.347412	
-0.33905	
-0.33136	
-0.322021	
-0.312683	
-0.304199	
-0.296387	
-0.288818	
-0.281799	
-0.274597	
-0.268982	
-0.262817	
-0.258972	
-0.256042	
-0.252197	
-0.251404	
-0.250732	
-0.252075	
-0.253357	
-0.255188	
-0.257996	
-0.260559	
-0.263611	
-0.26709	
-0.270996	
-0.274414	
-0.27832	
-0.282715	
-0.287415	
-0.292419	
-0.297485	
-0.304565	
-0.309937	
-0.316711	
-0.324707	
-0.331543	
-0.338501	
-0.346008	
-0.353394	
-0.36084	
-0.367981	
-0.375488	
-0.382202	
-0.389648	
-0.397766	
-0.405029	
-0.411133	
-0.417419	
-0.424011	
-0.431396	
-0.437195	
-0.442078	
-0.447021	
-0.450195	
-0.453308	
-0.455017	
-0.456909	
-0.458374	
-0.459717	
-0.461121	
-0.462219	
-0.463318	
-0.466553	
-0.468445	
-0.470154	
-0.472229	
-0.474976	
-0.477417	
-0.479858	
-0.482971	
-0.487854	
-0.491333	
-0.493713	
-0.496521	
-0.496826	
-0.497864	
-0.49707	
-0.495056	
-0.491577	
-0.487915	
-0.483582	
-0.479126	
-0.474182	
-0.469177	
-0.464294	
-0.458679	
-0.454468	
-0.44873	
-0.444763	
-0.44104	
-0.438232	
-0.43573	
-0.433716	
-0.431824	
-0.42981	
-0.427856	
-0.425293	
-0.424011	
-0.420837	
-0.417664	
-0.413879	
-0.411011	
-0.407776	
-0.404297	
-0.39978	
-0.395874	
-0.390686	
-0.385864	
-0.38031	
-0.374084	
-0.367126	
-0.359497	
-0.35321	
-0.346741	
-0.339539	
-0.332947	
-0.326233	
-0.319763	
-0.313904	
-0.309326	
-0.303467	
-0.298035	
-0.29303	
-0.289124	
-0.28656	
-0.284058	
-0.281433	
-0.280151	
-0.279541	
-0.280334	
-0.280334	
-0.281982	
-0.283386	
-0.284668	
-0.287537	
-0.290894	
-0.293335	
-0.29541	
-0.300354	
-0.302917	
-0.307373	
-0.311035	
-0.313599	
-0.31665	
-0.319763	
-0.323792	
-0.327271	
-0.330505	
-0.334473	
-0.336853	
-0.340149	
-0.343323	
-0.345886	
-0.348083	
-0.35022	
-0.3526	
-0.35498	
-0.356812	
-0.35907	
-0.362	
-0.363403	
-0.366455	
-0.367676	
-0.368896	
-0.370178	
-0.372375	
-0.374329	
-0.375854	
-0.377319	
-0.378174	
-0.380005	
-0.381409	
-0.382935	
-0.385071	
-0.384827	
-0.385376	
-0.385132	
-0.386841	
-0.387512	
-0.387512	
-0.388733	
-0.388489	
-0.389893	
-0.389526	
-0.390076	
-0.389832	
-0.390503	
-0.389526	
-0.391785	
-0.391968	
-0.391785	
-0.392944	
-0.392151	
-0.391968	
-0.39032	
-0.389587	
-0.387878	
-0.388184	
-0.388123	
-0.387024	
-0.386475	
-0.385742	
-0.385681	
-0.385193	
-0.384705	
-0.384155	
-0.384521	
-0.383484	
-0.383545	
-0.384033	
-0.383728	
-0.383362	
-0.382568	
-0.383423	
-0.383911	
-0.382996	
-0.384644	
-0.383118	
-0.383118	
-0.383606	
-0.384155	
-0.383972	
-0.38446	
-0.383789	
-0.384155	
-0.385254	
-0.384827	
-0.386658	
-0.384766	
-0.385193	
-0.384399	
-0.385498	
-0.38501	
-0.385132	
-0.386169	
-0.386108	
-0.387207	
-0.386658	
-0.387329	
-0.386536	
-0.386963	
-0.386719	
-0.387451	
-0.387695	
-0.387817	
-0.388916	
-0.388672	
-0.389221	
-0.389465	
-0.389832	
-0.388794	
-0.389832	
-0.390076	
-0.39032	
-0.390259	
-0.391174	
-0.390991	
-0.391174	
-0.391479	
-0.391418	
-0.391174	
-0.391357	
-0.392029	
-0.390869	
-0.391479	
-0.390686	
-0.391541	
-0.391418	
-0.392212	
-0.391479	
-0.391357	
-0.390076	
-0.390686	
-0.391235	
-0.391296	
-0.390747	
-0.391968	
-0.391052	
-0.391541	
-0.391602	
-0.389954	
-0.389954	
-0.389771	
-0.390259	
-0.390442	
-0.390259	
-0.390137	
-0.390503	
-0.390076	
-0.390564	
-0.389343	
-0.389282	
-0.387756	
-0.388611	
-0.388855	
-0.388855	
-0.388245	
-0.389587	
-0.389221	
-0.389526	
-0.39032	
-0.389038	
-0.389404	
-0.38916	
-0.389465	
-0.389709	
-0.389465	
-0.388733	
-0.390442	
-0.389343	
-0.390076	
-0.389893	
-0.38916	
-0.389221	
-0.388611	
-0.389404	
-0.389587	
-0.389893	
-0.390198	
-0.390747	
-0.390015	
-0.390381	
-0.391418	
-0.390442	
-0.390747	
-0.390076	
-0.390686	
-0.390808	
-0.390686	
-0.391357	
-0.391541	
-0.391541	
-0.392517	
-0.392578	
-0.391968	
-0.391785	
-0.391724	
-0.392639	
-0.392578	
-0.392334	
-0.392944	
-0.392883	
-0.392944	
-0.393738	
-0.393555	
-0.393677	
-0.393738	
-0.392822	
-0.394104	
-0.394104	
-0.394287	
-0.394409	
-0.394348	
-0.394043	
-0.394836	
-0.394043	
-0.394348	
-0.394104	
-0.392456	
-0.393921	
-0.393799	
-0.394043	
-0.393921	
-0.394531	
-0.393982	
-0.394043	
-0.3927	
-0.393372	
-0.392151	
-0.390991	
-0.391968	
-0.391602	
-0.391663	
-0.391418	
-0.391296	
-0.391174	
-0.391602	
-0.390198	
-0.390381	
-0.390015	
-0.391113	
-0.390259	
-0.390137	
-0.389343	
-0.391479	
-0.390198	
-0.390137	
-0.392029	
-0.390015	
-0.389954	
-0.388733	
-0.389465	
-0.389648	
-0.389648	
-0.389832	
-0.389709	
-0.39032	
-0.390747	
-0.389954	
-0.389832	
-0.390198	
-0.390503	
-0.390198	
-0.390198	
-0.390137	
-0.391113	
-0.390686	
-0.390991	
-0.392578	
-0.391663	
-0.391724	
-0.391296	
-0.393127	
-0.392761	
-0.392822	
-0.392822	
-0.394165	
-0.393616	
-0.394104	
-0.395752	
-0.394287	
-0.394287	
-0.393127	
-0.395691	
-0.394775	
-0.394592	
-0.394165	
-0.395386	
-0.395508	
-0.395813	
-0.395203	
-0.394592	
-0.394775	
-0.394714	
-0.395081	
-0.394531	
-0.394226	
-0.393127	
-0.393738	
-0.393616	
-0.393921	
-0.393982	
-0.393127	
-0.392456	
-0.392273	
-0.393188	
-0.392761	
-0.392883	
-0.392334	
-0.393311	
-0.393738	
-0.394836	
-0.394592	
-0.393982	
-0.393555	
-0.393982	
-0.394592	
-0.39447	
-0.394836	
-0.394531	
-0.394897	
-0.394897	
-0.395752	
-0.395569	
-0.394836	
-0.394348	
-0.394165	
-0.395081	
-0.395569	
-0.395081	
-0.394592	
-0.394836	
-0.395142	
-0.395386	
-0.395935	
-0.394836	
-0.393616	
-0.394226	
-0.394409	
-0.394226	
-0.393738	
-0.394043	
-0.394348	
-0.394043	
-0.394104	
-0.394287	
-0.392761	
-0.391541	
-0.391602	
-0.392761	
-0.392761	
-0.391846	
-0.39209	
-0.392151	
-0.392395	
-0.392944	
-0.393494	
-0.392334	
-0.391479	
-0.392029	
-0.393188	
-0.392578	
-0.392639	
-0.392151	
-0.392334	
-0.392334	
-0.392517	
-0.392395	
-0.391907	
-0.390564	
-0.390564	
-0.391357	
-0.391174	
-0.391296	
-0.390869	
-0.39093	
-0.390869	
-0.391602	
-0.390259	
-0.390198	
-0.388855	
-0.388855	
-0.389709	
-0.389771	
-0.389709	
-0.391235	
-0.390747	
-0.39093	
-0.392273	
-0.392273	
-0.392578	
-0.391785	
-0.392212	
-0.392883	
-0.393127	
-0.393005	
-0.393616	
-0.393494	
-0.393921	
-0.393982	
-0.393616	
-0.39386	
-0.392334	
-0.393677	
-0.394226	
-0.394531	
-0.394165	
-0.394043	
-0.39386	
-0.393616	
-0.393677	
-0.393188	
-0.3927	
-0.390869	
-0.3927	
-0.392151	
-0.39209	
-0.391541	
-0.391846	
-0.391174	
-0.391357	
-0.392212	
-0.391357	
-0.391113	
-0.389771	
-0.390747	
-0.390625	
-0.390564	
-0.390381	
-0.389954	
-0.389893	
-0.390015	
-0.390442	
-0.389465	
-0.38855	
-0.387878	
-0.388489	
-0.388611	
-0.387756	
-0.38739	
-0.387939	
-0.387634	
-0.387695	
-0.387207	
-0.386719	
-0.386353	
-0.38562	
-0.386536	
-0.386597	
-0.386658	
-0.386047	
-0.385498	
-0.38623	
-0.386414	
-0.385986	
-0.385925	
-0.385559	
-0.385925	
-0.385864	
-0.385803	
-0.386108	
-0.386169	
-0.38623	
-0.385864	
-0.386475	
-0.386047	
-0.385681	
-0.38562	
-0.385315	
-0.38623	
-0.386047	
-0.386047	
-0.386475	
-0.386047	
-0.385986	
-0.386597	
-0.386353	
-0.385864	
-0.386108	
-0.385986	
-0.386536	
-0.387024	
-0.387207	
-0.386902	
-0.387817	
-0.387451	
-0.388367	
-0.388	
-0.388123	
-0.387634	
-0.387329	
-0.388	
-0.387817	
-0.387756	
-0.386841	
-0.387695	
-0.387451	
-0.387207	
-0.387573	
-0.387451	
-0.387024	
-0.386963	
-0.387695	
-0.387634	
-0.388	
-0.38739	
-0.387573	
-0.387878	
-0.388306	
-0.388245	
-0.387451	
-0.387024	
-0.387207	
-0.387817	
-0.386841	
-0.386902	
-0.386536	
-0.38678	
-0.386963	
-0.386841	
-0.386719	
-0.386414	
-0.385742	
-0.386169	
-0.386353	
-0.385803	
-0.385864	
-0.385315	
-0.385803	
-0.385071	
-0.385559	
-0.385803	
-0.385254	
-0.384216	
-0.385071	
-0.384949	
-0.384644	
-0.384644	
-0.384277	
-0.383972	
-0.384521	
-0.383911	
-0.384338	
-0.383484	
-0.383057	
-0.383789	
-0.383667	
-0.383606	
-0.383301	
-0.383362	
-0.383301	
-0.38385	
-0.383179	
-0.385132	
-0.383362	
-0.382568	
-0.383667	
-0.383911	
-0.383972	
-0.384155	
-0.385376	
-0.385193	
-0.385254	
-0.385071	
-0.38678	
-0.385864	
-0.385559	
-0.386719	
-0.386658	
-0.386963	
-0.386902	
-0.387268	
-0.386658	
-0.386719	
-0.386536	
-0.387634	
-0.386902	
-0.385803	
-0.387512	
-0.387085	
-0.387268	
-0.387207	
-0.387939	
-0.387451	
-0.387573	
-0.387024	
-0.387939	
-0.387085	
-0.385864	
-0.38739	
-0.387146	
-0.387268	
-0.387268	
-0.388	
-0.387756	
-0.387878	
-0.387695	
-0.388367	
-0.387573	
-0.386658	
-0.387268	
-0.386597	
-0.386597	
-0.386536	
-0.386169	
-0.385498	
-0.385376	
-0.38562	
-0.385742	
-0.384399	
-0.382935	
-0.38446	
-0.383911	
-0.383423	
-0.383606	
-0.383545	
-0.383362	
-0.383606	
-0.384705	
-0.384216	
-0.38324	
-0.381409	
-0.384094	
-0.383606	
-0.383789	
-0.383301	
-0.383545	
-0.383545	
-0.383911	
-0.38501	
-0.384766	
-0.384705	
-0.38324	
-0.38562	
-0.385071	
-0.384949	
-0.384888	
-0.38501	
-0.385193	
-0.385254	
-0.385681	
-0.385315	
-0.384277	
-0.382629	
-0.384766	
-0.383911	
-0.383728	
-0.382874	
-0.383057	
-0.382874	
-0.383057	
-0.382935	
-0.383606	
-0.382446	
-0.381653	
-0.382507	
-0.382141	
-0.381836	
-0.380981	
-0.382202	
-0.381958	
-0.382141	
-0.382019	
-0.38269	
-0.381409	
-0.380798	
-0.38208	
-0.38147	
-0.381836	
-0.381042	
-0.38208	
-0.382202	
-0.382568	
-0.382751	
-0.383301	
-0.382874	
-0.382446	
-0.382996	
-0.383789	
-0.383606	
-0.384216	
-0.38446	
-0.384705	
-0.385315	
-0.384399	
-0.385681	
-0.384216	
-0.383606	
-0.383911	
-0.384521	
-0.383911	
-0.383728	
-0.384155	
-0.384033	
-0.384705	
-0.384399	
-0.385071	
-0.383911	
-0.383301	
-0.384277	
-0.38446	
-0.384705	
-0.384521	
-0.38501	
-0.384949	
-0.386047	
-0.384766	
-0.385864	
-0.38501	
-0.384216	
-0.385437	
-0.385864	
-0.385864	
-0.385132	
-0.38623	
-0.385925	
-0.386536	
-0.385132	
-0.386841	
-0.38562	
-0.384888	
-0.385071	
-0.384155	
-0.383972	
-0.383118	
-0.383423	
-0.383057	
-0.383545	
-0.381958	
-0.38324	
-0.381958	
-0.382141	
-0.381592	
-0.381531	
-0.381531	
-0.38147	
-0.382324	
-0.38208	
-0.382629	
-0.381165	
-0.383118	
-0.381897	
-0.382263	
-0.381592	
-0.382996	
-0.382629	
-0.382324	
-0.383545	
-0.383972	
-0.385315	
-0.38385	
-0.384705	
-0.383972	
-0.38385	
-0.382996	
-0.384094	
-0.384338	
-0.384338	
-0.385193	
-0.385376	
-0.387024	
-0.385132	
-0.385742	
-0.385254	
-0.385925	
-0.385132	
-0.386353	
-0.386414	
-0.38678	
-0.387268	
-0.387207	
-0.389099	
-0.387146	
-0.387573	
-0.386902	
-0.388123	
-0.387573	
-0.388611	
-0.388428	
-0.388733	
-0.389099	
-0.38916	
-0.390564	
-0.389099	
-0.38916	
-0.388184	
-0.389343	
-0.388733	
-0.388855	
-0.389282	
-0.389404	
-0.389648	
-0.389526	
-0.389832	
-0.388	
-0.38916	
-0.388	
-0.388916	
-0.388428	
-0.389038	
-0.389038	
-0.389221	
-0.389771	
-0.38916	
-0.38916	
-0.388184	
-0.388977	
-0.388428	
-0.389221	
-0.387756	
-0.38855	
-0.38855	
-0.388733	
-0.389099	
-0.388489	
-0.388855	
-0.386902	
-0.386963	
-0.386963	
-0.387573	
-0.386292	
-0.38623	
-0.386536	
-0.386841	
-0.387268	
-0.387146	
-0.387268	
-0.386108	
-0.386963	
-0.386902	
-0.387634	
-0.386475	
-0.386841	
-0.386902	
-0.387268	
-0.386902	
-0.386597	
-0.387329	
-0.385925	
-0.386475	
-0.386108	
-0.386841	
-0.385681	
-0.386719	
-0.386841	
-0.387024	
-0.387024	
-0.387695	
-0.388062	
-0.38678	
-0.38739	
-0.387268	
-0.388	
-0.386841	
-0.387756	
-0.387695	
-0.387817	
-0.387939	
-0.388367	
-0.388733	
-0.388	
-0.38855	
-0.387939	
-0.389038	
-0.387939	
-0.388367	
-0.38855	
-0.389526	
-0.389221	
-0.390076	
-0.390503	
-0.390381	
-0.390442	
-0.389771	
-0.390564	
-0.39032	
-0.390625	
-0.390442	
-0.391541	
-0.390869	
-0.390503	
-0.391541	
-0.391052	
-0.390381	
-0.390198	
-0.391113	
-0.389893	
-0.390442	
-0.389893	
-0.390869	
-0.390076	
-0.390442	
-0.391174	
-0.389954	
-0.389587	
-0.389099	
-0.389099	
-0.387146	
-0.387878	
-0.387573	
-0.387817	
-0.387024	
-0.388123	
-0.387512	
-0.387207	
-0.38739	
-0.386902	
-0.387268	
-0.385925	
-0.386658	
-0.38623	
-0.386963	
-0.386597	
-0.387146	
-0.386169	
-0.38623	
-0.386108	
-0.385681	
-0.386292	
-0.385254	
-0.386597	
-0.386108	
-0.386536	
-0.386169	
-0.387146	
-0.385864	
-0.386108	
-0.386047	
-0.38623	
-0.386169	
-0.385376	
-0.386353	
-0.386719	
-0.38678	
-0.386841	
-0.387512	
-0.387756	
-0.387024	
-0.387024	
-0.387634	
-0.388672	
-0.387878	
-0.388794	
-0.389343	
-0.389404	
-0.389648	
-0.389526	
-0.390625	
-0.389587	
-0.389893	
-0.389771	
-0.390442	
-0.389587	
-0.390442	
-0.390564	
-0.390015	
-0.390503	
-0.39032	
-0.390747	
-0.389465	
-0.391174	
-0.389893	
-0.389587	
-0.388489	
-0.388855	
-0.389221	
-0.387939	
-0.388306	
-0.388062	
-0.388733	
-0.387512	
-0.388611	
-0.387817	
-0.389099	
-0.388	
-0.388611	
-0.389343	
-0.388611	
-0.389038	
-0.38916	
-0.390015	
-0.389465	
-0.390625	
-0.390015	
-0.390503	
-0.389648	
-0.390503	
-0.391113	
-0.389709	
-0.391052	
-0.390381	
-0.391724	
-0.390991	
-0.390991	
-0.390808	
-0.391296	
-0.390808	
-0.391235	
-0.391785	
-0.390869	
-0.391602	
-0.390747	
-0.391663	
-0.391174	
-0.39093	
-0.390442	
-0.390442	
-0.390076	
-0.390076	
-0.39093	
-0.389648	
-0.389893	
-0.388916	
-0.389771	
-0.388855	
-0.389099	
-0.388672	
-0.388611	
-0.387817	
-0.388489	
-0.388794	
-0.388306	
-0.388733	
-0.387939	
-0.388977	
-0.38855	
-0.389221	
-0.388245	
-0.38916	
-0.388123	
-0.388489	
-0.388611	
-0.388123	
-0.388123	
-0.38739	
-0.388611	
-0.387878	
-0.388489	
-0.38739	
-0.387756	
-0.38678	
-0.387878	
-0.387878	
-0.387085	
-0.387146	
-0.386536	
-0.388123	
-0.387085	
-0.387512	
-0.38678	
-0.386963	
-0.386658	
-0.387207	
-0.388306	
-0.388367	
-0.389038	
-0.388367	
-0.39032	
-0.389954	
-0.391174	
-0.389832	
-0.39093	
-0.390625	
-0.391113	
-0.390991	
-0.391418	
-0.391541	
-0.390198	
-0.391785	
-0.391418	
-0.39209	
-0.390747	
-0.391602	
-0.390991	
-0.391296	
-0.390869	
-0.390686	
-0.390808	
-0.390015	
-0.390869	
-0.389648	
-0.389954	
-0.388794	
-0.389771	
-0.388855	
-0.389099	
-0.388794	
-0.388916	
-0.388977	
-0.388306	
-0.388245	
-0.387878	
-0.389038	
-0.387146	
-0.388489	
-0.387695	
-0.387573	
-0.387268	
-0.387085	
-0.386414	
-0.385925	
-0.386597	
-0.385986	
-0.386169	
-0.384705	
-0.386292	
-0.384888	
-0.385254	
-0.384338	
-0.38446	
-0.38446	
-0.383911	
-0.384277	
-0.383911	
-0.384644	
-0.382996	
-0.384766	
-0.383972	
-0.384277	
-0.383179	
-0.384094	
-0.384277	
-0.383606	
-0.383606	
-0.383606	
-0.38446	
-0.383057	
-0.384338	
-0.383362	
-0.384155	
-0.383179	
-0.383728	
-0.384033	
-0.383606	
-0.38385	
-0.383911	
-0.384766	
-0.383972	
-0.384216	
-0.383606	
-0.384766	
-0.383301	
-0.384094	
-0.384338	
-0.384521	
-0.384521	
-0.384277	
-0.385254	
-0.385132	
-0.385498	
-0.385437	
-0.385925	
-0.384766	
-0.386475	
-0.385742	
-0.386169	
-0.385803	
-0.385864	
-0.386536	
-0.385681	
-0.386414	
-0.385132	
-0.385498	
-0.384888	
-0.385498	
-0.385071	
-0.38562	
-0.38501	
-0.385498	
-0.386108	
-0.385742	
-0.386475	
-0.385925	
-0.386292	
-0.385437	
-0.385681	
-0.386108	
-0.386414	
-0.385498	
-0.385071	
-0.385437	
-0.385254	
-0.386047	
-0.384888	
-0.384705	
-0.384277	
-0.38501	
-0.385254	
-0.384766	
-0.384644	
-0.384094	
-0.384155	
-0.384583	
-0.384766	
-0.383545	
-0.384521	
-0.383301	
-0.383606	
-0.384155	
-0.383667	
-0.383911	
-0.383301	
-0.383606	
-0.383362	
-0.383545	
-0.382202	
-0.383179	
-0.381897	
-0.38269	
-0.382629	
-0.382385	
-0.381897	
-0.382385	
-0.382263	
-0.381958	
-0.382568	
-0.381409	
-0.382263	
-0.381226	
-0.382141	
-0.382019	
-0.382263	
-0.382568	
-0.382324	
-0.382324	
-0.382813	
-0.383118	
-0.383484	
-0.384338	
-0.383667	
-0.384521	
-0.384705	
-0.385254	
-0.385193	
-0.385254	
-0.385437	
-0.385742	
-0.386047	
-0.386047	
-0.385986	
-0.384949	
-0.386169	
-0.386719	
-0.38623	
-0.386292	
-0.386597	
-0.386414	
-0.386841	
-0.386841	
-0.386658	
-0.386292	
-0.385315	
-0.38678	
-0.38739	
-0.386658	
-0.386597	
-0.387024	
-0.386597	
-0.386597	
-0.387024	
-0.387268	
-0.387268	
-0.385742	
-0.387085	
-0.388184	
-0.386841	
-0.386475	
-0.386536	
-0.385925	
-0.386108	
-0.386353	
-0.385803	
-0.385132	
-0.383606	
-0.384277	
-0.385681	
-0.384277	
-0.38385	
-0.383911	
-0.383423	
-0.383362	
-0.383118	
-0.38324	
-0.382507	
-0.381958	
-0.383118	
-0.38446	
-0.382996	
-0.382935	
-0.383484	
-0.383179	
-0.383423	
-0.382507	
-0.383179	
-0.383789	
-0.383789	
-0.384155	
-0.385254	
-0.384521	
-0.384766	
-0.384338	
-0.384644	
-0.384888	
-0.384827	
-0.385071	
-0.384338	
-0.384094	
-0.384277	
-0.385132	
-0.383972	
-0.383972	
-0.38269	
-0.38324	
-0.383667	
-0.382324	
-0.382568	
-0.382446	
-0.382324	
-0.38269	
-0.381653	
-0.382324	
-0.382324	
-0.380432	
-0.382263	
-0.382324	
-0.381531	
-0.382202	
-0.381653	
-0.381409	
-0.381592	
-0.381531	
-0.381897	
-0.381348	
-0.381104	
-0.38147	
-0.382202	
-0.381592	
-0.382324	
-0.38208	
-0.382507	
-0.382751	
-0.382324	
-0.382874	
-0.382751	
-0.382874	
-0.383606	
-0.384644	
-0.383545	
-0.384277	
-0.384033	
-0.384705	
-0.384583	
-0.384521	
-0.384521	
-0.384399	
-0.383728	
-0.384216	
-0.384521	
-0.382751	
-0.383972	
-0.384033	
-0.384338	
-0.384521	
-0.384644	
-0.384277	
-0.384399	
-0.383545	
-0.384888	
-0.385376	
-0.383789	
-0.38562	
-0.384521	
-0.385071	
-0.385498	
-0.385132	
-0.384766	
-0.385193	
-0.384766	
-0.385437	
-0.386108	
-0.384705	
-0.386597	
-0.385742	
-0.386047	
-0.386292	
-0.385986	
-0.38562	
-0.384705	
-0.384094	
-0.384094	
-0.384094	
-0.381958	
-0.383545	
-0.382568	
-0.382568	
-0.382446	
-0.382141	
-0.382141	
-0.382202	
-0.381592	
-0.381836	
-0.382141	
-0.381653	
-0.382813	
-0.381775	
-0.381836	
-0.382629	
-0.382202	
-0.382507	
-0.382446	
-0.382446	
-0.382935	
-0.383301	
-0.383423	
-0.384216	
-0.383545	
-0.383484	
-0.38446	
-0.384216	
-0.384216	
-0.384216	
-0.384827	
-0.38446	
-0.385132	
-0.384705	
-0.385376	
-0.384644	
-0.385132	
-0.386047	
-0.385498	
-0.385864	
-0.38623	
-0.386292	
-0.386475	
-0.386719	
-0.386719	
-0.387817	
-0.387146	
-0.387756	
-0.38855	
-0.387756	
-0.388	
-0.388184	
-0.388489	
-0.388672	
-0.389099	
-0.388855	
-0.389709	
-0.388855	
-0.389465	
-0.390198	
-0.389282	
-0.388794	
-0.389465	
-0.389709	
-0.389587	
-0.389709	
-0.389709	
-0.389587	
-0.388733	
-0.389099	
-0.390259	
-0.389221	
-0.389526	
-0.389038	
-0.388794	
-0.389282	
-0.389343	
-0.388672	
-0.388977	
-0.389221	
-0.389099	
-0.390076	
-0.389099	
-0.388733	
-0.388367	
-0.38855	
-0.388245	
-0.389221	
-0.388367	
-0.389099	
-0.387695	
-0.388184	
-0.389038	
-0.387451	
-0.386841	
-0.386292	
-0.386963	
-0.386353	
-0.387268	
-0.38678	
-0.387634	
-0.386536	
-0.387024	
-0.388672	
-0.387329	
-0.387024	
-0.386902	
-0.387207	
-0.387268	
-0.387573	
-0.386414	
-0.387756	
-0.38623	
-0.386597	
-0.387878	
-0.386353	
-0.38623	
-0.385864	
-0.38678	
-0.386902	
-0.387695	
	
