E:\DOCUMENTS AND SETTINGS\JPOTAS\MEUS DOCUMENTOS\UFRJ\RSCI-BM 12 WK SERIES\070719-RSCI-BM-02\RSCI-BM-02-LEMG\070719-RSCI-BM-02-LEMG-0020.ACQ
0.025000 msec/sample
1 channel
Analog input
Volts
CH1	
2000	
-0.3927	
-0.392273	
-0.392334	
-0.392578	
-0.393616	
-0.393433	
-0.392639	
-0.392029	
-0.39325	
-0.393982	
-0.394043	
-0.393738	
-0.393677	
-0.393799	
-0.394714	
-0.394653	
-0.395325	
-0.394714	
-0.394104	
-0.394775	
-0.396118	
-0.395935	
-0.39563	
-0.395935	
-0.396301	
-0.396362	
-0.397156	
-0.397156	
-0.396484	
-0.395874	
-0.396484	
-0.39801	
-0.397705	
-0.397034	
-0.396545	
-0.396912	
-0.397827	
-0.397766	
-0.398499	
-0.3974	
-0.3974	
-0.397034	
-0.398132	
-0.39801	
-0.397156	
-0.396301	
-0.3974	
-0.397705	
-0.397644	
-0.397583	
-0.397095	
-0.396973	
-0.396545	
-0.39679	
-0.39679	
-0.396362	
-0.396118	
-0.39679	
-0.397461	
-0.396912	
-0.397156	
-0.396423	
-0.39624	
-0.396118	
-0.39679	
-0.396851	
-0.396423	
-0.396484	
-0.396912	
-0.397827	
-0.39679	
-0.397339	
-0.396423	
-0.396118	
-0.39624	
-0.396545	
-0.39679	
-0.395996	
-0.396362	
-0.396179	
-0.396667	
-0.395996	
-0.395142	
-0.394592	
-0.396057	
-0.396118	
-0.395874	
-0.396301	
-0.395142	
-0.39563	
-0.395874	
-0.395447	
-0.395691	
-0.395386	
-0.394836	
-0.395935	
-0.396667	
-0.395508	
-0.396301	
-0.394653	
-0.395813	
-0.395996	
-0.396545	
-0.397095	
-0.396484	
-0.397034	
-0.397156	
-0.397644	
-0.397339	
-0.398132	
-0.396118	
-0.397949	
-0.397949	
-0.398499	
-0.398438	
-0.39856	
-0.398987	
-0.399353	
-0.398865	
-0.399231	
-0.399414	
-0.397278	
-0.398438	
-0.397888	
-0.398438	
-0.397888	
-0.397522	
-0.397827	
-0.397461	
-0.396973	
-0.396118	
-0.39563	
-0.393494	
-0.394165	
-0.39325	
-0.392883	
-0.39325	
-0.391785	
-0.391479	
-0.391846	
-0.391418	
-0.391907	
-0.39093	
-0.39032	
-0.391296	
-0.391541	
-0.39093	
-0.391785	
-0.39032	
-0.390869	
-0.391052	
-0.390991	
-0.390747	
-0.390015	
-0.390076	
-0.39032	
-0.390564	
-0.390442	
-0.391663	
-0.389404	
-0.390137	
-0.390564	
-0.390442	
-0.390991	
-0.390564	
-0.390625	
-0.390625	
-0.391052	
-0.391174	
-0.392212	
-0.391174	
-0.392883	
-0.393372	
-0.393433	
-0.394226	
-0.393494	
-0.393982	
-0.394226	
-0.394958	
-0.394653	
-0.395264	
-0.394897	
-0.395691	
-0.396545	
-0.395935	
-0.396606	
-0.394958	
-0.395447	
-0.395813	
-0.395569	
-0.395569	
-0.395996	
-0.395813	
-0.395813	
-0.395569	
-0.395264	
-0.395325	
-0.387939	
-0.391113	
-0.393738	
-0.394287	
-0.394592	
-0.394165	
-0.393921	
-0.393677	
-0.393127	
-0.393799	
-0.393188	
-0.390991	
-0.392944	
-0.393127	
-0.39325	
-0.393494	
-0.392578	
-0.392944	
-0.393005	
-0.392212	
-0.392395	
-0.391907	
-0.39093	
-0.392456	
-0.392273	
-0.392517	
-0.392822	
-0.391174	
-0.392334	
-0.392761	
-0.392822	
-0.393311	
-0.392395	
-0.392883	
-0.392761	
-0.393005	
-0.393555	
-0.393738	
-0.393921	
-0.393616	
-0.394165	
-0.393799	
-0.394226	
-0.393982	
-0.393555	
-0.393066	
-0.392151	
-0.391602	
-0.390869	
-0.389343	
-0.388733	
-0.388855	
-0.387207	
-0.386841	
-0.385376	
-0.385925	
-0.386108	
-0.387329	
-0.388855	
-0.391541	
-0.394226	
-0.398499	
-0.403503	
-0.40686	
-0.412109	
-0.415833	
-0.422485	
-0.427673	
-0.434448	
-0.44165	
-0.449463	
-0.456665	
-0.463745	
-0.47052	
-0.476746	
-0.482117	
-0.486084	
-0.492249	
-0.495117	
-0.497742	
-0.500122	
-0.50116	
-0.501282	
-0.501221	
-0.5	
-0.499817	
-0.497437	
-0.498718	
-0.497375	
-0.497314	
-0.497314	
-0.497803	
-0.497803	
-0.498901	
-0.499939	
-0.502014	
-0.504456	
-0.505859	
-0.509277	
-0.511108	
-0.515503	
-0.518372	
-0.52179	
-0.524231	
-0.527161	
-0.527954	
-0.52887	
-0.528503	
-0.527893	
-0.527588	
-0.524719	
-0.522644	
-0.519104	
-0.516724	
-0.512817	
-0.509033	
-0.502991	
-0.497559	
-0.49115	
-0.486084	
-0.481079	
-0.476929	
-0.4729	
-0.469849	
-0.466797	
-0.464233	
-0.461853	
-0.459839	
-0.458496	
-0.455383	
-0.453552	
-0.451172	
-0.448486	
-0.444519	
-0.441284	
-0.436523	
-0.432495	
-0.426819	
-0.421387	
-0.415588	
-0.40918	
-0.402405	
-0.396179	
-0.389954	
-0.382629	
-0.376587	
-0.368713	
-0.360352	
-0.351685	
-0.34314	
-0.33429	
-0.324646	
-0.315613	
-0.307129	
-0.299438	
-0.291504	
-0.286133	
-0.280396	
-0.275452	
-0.271118	
-0.269165	
-0.268677	
-0.268555	
-0.268921	
-0.270203	
-0.273682	
-0.276245	
-0.280273	
-0.283264	
-0.28717	
-0.291931	
-0.295471	
-0.298645	
-0.303833	
-0.308044	
-0.3125	
-0.316345	
-0.320923	
-0.323608	
-0.327271	
-0.329407	
-0.33197	
-0.333923	
-0.337524	
-0.339661	
-0.341858	
-0.344421	
-0.347534	
-0.350586	
-0.352905	
-0.355286	
-0.357422	
-0.358765	
-0.360291	
-0.361877	
-0.362671	
-0.364685	
-0.366516	
-0.368713	
-0.369629	
-0.371887	
-0.372437	
-0.374023	
-0.374023	
-0.376526	
-0.377686	
-0.37915	
-0.379761	
-0.381592	
-0.382446	
-0.38385	
-0.384827	
-0.385803	
-0.38739	
-0.389526	
-0.389648	
-0.39032	
-0.390869	
-0.392273	
-0.393188	
-0.392944	
-0.393616	
-0.393494	
-0.393311	
-0.391724	
-0.391174	
-0.390686	
-0.391052	
-0.390625	
-0.390564	
-0.390442	
-0.389526	
-0.389099	
-0.387695	
-0.388123	
-0.38739	
-0.387573	
-0.387695	
-0.38678	
-0.387024	
-0.387146	
-0.386475	
-0.386963	
-0.386719	
-0.386475	
-0.385315	
-0.384644	
-0.384888	
-0.38446	
-0.384766	
-0.384766	
-0.385193	
-0.384888	
-0.384705	
-0.384583	
-0.385315	
-0.385132	
-0.384033	
-0.384705	
-0.384216	
-0.385498	
-0.385498	
-0.38623	
-0.386108	
-0.385864	
-0.384888	
-0.386414	
-0.386108	
-0.387146	
-0.387024	
-0.387695	
-0.387756	
-0.38855	
-0.388733	
-0.38855	
-0.389404	
-0.389587	
-0.389343	
-0.387878	
-0.388733	
-0.388916	
-0.389954	
-0.389648	
-0.390808	
-0.390442	
-0.390625	
-0.389587	
-0.390137	
-0.390198	
-0.390259	
-0.388611	
-0.390747	
-0.390808	
-0.391296	
-0.391235	
-0.39093	
-0.391174	
-0.391602	
-0.390869	
-0.390564	
-0.390625	
-0.391418	
-0.391113	
-0.390991	
-0.391479	
-0.390381	
-0.391174	
-0.389526	
-0.390259	
-0.389282	
-0.388855	
-0.387939	
-0.388672	
-0.388611	
-0.388428	
-0.389221	
-0.388428	
-0.387878	
-0.388062	
-0.387329	
-0.386475	
-0.385986	
-0.387207	
-0.387756	
-0.387573	
-0.38855	
-0.38739	
-0.387634	
-0.387207	
-0.387268	
-0.387756	
-0.387756	
-0.387085	
-0.388123	
-0.388367	
-0.389099	
-0.389343	
-0.389099	
-0.389771	
-0.390503	
-0.389587	
-0.389404	
-0.388428	
-0.389648	
-0.390015	
-0.389954	
-0.390076	
-0.389832	
-0.389465	
-0.390625	
-0.390442	
-0.389954	
-0.390259	
-0.389221	
-0.390503	
-0.390442	
-0.390625	
-0.391113	
-0.390625	
-0.390747	
-0.391113	
-0.39093	
-0.390381	
-0.389526	
-0.390076	
-0.390686	
-0.391052	
-0.390991	
-0.391479	
-0.392029	
-0.390869	
-0.390686	
-0.391296	
-0.390808	
-0.389771	
-0.39032	
-0.390442	
-0.390808	
-0.39093	
-0.391846	
-0.391663	
-0.391479	
-0.391235	
-0.390564	
-0.390625	
-0.390747	
-0.390015	
-0.390747	
-0.390503	
-0.390564	
-0.390625	
-0.390381	
-0.390564	
-0.389526	
-0.38916	
-0.388916	
-0.388794	
-0.387939	
-0.38916	
-0.388733	
-0.389099	
-0.389038	
-0.388733	
-0.388977	
-0.388611	
-0.388367	
-0.387207	
-0.388123	
-0.388855	
-0.389038	
-0.389526	
-0.390869	
-0.390503	
-0.390503	
-0.390869	
-0.39093	
-0.390503	
-0.390686	
-0.390198	
-0.391602	
-0.392151	
-0.392456	
-0.393066	
-0.394104	
-0.394226	
-0.393921	
-0.393433	
-0.393311	
-0.394165	
-0.394348	
-0.394775	
-0.394653	
-0.395569	
-0.395325	
-0.395264	
-0.395752	
-0.395935	
-0.394775	
-0.39502	
-0.394653	
-0.395752	
-0.395264	
-0.395325	
-0.395813	
-0.395935	
-0.395142	
-0.393677	
-0.394104	
-0.392944	
-0.393066	
-0.39325	
-0.392578	
-0.392334	
-0.392212	
-0.391174	
-0.391479	
-0.390869	
-0.390442	
-0.388306	
-0.389343	
-0.389038	
-0.388672	
-0.388977	
-0.388855	
-0.389771	
-0.389526	
-0.389709	
-0.389282	
-0.389282	
-0.387939	
-0.387451	
-0.388428	
-0.389404	
-0.389099	
-0.389221	
-0.390259	
-0.389954	
-0.389893	
-0.389038	
-0.390442	
-0.388489	
-0.389343	
-0.390015	
-0.390442	
-0.390991	
-0.391235	
-0.391968	
-0.391724	
-0.391479	
-0.391235	
-0.392273	
-0.391846	
-0.392517	
-0.391479	
-0.392395	
-0.392822	
-0.393005	
-0.394043	
-0.394775	
-0.394104	
-0.39325	
-0.393494	
-0.393127	
-0.393555	
-0.393311	
-0.39386	
-0.393616	
-0.393616	
-0.394409	
-0.39563	
-0.394714	
-0.393188	
-0.393555	
-0.393372	
-0.393799	
-0.393066	
-0.39386	
-0.393677	
-0.394043	
-0.394348	
-0.394165	
-0.393127	
-0.391968	
-0.391724	
-0.392944	
-0.392639	
-0.391785	
-0.392883	
-0.392822	
-0.393005	
-0.393494	
-0.393616	
-0.3927	
-0.392395	
-0.392395	
-0.39325	
-0.393127	
-0.392944	
-0.392883	
-0.393066	
-0.393555	
-0.39447	
-0.393616	
-0.392639	
-0.392944	
-0.391846	
-0.392273	
-0.392334	
-0.392639	
-0.39209	
-0.391846	
-0.392334	
-0.393066	
-0.391541	
-0.391541	
-0.391174	
-0.391968	
-0.391907	
-0.391357	
-0.391602	
-0.391724	
-0.391724	
-0.392883	
-0.393433	
-0.391357	
-0.390686	
-0.391113	
-0.391724	
-0.391785	
-0.390869	
-0.391846	
-0.392395	
-0.392517	
-0.393982	
-0.393372	
-0.392944	
-0.391785	
-0.392517	
-0.39386	
-0.393433	
-0.393433	
-0.394043	
-0.394287	
-0.394714	
-0.395569	
-0.395508	
-0.394592	
-0.393188	
-0.393982	
-0.394592	
-0.394226	
-0.39447	
-0.394348	
-0.394287	
-0.394348	
-0.394531	
-0.393799	
-0.392883	
-0.392822	
-0.391418	
-0.391541	
-0.39093	
-0.390503	
-0.389648	
-0.389282	
-0.388916	
-0.389282	
-0.388428	
-0.387207	
-0.387939	
-0.386475	
-0.387329	
-0.386597	
-0.386719	
-0.386719	
-0.38678	
-0.388306	
-0.387878	
-0.386597	
-0.385925	
-0.386047	
-0.385315	
-0.386719	
-0.385498	
-0.386353	
-0.386169	
-0.386597	
-0.388062	
-0.386963	
-0.385681	
-0.385315	
-0.385254	
-0.386475	
-0.386108	
-0.386292	
-0.386536	
-0.386841	
-0.38678	
-0.388184	
-0.387695	
-0.387939	
-0.387512	
-0.388916	
-0.389282	
-0.389038	
-0.389709	
-0.390137	
-0.389954	
-0.39032	
-0.391052	
-0.391663	
-0.391296	
-0.390808	
-0.390869	
-0.391541	
-0.39032	
-0.392273	
-0.392151	
-0.391968	
-0.392395	
-0.392334	
-0.392517	
-0.391113	
-0.39093	
-0.390686	
-0.391296	
-0.390991	
-0.390869	
-0.39093	
-0.390686	
-0.391663	
-0.390625	
-0.389648	
-0.389221	
-0.388916	
-0.388	
-0.389099	
-0.389343	
-0.389587	
-0.389648	
-0.389465	
-0.389954	
-0.389587	
-0.388367	
-0.388977	
-0.387512	
-0.388611	
-0.388245	
-0.38916	
-0.388794	
-0.388733	
-0.388916	
-0.389282	
-0.389221	
-0.38855	
-0.388794	
-0.388672	
-0.388855	
-0.388306	
-0.38916	
-0.389282	
-0.389465	
-0.390503	
-0.390686	
-0.390381	
-0.389404	
-0.38916	
-0.38916	
-0.390137	
-0.390015	
-0.390625	
-0.389832	
-0.390198	
-0.390747	
-0.391418	
-0.39032	
-0.389221	
-0.388733	
-0.38916	
-0.389954	
-0.390259	
-0.39032	
-0.39093	
-0.391052	
-0.391602	
-0.392639	
-0.391418	
-0.391541	
-0.390381	
-0.391296	
-0.391846	
-0.392456	
-0.392334	
-0.3927	
-0.392822	
-0.393799	
-0.394287	
-0.393616	
-0.393494	
-0.391357	
-0.393494	
-0.39209	
-0.393066	
-0.392639	
-0.392761	
-0.3927	
-0.392517	
-0.392578	
-0.391418	
-0.391174	
-0.39093	
-0.39093	
-0.390015	
-0.390625	
-0.390015	
-0.389771	
-0.389771	
-0.389343	
-0.389282	
-0.388184	
-0.387512	
-0.387573	
-0.387878	
-0.387817	
-0.387939	
-0.388	
-0.388	
-0.388672	
-0.389099	
-0.387695	
-0.387634	
-0.386536	
-0.38623	
-0.387085	
-0.387573	
-0.387573	
-0.387695	
-0.388428	
-0.389648	
-0.390259	
-0.388855	
-0.389343	
-0.38855	
-0.389648	
-0.390137	
-0.391174	
-0.391602	
-0.392334	
-0.392578	
-0.393616	
-0.393799	
-0.393677	
-0.393677	
-0.392822	
-0.394104	
-0.393494	
-0.39447	
-0.394592	
-0.395203	
-0.395203	
-0.396423	
-0.395386	
-0.394958	
-0.393738	
-0.393799	
-0.394531	
-0.393799	
-0.394409	
-0.394287	
-0.394348	
-0.39447	
-0.395203	
-0.394714	
-0.394226	
-0.392029	
-0.393921	
-0.393188	
-0.393494	
-0.39325	
-0.393188	
-0.392883	
-0.393188	
-0.392883	
-0.393555	
-0.392029	
-0.391357	
-0.391235	
-0.390625	
-0.391113	
-0.390808	
-0.390564	
-0.390503	
-0.390808	
-0.391785	
-0.391724	
-0.390198	
-0.389465	
-0.389465	
-0.389404	
-0.39032	
-0.390015	
-0.389893	
-0.390381	
-0.391724	
-0.390686	
-0.391296	
-0.390015	
-0.389282	
-0.389343	
-0.390015	
-0.39032	
-0.390625	
-0.390686	
-0.390625	
-0.392761	
-0.391846	
-0.391235	
-0.390137	
-0.390625	
-0.390442	
-0.391235	
-0.391174	
-0.391357	
-0.391296	
-0.391418	
-0.393005	
-0.391052	
-0.391602	
-0.389709	
-0.390869	
-0.390015	
-0.390869	
-0.390747	
-0.390747	
-0.390747	
-0.391235	
-0.392944	
-0.391602	
-0.391174	
-0.389648	
-0.390869	
-0.39032	
-0.391724	
-0.391724	
-0.39209	
-0.391907	
-0.392151	
-0.394104	
-0.392395	
-0.391602	
-0.390015	
-0.39093	
-0.391663	
-0.391724	
-0.391541	
-0.391907	
-0.392273	
-0.392273	
-0.393738	
-0.392761	
-0.391785	
-0.388794	
-0.39032	
-0.391235	
-0.391357	
-0.391113	
-0.39093	
-0.390869	
-0.391418	
-0.391418	
-0.390259	
-0.389771	
-0.388062	
-0.389465	
-0.389587	
-0.389526	
-0.388916	
-0.388916	
-0.388672	
-0.389587	
-0.388733	
-0.389221	
-0.387817	
-0.388062	
-0.38855	
-0.388794	
-0.388916	
-0.38916	
-0.389587	
-0.389709	
-0.391968	
-0.39093	
-0.391296	
-0.390503	
-0.391418	
-0.392029	
-0.393311	
-0.393311	
-0.394592	
-0.394714	
-0.39502	
-0.397034	
-0.39624	
-0.396301	
-0.393494	
-0.394531	
-0.395203	
-0.396179	
-0.39624	
-0.395752	
-0.396118	
-0.397217	
-0.398071	
-0.396912	
-0.396667	
-0.39502	
-0.395691	
-0.395935	
-0.396362	
-0.396851	
-0.396851	
-0.396912	
-0.397522	
-0.398071	
-0.397034	
-0.39624	
-0.394836	
-0.395874	
-0.396484	
-0.396484	
-0.396729	
-0.396423	
-0.396179	
-0.396729	
-0.395874	
-0.394775	
-0.393982	
-0.391846	
-0.393555	
-0.393372	
-0.393616	
-0.392761	
-0.392578	
-0.392944	
-0.393494	
-0.392395	
-0.3927	
-0.390442	
-0.391174	
-0.391296	
-0.391602	
-0.391785	
-0.391846	
-0.39209	
-0.392456	
-0.393433	
-0.393066	
-0.392944	
-0.391174	
-0.392395	
-0.392334	
-0.392883	
-0.392944	
-0.393005	
-0.393738	
-0.39447	
-0.395447	
-0.394714	
-0.394104	
-0.393005	
-0.39386	
-0.39325	
-0.394104	
-0.393921	
-0.394531	
-0.39447	
-0.395386	
-0.394958	
-0.395386	
-0.394714	
-0.393188	
-0.394104	
-0.393494	
-0.394714	
-0.39502	
-0.394836	
-0.394653	
-0.395325	
-0.395691	
-0.395874	
-0.393433	
-0.394409	
-0.393982	
-0.394531	
-0.394836	
-0.394775	
-0.394531	
-0.394836	
-0.39502	
-0.395142	
-0.394836	
-0.393677	
-0.392883	
-0.392761	
-0.393555	
-0.393555	
-0.393616	
-0.393799	
-0.394592	
-0.394897	
-0.39447	
-0.395203	
-0.392883	
-0.392029	
-0.391602	
-0.392517	
-0.392395	
-0.3927	
-0.392517	
-0.392822	
-0.392395	
-0.392395	
-0.391907	
-0.390198	
-0.390137	
-0.389221	
-0.390686	
-0.390625	
-0.390076	
-0.390198	
-0.390564	
-0.39032	
-0.390137	
-0.389465	
-0.390381	
-0.390076	
-0.389771	
-0.39093	
-0.391174	
-0.391296	
-0.391907	
-0.3927	
-0.392883	
-0.392761	
-0.392212	
-0.392517	
-0.392822	
-0.392273	
-0.393738	
-0.39447	
-0.394592	
-0.395264	
-0.395874	
-0.396057	
-0.396057	
-0.395691	
-0.395081	
-0.394958	
-0.395569	
-0.396057	
-0.396057	
-0.396484	
-0.396912	
-0.397461	
-0.397339	
-0.397278	
-0.395996	
-0.395874	
-0.395386	
-0.396118	
-0.395874	
-0.395508	
-0.395447	
-0.396179	
-0.396057	
-0.395325	
-0.39447	
-0.393799	
-0.392395	
-0.391174	
-0.39209	
-0.391602	
-0.391235	
-0.391052	
-0.391174	
-0.391479	
-0.390442	
-0.389648	
-0.388794	
-0.388245	
-0.389343	
-0.389465	
-0.389038	
-0.389221	
-0.389709	
-0.389893	
-0.390503	
-0.39032	
-0.389282	
-0.388977	
-0.390015	
-0.390198	
-0.389893	
-0.389832	
-0.390015	
-0.390625	
-0.390808	
-0.391479	
-0.391785	
-0.391541	
-0.391113	
-0.391541	
-0.391479	
-0.391663	
-0.39209	
-0.392395	
-0.392761	
-0.393188	
-0.393738	
-0.393921	
-0.393982	
-0.392334	
-0.392883	
-0.393555	
-0.394409	
-0.394043	
-0.394287	
-0.395203	
-0.395325	
-0.394775	
-0.39502	
-0.395325	
-0.394958	
-0.394104	
-0.394897	
-0.39502	
-0.394775	
-0.394958	
-0.395691	
-0.396729	
-0.395203	
-0.394714	
-0.394958	
-0.394897	
-0.394775	
-0.394165	
-0.394714	
-0.394348	
-0.394958	
-0.394592	
-0.395935	
-0.394226	
-0.393188	
-0.392761	
-0.393799	
-0.393982	
-0.394043	
-0.394409	
-0.394226	
-0.394531	
-0.394531	
-0.39502	
-0.394653	
-0.39447	
-0.391907	
-0.394531	
-0.394653	
-0.394348	
-0.394653	
-0.394714	
-0.394592	
-0.39447	
-0.394531	
-0.39447	
-0.394104	
-0.392517	
-0.393982	
-0.393372	
-0.393738	
-0.393494	
-0.393616	
-0.394287	
-0.393921	
-0.393555	
-0.393677	
-0.394104	
-0.393127	
-0.393494	
-0.392883	
-0.393372	
-0.39325	
-0.393616	
-0.394653	
-0.39447	
-0.393555	
-0.394104	
-0.394287	
-0.393616	
-0.393738	
-0.393555	
-0.394836	
-0.394836	
-0.395142	
-0.396179	
-0.396545	
-0.395447	
-0.395874	
-0.395508	
-0.396118	
-0.396179	
-0.395935	
-0.396729	
-0.396973	
-0.397095	
-0.397949	
-0.398438	
-0.39679	
-0.39679	
-0.39502	
-0.396484	
-0.396057	
-0.395447	
-0.39624	
-0.396057	
-0.395752	
-0.395752	
-0.395447	
-0.394104	
-0.392883	
-0.391174	
-0.392212	
-0.390076	
-0.391174	
-0.390381	
-0.389771	
-0.390137	
-0.390015	
-0.390198	
-0.389709	
-0.388977	
-0.388245	
-0.389343	
-0.388062	
-0.389282	
-0.389404	
-0.388977	
-0.389343	
-0.389526	
-0.388916	
-0.388672	
-0.388916	
-0.388489	
-0.38855	
-0.388428	
-0.388672	
-0.388855	
-0.388916	
-0.389526	
-0.389648	
-0.388733	
-0.389282	
-0.389771	
-0.388916	
-0.38855	
-0.38916	
-0.389893	
-0.390503	
-0.391235	
-0.391541	
-0.392944	
-0.391907	
-0.393066	
-0.392639	
-0.3927	
-0.3927	
-0.392273	
-0.393066	
-0.393494	
-0.393738	
-0.39447	
-0.39502	
-0.394653	
-0.395081	
-0.39325	
-0.394104	
-0.393494	
-0.393066	
-0.394043	
-0.394165	
-0.394409	
-0.395081	
-0.394714	
-0.393555	
-0.393372	
-0.392883	
-0.393066	
-0.391479	
-0.39209	
-0.392456	
-0.392273	
-0.392212	
-0.393188	
-0.392944	
-0.392456	
-0.391235	
-0.391113	
-0.391418	
-0.391418	
-0.391846	
-0.391541	
-0.391785	
-0.391785	
-0.392517	
-0.392273	
-0.391357	
-0.390259	
-0.390137	
-0.39093	
-0.391235	
-0.391052	
-0.391357	
-0.391113	
-0.391235	
-0.392761	
-0.392395	
-0.392517	
-0.390808	
-0.390442	
-0.390442	
-0.391357	
-0.391846	
-0.392151	
-0.392151	
-0.3927	
-0.392761	
-0.392822	
-0.392456	
-0.392212	
-0.390869	
-0.39209	
-0.390869	
-0.391846	
-0.392029	
-0.39209	
-0.392639	
-0.392944	
-0.393066	
-0.392883	
-0.392151	
-0.39209	
-0.393372	
-0.393188	
-0.393677	
-0.393677	
-0.393799	
-0.39502	
-0.394531	
-0.395508	
-0.394775	
-0.394775	
-0.39447	
-0.395081	
-0.395325	
-0.395447	
-0.395691	
-0.395752	
-0.396484	
-0.395691	
-0.395874	
-0.39502	
-0.394714	
-0.393738	
-0.394531	
-0.394165	
-0.393982	
-0.393433	
-0.393372	
-0.39447	
-0.393494	
-0.392822	
-0.391785	
-0.392029	
-0.391052	
-0.391113	
-0.391113	
-0.390564	
-0.390381	
-0.390686	
-0.391296	
-0.391113	
-0.389893	
-0.389709	
-0.389038	
-0.389648	
-0.388428	
-0.389526	
-0.389526	
-0.389526	
-0.389832	
-0.390381	
-0.390686	
-0.389587	
-0.389648	
-0.388916	
-0.390137	
-0.389282	
-0.39093	
-0.390991	
-0.391113	
-0.392395	
-0.392578	
-0.393311	
-0.393311	
-0.392517	
-0.393433	
-0.394226	
-0.394836	
-0.395081	
-0.395508	
-0.396118	
-0.397278	
-0.396851	
-0.397339	
-0.39624	
-0.395874	
-0.396484	
-0.396729	
-0.396851	
-0.396301	
-0.396423	
-0.39679	
-0.397522	
-0.397583	
-0.396912	
-0.395569	
-0.396118	
-0.395447	
-0.395874	
-0.396301	
-0.396118	
-0.396362	
-0.395935	
-0.396301	
-0.396667	
-0.395752	
-0.395447	
-0.394043	
-0.393311	
-0.394165	
-0.394531	
-0.39386	
-0.393738	
-0.39386	
-0.394043	
-0.393494	
-0.3927	
-0.393127	
-0.391602	
-0.391785	
-0.391235	
-0.39209	
-0.391968	
-0.391907	
-0.3927	
-0.392639	
-0.392029	
-0.391418	
-0.391724	
-0.391235	
-0.391479	
-0.39093	
-0.391724	
-0.39209	
-0.391907	
-0.392883	
-0.393066	
-0.392334	
-0.391846	
-0.391724	
-0.392212	
-0.391846	
-0.392212	
-0.392395	
-0.392944	
-0.393127	
-0.393066	
-0.394348	
-0.393433	
-0.39209	
-0.392212	
-0.392517	
-0.3927	
-0.3927	
-0.393066	
-0.392517	
-0.392639	
-0.392395	
-0.394043	
-0.392883	
-0.392822	
-0.391541	
-0.391724	
-0.392151	
-0.392334	
-0.392395	
-0.392578	
-0.393311	
-0.393066	
-0.394714	
-0.393005	
-0.393799	
-0.392029	
-0.392273	
-0.392883	
-0.393311	
-0.394165	
-0.393494	
-0.393311	
-0.393616	
-0.394592	
-0.393433	
-0.394226	
-0.391846	
-0.393127	
-0.393066	
-0.393372	
-0.393494	
-0.393494	
-0.393799	
-0.39386	
-0.394043	
-0.392883	
-0.393005	
-0.391052	
-0.392273	
-0.390747	
-0.391968	
-0.391907	
-0.391479	
-0.392456	
-0.39209	
-0.391785	
-0.390259	
-0.390442	
-0.389282	
-0.390198	
-0.389038	
-0.390015	
-0.390076	
-0.390076	
-0.390991	
-0.390808	
-0.391113	
-0.390137	
-0.390686	
-0.390015	
-0.391052	
-0.391357	
-0.391785	
-0.392395	
-0.393005	
-0.393921	
-0.395813	
-0.395203	
-0.395447	
-0.39563	
-0.395691	
-0.396667	
-0.397339	
-0.3974	
-0.397522	
-0.397766	
-0.397644	
-0.399109	
-0.398254	
-0.398438	
-0.396912	
-0.398132	
-0.398315	
-0.398315	
-0.398315	
-0.398254	
-0.399048	
-0.39856	
-0.400024	
-0.398315	
-0.399292	
-0.397461	
-0.398376	
-0.398376	
-0.398926	
-0.399048	
-0.398743	
-0.399353	
-0.398743	
-0.400513	
-0.397766	
-0.398804	
-0.396118	
-0.3974	
-0.396667	
-0.397156	
-0.396545	
-0.396301	
-0.395996	
-0.395874	
-0.397217	
-0.394775	
-0.395081	
-0.392883	
-0.394409	
-0.393494	
-0.393982	
-0.393738	
-0.393616	
-0.39386	
-0.394287	
-0.395081	
-0.39386	
-0.393433	
-0.392761	
-0.393799	
-0.394165	
-0.394043	
-0.394287	
-0.395142	
-0.394409	
-0.395325	
-0.396362	
-0.395752	
-0.39502	
-0.393677	
-0.395325	
-0.395691	
-0.395813	
-0.39624	
-0.396912	
-0.39624	
-0.397095	
-0.396179	
-0.396729	
-0.39563	
-0.394043	
-0.395508	
-0.396484	
-0.396545	
-0.396606	
-0.397156	
-0.39679	
-0.398254	
-0.397278	
-0.397339	
-0.396118	
-0.394653	
-0.396606	
-0.396912	
-0.396667	
-0.396912	
-0.39679	
-0.396851	
-0.397339	
-0.397217	
-0.397339	
-0.395386	
-0.394104	
-0.395691	
-0.396484	
-0.396362	
-0.396484	
-0.39563	
-0.395996	
-0.396057	
-0.395996	
-0.396729	
-0.395264	
-0.394775	
-0.395508	
-0.395508	
-0.395691	
-0.396423	
-0.395081	
-0.395081	
-0.395264	
-0.394836	
-0.39502	
-0.393921	
-0.39325	
-0.393066	
-0.393799	
-0.393677	
-0.394165	
-0.39325	
-0.393799	
-0.393005	
-0.392578	
-0.3927	
-0.392151	
-0.392151	
-0.391235	
-0.392273	
-0.392456	
-0.393066	
-0.392761	
-0.394104	
-0.393311	
-0.393677	
-0.393188	
-0.39325	
-0.393799	
-0.393433	
-0.394226	
-0.394714	
-0.394836	
-0.395264	
-0.39624	
-0.395691	
-0.396667	
-0.396179	
-0.395874	
-0.397522	
-0.397095	
-0.397766	
-0.398071	
-0.397705	
-0.39801	
-0.398743	
-0.398499	
-0.398132	
-0.397339	
-0.397522	
-0.397888	
-0.398132	
-0.39801	
-0.398376	
-0.398132	
-0.398254	
-0.398804	
-0.39856	
-0.39801	
-0.39624	
-0.396484	
-0.396973	
-0.396362	
-0.395935	
-0.395752	
-0.394836	
-0.394165	
-0.395264	
-0.394165	
-0.393921	
-0.391235	
-0.391235	
-0.391418	
-0.391479	
-0.391541	
-0.392456	
-0.391174	
-0.391296	
-0.391846	
-0.391296	
-0.391235	
-0.388916	
-0.390503	
	
