E:\DOCUMENTS AND SETTINGS\JPOTAS\MEUS DOCUMENTOS\UFRJ\RSCI-BM 12 WK SERIES\070719-RSCI-BM-02\RSCI-BM-02-LEMG\070719-RSCI-BM-02-LEMG-0010.ACQ
0.025000 msec/sample
1 channel
Analog input
Volts
CH1	
2000	
-0.397827	
-0.39624	
-0.396118	
-0.395142	
-0.395813	
-0.395508	
-0.395752	
-0.396057	
-0.394836	
-0.39447	
-0.394226	
-0.394836	
-0.392639	
-0.393188	
-0.392212	
-0.391296	
-0.392273	
-0.392212	
-0.391846	
-0.391418	
-0.390503	
-0.390503	
-0.391602	
-0.390015	
-0.39032	
-0.389893	
-0.389343	
-0.390259	
-0.391357	
-0.390869	
-0.391235	
-0.391479	
-0.390442	
-0.390869	
-0.391663	
-0.391113	
-0.391052	
-0.391174	
-0.391907	
-0.391968	
-0.392456	
-0.39325	
-0.393677	
-0.39325	
-0.392578	
-0.393188	
-0.393188	
-0.393066	
-0.392639	
-0.393494	
-0.393738	
-0.394043	
-0.394775	
-0.394531	
-0.393188	
-0.393921	
-0.394287	
-0.393982	
-0.394043	
-0.3927	
-0.393311	
-0.394409	
-0.39563	
-0.394836	
-0.394836	
-0.39447	
-0.394653	
-0.394897	
-0.395142	
-0.39502	
-0.393921	
-0.393677	
-0.395325	
-0.395752	
-0.395264	
-0.395142	
-0.394714	
-0.394714	
-0.394287	
-0.394104	
-0.394043	
-0.393616	
-0.393921	
-0.394165	
-0.394287	
-0.394226	
-0.394287	
-0.394287	
-0.39386	
-0.393494	
-0.393616	
-0.393555	
-0.39325	
-0.393677	
-0.394104	
-0.394226	
-0.394104	
-0.394348	
-0.393921	
-0.392212	
-0.393738	
-0.393188	
-0.392944	
-0.392761	
-0.392761	
-0.393066	
-0.393188	
-0.394104	
-0.394043	
-0.394897	
-0.393677	
-0.394348	
-0.394531	
-0.395325	
-0.395447	
-0.39563	
-0.394958	
-0.396362	
-0.3974	
-0.397461	
-0.397705	
-0.3974	
-0.397583	
-0.397339	
-0.397705	
-0.397949	
-0.396973	
-0.397705	
-0.398193	
-0.398071	
-0.397949	
-0.397888	
-0.397949	
-0.397217	
-0.397156	
-0.3974	
-0.397339	
-0.39624	
-0.39679	
-0.39679	
-0.396667	
-0.397095	
-0.397217	
-0.397034	
-0.395386	
-0.396423	
-0.396057	
-0.396057	
-0.395691	
-0.395569	
-0.394409	
-0.395386	
-0.396057	
-0.395203	
-0.394287	
-0.394104	
-0.393738	
-0.393677	
-0.392761	
-0.392578	
-0.392151	
-0.390991	
-0.390747	
-0.390747	
-0.389954	
-0.389099	
-0.389221	
-0.388428	
-0.388245	
-0.387695	
-0.387451	
-0.386292	
-0.387573	
-0.387817	
-0.387512	
-0.388489	
-0.388062	
-0.389282	
-0.388123	
-0.387817	
-0.38855	
-0.388672	
-0.388611	
-0.388733	
-0.388916	
-0.390198	
-0.39032	
-0.390747	
-0.390564	
-0.389587	
-0.390808	
-0.391174	
-0.39209	
-0.392029	
-0.392456	
-0.39209	
-0.393433	
-0.383301	
-0.381104	
-0.381531	
-0.380615	
-0.382263	
-0.382813	
-0.394714	
-0.396362	
-0.396667	
-0.396179	
-0.396301	
-0.396667	
-0.396667	
-0.396423	
-0.396057	
-0.395691	
-0.395935	
-0.395752	
-0.395996	
-0.394897	
-0.395813	
-0.395691	
-0.396606	
-0.396057	
-0.395874	
-0.396484	
-0.395569	
-0.395874	
-0.394958	
-0.395813	
-0.395203	
-0.395386	
-0.393982	
-0.395447	
-0.395752	
-0.395142	
-0.395142	
-0.394287	
-0.394409	
-0.394653	
-0.394897	
-0.393799	
-0.394043	
-0.393494	
-0.394592	
-0.394409	
-0.395447	
-0.394958	
-0.393311	
-0.393921	
-0.393127	
-0.393005	
-0.392151	
-0.391357	
-0.390869	
-0.391541	
-0.392151	
-0.391296	
-0.390808	
-0.389526	
-0.390503	
-0.391479	
-0.39325	
-0.394714	
-0.396606	
-0.401123	
-0.404663	
-0.409058	
-0.411377	
-0.415527	
-0.418762	
-0.422974	
-0.416443	
-0.419678	
-0.424561	
-0.430298	
-0.434814	
-0.440552	
-0.457886	
-0.46405	
-0.467529	
-0.469543	
-0.473572	
-0.476318	
-0.477966	
-0.479553	
-0.481018	
-0.48114	
-0.481506	
-0.481812	
-0.481384	
-0.481506	
-0.481628	
-0.482239	
-0.482788	
-0.483398	
-0.484375	
-0.485596	
-0.486145	
-0.48877	
-0.491699	
-0.493835	
-0.496643	
-0.498901	
-0.502808	
-0.506226	
-0.50946	
-0.511841	
-0.513855	
-0.513916	
-0.516113	
-0.516541	
-0.515015	
-0.513184	
-0.510071	
-0.508789	
-0.50531	
-0.50116	
-0.495972	
-0.491455	
-0.485657	
-0.481262	
-0.476807	
-0.471558	
-0.467407	
-0.461975	
-0.458923	
-0.455566	
-0.453064	
-0.450317	
-0.448242	
-0.445068	
-0.44397	
-0.442383	
-0.440002	
-0.437256	
-0.434998	
-0.433044	
-0.429504	
-0.426392	
-0.422791	
-0.418884	
-0.4151	
-0.411438	
-0.407715	
-0.402771	
-0.398193	
-0.393738	
-0.387634	
-0.381897	
-0.377441	
-0.372437	
-0.365784	
-0.361267	
-0.355652	
-0.35022	
-0.344666	
-0.340149	
-0.334839	
-0.328003	
-0.325623	
-0.321045	
-0.317688	
-0.314941	
-0.313965	
-0.312195	
-0.313599	
-0.31488	
-0.317871	
-0.320007	
-0.321289	
-0.325317	
-0.328552	
-0.332214	
-0.334839	
-0.339966	
-0.343567	
-0.348206	
-0.352783	
-0.358215	
-0.36322	
-0.368469	
-0.373596	
-0.379578	
-0.385254	
-0.39093	
-0.395752	
-0.401672	
-0.407043	
-0.410156	
-0.414673	
-0.416748	
-0.42041	
-0.42157	
-0.424805	
-0.427124	
-0.428955	
-0.428711	
-0.430603	
-0.431702	
-0.431763	
-0.430908	
-0.42981	
-0.429016	
-0.427612	
-0.427368	
-0.427063	
-0.427246	
-0.42627	
-0.427002	
-0.427185	
-0.425903	
-0.425171	
-0.425049	
-0.424927	
-0.422791	
-0.423218	
-0.422119	
-0.420349	
-0.420105	
-0.419128	
-0.417542	
-0.414673	
-0.413147	
-0.410461	
-0.407166	
-0.40387	
-0.400574	
-0.395569	
-0.391296	
-0.387573	
-0.383057	
-0.37854	
-0.372864	
-0.368286	
-0.362061	
-0.355469	
-0.349609	
-0.343445	
-0.336609	
-0.329651	
-0.323853	
-0.318298	
-0.313049	
-0.307861	
-0.303833	
-0.299316	
-0.29541	
-0.293213	
-0.290894	
-0.288574	
-0.28656	
-0.286133	
-0.285828	
-0.286011	
-0.286621	
-0.288147	
-0.28894	
-0.290771	
-0.292786	
-0.294983	
-0.297363	
-0.300842	
-0.303284	
-0.307617	
-0.311707	
-0.314636	
-0.317993	
-0.320618	
-0.324341	
-0.325806	
-0.328796	
-0.331848	
-0.335327	
-0.337646	
-0.340515	
-0.342651	
-0.345215	
-0.347107	
-0.349548	
-0.351868	
-0.354065	
-0.355286	
-0.357056	
-0.358398	
-0.360718	
-0.363159	
-0.364258	
-0.367065	
-0.368713	
-0.370483	
-0.371277	
-0.373535	
-0.375183	
-0.377625	
-0.380188	
-0.382568	
-0.385498	
-0.386841	
-0.389954	
-0.390869	
-0.392883	
-0.39386	
-0.393982	
-0.395203	
-0.396301	
-0.397217	
-0.397766	
-0.39856	
-0.398376	
-0.398987	
-0.398926	
-0.398804	
-0.398987	
-0.397766	
-0.397217	
-0.398193	
-0.397888	
-0.397461	
-0.398376	
-0.39679	
-0.397095	
-0.397278	
-0.396667	
-0.396118	
-0.394836	
-0.394958	
-0.395264	
-0.395325	
-0.395142	
-0.395325	
-0.394653	
-0.395142	
-0.395325	
-0.395874	
-0.395508	
-0.395142	
-0.394226	
-0.395203	
-0.395142	
-0.395569	
-0.395447	
-0.394592	
-0.394531	
-0.394653	
-0.394592	
-0.394409	
-0.392822	
-0.392639	
-0.39325	
-0.393188	
-0.393311	
-0.393616	
-0.392334	
-0.392639	
-0.392639	
-0.391907	
-0.392334	
-0.390381	
-0.390808	
-0.390625	
-0.390625	
-0.389709	
-0.390259	
-0.390137	
-0.390381	
-0.390137	
-0.390137	
-0.390808	
-0.389771	
-0.390381	
-0.390198	
-0.390747	
-0.391479	
-0.391113	
-0.391357	
-0.392212	
-0.39209	
-0.391602	
-0.391235	
-0.390686	
-0.391785	
-0.390991	
-0.39209	
-0.392761	
-0.392517	
-0.391907	
-0.392761	
-0.391785	
-0.391663	
-0.390381	
-0.390198	
-0.39032	
-0.390625	
-0.390686	
-0.390198	
-0.390442	
-0.389771	
-0.38916	
-0.388367	
-0.38916	
-0.386719	
-0.386597	
-0.386353	
-0.386169	
-0.386292	
-0.385681	
-0.386108	
-0.386658	
-0.387207	
-0.385742	
-0.386536	
-0.384888	
-0.386414	
-0.385559	
-0.386414	
-0.387085	
-0.386597	
-0.386658	
-0.387146	
-0.386658	
-0.386414	
-0.386292	
-0.385376	
-0.386536	
-0.385864	
-0.386536	
-0.386902	
-0.386841	
-0.387268	
-0.388245	
-0.387939	
-0.387634	
-0.38739	
-0.387329	
-0.388123	
-0.388428	
-0.389404	
-0.388916	
-0.389404	
-0.39032	
-0.392456	
-0.391235	
-0.391846	
-0.391602	
-0.391296	
-0.392822	
-0.392456	
-0.394348	
-0.394287	
-0.394836	
-0.395142	
-0.396301	
-0.395264	
-0.395508	
-0.395386	
-0.39447	
-0.395386	
-0.394592	
-0.396057	
-0.395996	
-0.395691	
-0.395752	
-0.39679	
-0.396057	
-0.395813	
-0.39563	
-0.39447	
-0.395386	
-0.394836	
-0.395081	
-0.394958	
-0.394653	
-0.394409	
-0.394775	
-0.394897	
-0.39325	
-0.393677	
-0.392273	
-0.392578	
-0.392273	
-0.392822	
-0.392151	
-0.391968	
-0.391174	
-0.390686	
-0.390869	
-0.389954	
-0.390137	
-0.388489	
-0.389709	
-0.389038	
-0.389648	
-0.389404	
-0.389404	
-0.389282	
-0.388977	
-0.390747	
-0.390015	
-0.390381	
-0.387756	
-0.389465	
-0.390137	
-0.390381	
-0.390259	
-0.390442	
-0.390381	
-0.39093	
-0.391418	
-0.391418	
-0.392029	
-0.389282	
-0.392029	
-0.392273	
-0.393005	
-0.392883	
-0.392761	
-0.392761	
-0.393921	
-0.393738	
-0.393494	
-0.39386	
-0.391724	
-0.393311	
-0.393372	
-0.393738	
-0.393677	
-0.394104	
-0.394104	
-0.395447	
-0.394409	
-0.394836	
-0.394531	
-0.393494	
-0.394592	
-0.393555	
-0.394897	
-0.394409	
-0.394714	
-0.394775	
-0.396484	
-0.395264	
-0.395447	
-0.395142	
-0.395691	
-0.394836	
-0.394714	
-0.395447	
-0.394714	
-0.394409	
-0.394714	
-0.396729	
-0.39447	
-0.394714	
-0.393982	
-0.394897	
-0.394592	
-0.394287	
-0.394897	
-0.394653	
-0.394714	
-0.394653	
-0.396667	
-0.39447	
-0.394348	
-0.393921	
-0.394104	
-0.393677	
-0.393372	
-0.394592	
-0.394226	
-0.394226	
-0.393921	
-0.396057	
-0.39386	
-0.394348	
-0.393677	
-0.394104	
-0.394531	
-0.393677	
-0.395264	
-0.395447	
-0.396057	
-0.39624	
-0.398865	
-0.396729	
-0.396851	
-0.397766	
-0.398071	
-0.397827	
-0.397522	
-0.39801	
-0.39856	
-0.398804	
-0.399231	
-0.399109	
-0.398621	
-0.39917	
-0.398865	
-0.398743	
-0.398438	
-0.39801	
-0.398315	
-0.398743	
-0.397644	
-0.397583	
-0.397827	
-0.397766	
-0.397461	
-0.397217	
-0.396362	
-0.397278	
-0.39679	
-0.396729	
-0.397766	
-0.396484	
-0.396851	
-0.397034	
-0.396423	
-0.396484	
-0.395874	
-0.394043	
-0.395386	
-0.394775	
-0.395203	
-0.395386	
-0.394409	
-0.394043	
-0.393616	
-0.393005	
-0.392456	
-0.392334	
-0.389526	
-0.390869	
-0.390076	
-0.389648	
-0.390137	
-0.388672	
-0.388489	
-0.388062	
-0.388367	
-0.388367	
-0.388306	
-0.387329	
-0.388733	
-0.388611	
-0.388916	
-0.389343	
-0.388733	
-0.389221	
-0.389343	
-0.389893	
-0.390198	
-0.390137	
-0.389771	
-0.390808	
-0.390991	
-0.391663	
-0.391846	
-0.391663	
-0.391785	
-0.392029	
-0.392944	
-0.393677	
-0.393311	
-0.393494	
-0.394897	
-0.395142	
-0.395508	
-0.395813	
-0.395813	
-0.39563	
-0.395813	
-0.396484	
-0.396484	
-0.396057	
-0.395325	
-0.396667	
-0.3974	
-0.396545	
-0.397827	
-0.397339	
-0.397827	
-0.397522	
-0.397705	
-0.397461	
-0.397522	
-0.396301	
-0.397034	
-0.397278	
-0.395996	
-0.39801	
-0.397156	
-0.397156	
-0.397522	
-0.397888	
-0.397095	
-0.396729	
-0.395813	
-0.396362	
-0.395996	
-0.394531	
-0.396301	
-0.395203	
-0.395203	
-0.395447	
-0.395874	
-0.394714	
-0.39447	
-0.393311	
-0.394409	
-0.394165	
-0.393005	
-0.393982	
-0.39386	
-0.393738	
-0.394226	
-0.39502	
-0.393738	
-0.393616	
-0.393066	
-0.394409	
-0.394836	
-0.39386	
-0.39502	
-0.394775	
-0.395203	
-0.395203	
-0.396179	
-0.395386	
-0.395935	
-0.394348	
-0.396179	
-0.396729	
-0.395813	
-0.397034	
-0.397888	
-0.397583	
-0.397583	
-0.397644	
-0.397034	
-0.397095	
-0.39624	
-0.397095	
-0.397034	
-0.395996	
-0.397034	
-0.396912	
-0.39624	
-0.396484	
-0.397461	
-0.396301	
-0.39679	
-0.397034	
-0.395813	
-0.396606	
-0.39624	
-0.39679	
-0.3974	
-0.396301	
-0.397034	
-0.397949	
-0.396912	
-0.396484	
-0.396851	
-0.395447	
-0.396423	
-0.396484	
-0.396667	
-0.396851	
-0.395874	
-0.395752	
-0.396484	
-0.395935	
-0.394958	
-0.394165	
-0.393616	
-0.394226	
-0.39325	
-0.39325	
-0.392883	
-0.391968	
-0.392212	
-0.392151	
-0.392273	
-0.390991	
-0.390686	
-0.389465	
-0.390686	
-0.39093	
-0.389954	
-0.391052	
-0.39093	
-0.390686	
-0.391296	
-0.391418	
-0.390808	
-0.390442	
-0.389526	
-0.391296	
-0.391357	
-0.39032	
-0.391907	
-0.392456	
-0.392334	
-0.392273	
-0.392456	
-0.392639	
-0.392578	
-0.391357	
-0.392944	
-0.392944	
-0.393372	
-0.39386	
-0.394897	
-0.394592	
-0.395325	
-0.396667	
-0.396179	
-0.396729	
-0.396362	
-0.396606	
-0.397217	
-0.396912	
-0.397522	
-0.39801	
-0.397461	
-0.398071	
-0.399292	
-0.398499	
-0.397522	
-0.397461	
-0.396912	
-0.397766	
-0.3974	
-0.397156	
-0.398621	
-0.397278	
-0.396973	
-0.398315	
-0.397644	
-0.396667	
-0.396301	
-0.395874	
-0.395813	
-0.395386	
-0.394958	
-0.395325	
-0.394958	
-0.395325	
-0.395752	
-0.395142	
-0.394104	
-0.394043	
-0.394165	
-0.394287	
-0.393982	
-0.394043	
-0.394409	
-0.393616	
-0.393616	
-0.394043	
-0.393738	
-0.393311	
-0.393127	
-0.392883	
-0.39325	
-0.393188	
-0.393066	
-0.393494	
-0.392944	
-0.392944	
-0.393311	
-0.392151	
-0.392639	
-0.392822	
-0.392395	
-0.392578	
-0.393311	
-0.3927	
-0.393799	
-0.394226	
-0.394165	
-0.394104	
-0.393616	
-0.394165	
-0.393677	
-0.392517	
-0.392639	
-0.393799	
-0.393616	
-0.39386	
-0.393494	
-0.393494	
-0.393616	
-0.393555	
-0.394775	
-0.393677	
-0.392761	
-0.393555	
-0.394287	
-0.393555	
-0.393738	
-0.393799	
-0.394287	
-0.39447	
-0.395203	
-0.394897	
-0.394165	
-0.394348	
-0.394104	
-0.393799	
-0.393799	
-0.393799	
-0.393799	
-0.393188	
-0.39325	
-0.393005	
-0.3927	
-0.391602	
-0.391479	
-0.390869	
-0.390381	
-0.390381	
-0.390564	
-0.390747	
-0.389526	
-0.389648	
-0.389465	
-0.389648	
-0.389221	
-0.389221	
-0.38916	
-0.38916	
-0.389771	
-0.390015	
-0.390808	
-0.389893	
-0.390442	
-0.390747	
-0.390625	
-0.390442	
-0.390747	
-0.389282	
-0.389771	
-0.390442	
-0.390808	
-0.391663	
-0.391479	
-0.391235	
-0.391418	
-0.392029	
-0.39209	
-0.391846	
-0.390564	
-0.391418	
-0.392395	
-0.391724	
-0.394226	
-0.39325	
-0.393372	
-0.394409	
-0.39624	
-0.396179	
-0.395813	
-0.395813	
-0.396973	
-0.397705	
-0.397339	
-0.398804	
-0.39917	
-0.399841	
-0.39978	
-0.400635	
-0.400574	
-0.40033	
-0.399475	
-0.399231	
-0.399658	
-0.398926	
-0.399963	
-0.399414	
-0.39917	
-0.398804	
-0.398865	
-0.398438	
-0.397888	
-0.398438	
-0.397461	
-0.396851	
-0.396545	
-0.397217	
-0.397339	
-0.396667	
-0.396118	
-0.396118	
-0.395996	
-0.394836	
-0.394836	
-0.393188	
-0.3927	
-0.393372	
-0.393921	
-0.393188	
-0.393127	
-0.392822	
-0.392334	
-0.392944	
-0.3927	
-0.392334	
-0.391235	
-0.391296	
-0.391907	
-0.391846	
-0.392151	
-0.391602	
-0.391785	
-0.39093	
-0.391846	
-0.392029	
-0.391968	
-0.390442	
-0.391113	
-0.392273	
-0.391785	
-0.39325	
-0.392395	
-0.391968	
-0.391541	
-0.393616	
-0.392761	
-0.392029	
-0.391846	
-0.391907	
-0.393005	
-0.3927	
-0.39386	
-0.393188	
-0.393555	
-0.39325	
-0.395264	
-0.393921	
-0.393433	
-0.39386	
-0.393494	
-0.393433	
-0.394226	
-0.395081	
-0.393982	
-0.393616	
-0.393921	
-0.395264	
-0.39447	
-0.394104	
-0.394409	
-0.393555	
-0.393494	
-0.393433	
-0.394348	
-0.393433	
-0.392273	
-0.392578	
-0.392822	
-0.392761	
-0.391418	
-0.390747	
-0.390625	
-0.390747	
-0.389832	
-0.39032	
-0.390076	
-0.389526	
-0.38916	
-0.389954	
-0.389526	
-0.389709	
-0.389771	
-0.388489	
-0.389221	
-0.390137	
-0.389526	
-0.390137	
-0.390076	
-0.389832	
-0.390381	
-0.390198	
-0.390259	
-0.389648	
-0.388306	
-0.389221	
-0.389648	
-0.389343	
-0.390076	
-0.389893	
-0.389587	
-0.389771	
-0.390564	
-0.390625	
-0.389587	
-0.38855	
-0.389343	
-0.389893	
-0.390198	
-0.390137	
-0.390381	
-0.390686	
-0.39093	
-0.3927	
-0.391968	
-0.391785	
-0.391541	
-0.392456	
-0.393005	
-0.39325	
-0.393738	
-0.393616	
-0.39386	
-0.393188	
-0.396301	
-0.395386	
-0.395203	
-0.394592	
-0.395203	
-0.394836	
-0.394958	
-0.395203	
-0.39502	
-0.394958	
-0.394592	
-0.396057	
-0.395081	
-0.394653	
-0.393921	
-0.394348	
-0.392944	
-0.393982	
-0.393738	
-0.393188	
-0.393433	
-0.39325	
-0.394043	
-0.393066	
-0.39325	
-0.391785	
-0.392578	
-0.391235	
-0.391235	
-0.390808	
-0.390381	
-0.390625	
-0.389648	
-0.390259	
-0.389221	
-0.389832	
-0.388489	
-0.389221	
-0.387756	
-0.388	
-0.387878	
-0.387878	
-0.388062	
-0.387024	
-0.387329	
-0.387512	
-0.387817	
-0.387512	
-0.388	
-0.387573	
-0.387573	
-0.387695	
-0.388306	
-0.388428	
-0.388489	
-0.387878	
-0.388672	
-0.389282	
-0.388794	
-0.387573	
-0.389832	
-0.390198	
-0.390137	
-0.390991	
-0.390808	
-0.390747	
-0.390442	
-0.392151	
-0.390808	
-0.39093	
-0.390137	
-0.390625	
-0.390198	
-0.390991	
-0.391479	
-0.391418	
-0.391357	
-0.391418	
-0.39325	
-0.391418	
-0.391602	
-0.391663	
-0.391418	
-0.390503	
-0.391663	
-0.392029	
-0.392334	
-0.391785	
-0.39209	
-0.393738	
-0.392212	
-0.393066	
-0.392151	
-0.392212	
-0.391541	
-0.391724	
-0.39093	
-0.391479	
-0.391418	
-0.391479	
-0.392395	
-0.391846	
-0.39209	
-0.39093	
-0.391235	
-0.390442	
-0.391174	
-0.391296	
-0.391479	
-0.39093	
-0.390625	
-0.391174	
-0.390747	
-0.391479	
-0.390503	
-0.39032	
-0.390381	
-0.390503	
-0.390625	
-0.390198	
-0.390015	
-0.390198	
-0.38916	
-0.39093	
-0.390747	
-0.390076	
-0.389038	
-0.390564	
-0.390869	
-0.391418	
-0.391541	
-0.391907	
-0.392273	
-0.392273	
-0.394409	
-0.393188	
-0.393311	
-0.3927	
-0.393982	
-0.393616	
-0.394836	
-0.395142	
-0.394897	
-0.394775	
-0.394653	
-0.39679	
-0.395142	
-0.39502	
-0.394287	
-0.394897	
-0.393066	
-0.394226	
-0.39386	
-0.393738	
-0.39386	
-0.393921	
-0.395142	
-0.393799	
-0.39447	
-0.392883	
-0.393921	
-0.39325	
-0.39325	
-0.393372	
-0.393005	
-0.393066	
-0.392456	
-0.393494	
-0.39209	
-0.392456	
-0.391479	
-0.392395	
-0.391174	
-0.390991	
-0.391052	
-0.390442	
-0.390076	
-0.389587	
-0.389282	
-0.388672	
-0.388062	
-0.387573	
-0.387085	
-0.386047	
-0.385376	
-0.385437	
-0.385132	
-0.384338	
-0.384583	
-0.383911	
-0.384827	
-0.385071	
-0.384521	
-0.382935	
-0.38501	
-0.383972	
-0.384827	
-0.385986	
-0.385254	
-0.385315	
-0.385498	
-0.387024	
-0.386292	
-0.387268	
-0.384949	
-0.386719	
-0.386719	
-0.387146	
-0.388	
-0.388062	
-0.388428	
-0.38855	
-0.390564	
-0.390259	
-0.390747	
-0.389526	
-0.390137	
-0.390381	
-0.391174	
-0.39093	
-0.391113	
-0.391357	
-0.391663	
-0.393066	
-0.391724	
-0.391968	
-0.391235	
-0.392456	
-0.392029	
-0.392212	
-0.391541	
-0.392517	
-0.392273	
-0.392395	
-0.392273	
-0.391785	
-0.392578	
-0.391968	
-0.392517	
-0.39209	
-0.391052	
-0.391785	
-0.392578	
-0.392334	
-0.39209	
-0.391907	
-0.392151	
-0.392151	
-0.391602	
-0.391357	
-0.391113	
-0.390198	
-0.390747	
-0.391296	
-0.390564	
-0.390564	
-0.390137	
-0.391052	
-0.390259	
-0.390747	
-0.389954	
-0.389893	
-0.389648	
-0.389587	
-0.390564	
-0.389526	
-0.389343	
-0.389832	
-0.390564	
-0.390564	
-0.390686	
-0.390076	
-0.390625	
-0.390381	
-0.391235	
-0.391418	
-0.391357	
-0.391357	
-0.391663	
-0.393005	
-0.392029	
-0.393066	
-0.392334	
-0.393372	
-0.393433	
-0.392578	
-0.394165	
-0.394165	
-0.394226	
-0.394348	
-0.395142	
-0.393799	
-0.393433	
-0.393066	
-0.393555	
-0.393433	
-0.391846	
-0.393066	
-0.393677	
-0.393494	
-0.393616	
-0.393494	
-0.393799	
-0.393921	
-0.394226	
-0.393494	
-0.393616	
-0.39325	
-0.393799	
-0.394836	
-0.393982	
-0.394348	
-0.394165	
-0.394287	
-0.393677	
-0.394104	
-0.392395	
-0.393127	
-0.392883	
-0.392456	
-0.39386	
-0.393127	
-0.392822	
-0.392151	
-0.392761	
-0.391357	
-0.391357	
-0.389954	
-0.390259	
-0.389709	
-0.387878	
-0.389404	
-0.388794	
-0.388733	
-0.388245	
-0.389587	
-0.387756	
-0.388	
-0.387756	
-0.387878	
-0.388123	
-0.387024	
-0.388306	
-0.388306	
-0.388184	
-0.38855	
-0.389404	
-0.388733	
-0.388916	
-0.390015	
-0.388977	
-0.389221	
-0.388916	
-0.389893	
-0.389709	
-0.390015	
-0.390137	
-0.390381	
-0.390442	
-0.391113	
-0.391663	
-0.391235	
-0.392273	
-0.391479	
-0.39209	
-0.393127	
-0.393555	
-0.393921	
-0.393738	
-0.394165	
-0.394287	
-0.395142	
-0.394592	
-0.394836	
-0.394714	
-0.394043	
-0.396118	
-0.395447	
-0.395203	
-0.395264	
-0.395569	
-0.395386	
-0.395508	
-0.393799	
-0.395142	
-0.394775	
-0.392395	
-0.39563	
-0.39447	
-0.394592	
-0.394165	
-0.394958	
-0.393066	
-0.393311	
-0.392883	
-0.392395	
-0.392578	
-0.391724	
-0.392639	
-0.392212	
-0.392212	
-0.392273	
-0.392944	
-0.391602	
-0.391541	
-0.392456	
-0.391602	
-0.391541	
-0.390625	
-0.391418	
-0.391235	
-0.391052	
-0.391113	
-0.392517	
-0.391113	
-0.391113	
-0.391479	
-0.39093	
-0.390808	
-0.390381	
-0.390747	
-0.390625	
-0.390686	
-0.390625	
-0.391174	
-0.391235	
-0.39093	
-0.391174	
-0.390808	
-0.391724	
-0.391235	
-0.390198	
-0.391418	
-0.391724	
-0.391541	
-0.391357	
-0.392395	
-0.392517	
-0.391785	
-0.391174	
-0.391968	
-0.391602	
-0.390686	
-0.392639	
-0.392212	
-0.391846	
-0.391296	
-0.393738	
-0.391968	
-0.392151	
-0.392029	
-0.392273	
-0.392944	
-0.391785	
-0.393005	
-0.392456	
-0.392578	
-0.391907	
-0.393555	
-0.392639	
-0.392273	
-0.392517	
-0.391724	
-0.391724	
-0.391113	
-0.390991	
-0.390564	
-0.389832	
-0.389465	
-0.390259	
-0.388855	
-0.388489	
-0.38855	
-0.388367	
-0.387512	
-0.387512	
-0.387634	
-0.388	
-0.387451	
-0.387329	
-0.387939	
-0.387634	
-0.388062	
-0.388062	
-0.388	
-0.388123	
-0.388123	
-0.38855	
-0.388306	
-0.388367	
-0.388367	
-0.388916	
-0.389099	
-0.388794	
-0.389038	
-0.387573	
-0.389038	
-0.38916	
-0.389038	
-0.389404	
-0.389648	
-0.389709	
-0.39032	
-0.391907	
-0.390442	
-0.390991	
-0.391113	
-0.391174	
-0.391846	
-0.391174	
-0.391846	
-0.392883	
-0.393738	
-0.393127	
-0.39624	
-0.395935	
-0.396118	
-0.396912	
-0.3974	
-0.3974	
-0.397156	
-0.397705	
-0.397644	
-0.398376	
-0.397278	
-0.398621	
-0.397949	
-0.397644	
-0.398132	
-0.398315	
-0.397644	
-0.396973	
-0.397583	
-0.396606	
-0.39624	
-0.395996	
-0.395935	
-0.395569	
-0.395325	
-0.395508	
-0.394287	
-0.394775	
-0.394592	
-0.393982	
-0.393555	
-0.393188	
-0.392578	
-0.3927	
-0.393433	
-0.392212	
-0.39209	
-0.390808	
-0.391052	
-0.390808	
-0.390015	
-0.390686	
-0.390442	
-0.390442	
-0.390625	
-0.391663	
-0.389954	
-0.390503	
-0.390625	
-0.389893	
-0.389771	
-0.389282	
-0.389709	
-0.389832	
-0.389832	
-0.389038	
-0.390747	
-0.390503	
-0.390808	
-0.390869	
-0.389893	
-0.390259	
-0.390198	
-0.390747	
-0.39032	
-0.390442	
-0.389771	
-0.391174	
-0.391296	
-0.391357	
-0.391418	
-0.390259	
-0.391479	
-0.391418	
-0.390869	
-0.392029	
-0.391602	
-0.391296	
-0.392395	
-0.393555	
-0.39209	
-0.392212	
-0.392029	
-0.392395	
-0.392578	
-0.391174	
-0.392212	
-0.392273	
-0.391968	
-0.3927	
-0.393616	
-0.392517	
-0.391968	
-0.392517	
-0.390869	
-0.390869	
-0.391235	
-0.391052	
-0.390625	
-0.389221	
-0.389465	
-0.390015	
-0.389221	
-0.388489	
-0.389648	
-0.387329	
-0.387939	
-0.388062	
-0.387817	
-0.387939	
-0.387939	
-0.388489	
-0.388794	
-0.38855	
-0.388367	
-0.389221	
-0.387451	
-0.388489	
-0.389099	
-0.388062	
-0.388123	
-0.388245	
-0.388184	
-0.388306	
-0.388733	
-0.387878	
-0.388184	
-0.386292	
-0.387634	
-0.388245	
-0.387268	
-0.387878	
-0.387817	
-0.388306	
-0.388733	
-0.389709	
-0.388489	
-0.388733	
-0.388123	
-0.389099	
-0.388916	
-0.387512	
-0.389526	
-0.390015	
-0.390381	
-0.390991	
-0.392883	
-0.391479	
-0.392334	
-0.392395	
-0.392639	
-0.3927	
-0.391724	
-0.393372	
-0.393127	
-0.393555	
-0.393738	
-0.394958	
-0.393494	
-0.393799	
-0.394836	
-0.39325	
-0.393372	
-0.392639	
-0.393311	
-0.392761	
-0.391663	
-0.392822	
-0.393738	
-0.392883	
-0.392456	
	
