E:\DOCUMENTS AND SETTINGS\JPOTAS\MEUS DOCUMENTOS\UFRJ\RSCI-BM 12 WK SERIES\070719-RSCI-BM-02\RSCI-BM-02-LEMG\070719-RSCI-BM-02-LEMG-0013.ACQ
0.025000 msec/sample
1 channel
Analog input
Volts
CH1	
2000	
-0.394043	
-0.393127	
-0.394043	
-0.393738	
-0.393372	
-0.394043	
-0.393616	
-0.392517	
-0.393433	
-0.393921	
-0.393799	
-0.39386	
-0.393188	
-0.393982	
-0.394043	
-0.394104	
-0.394653	
-0.39447	
-0.393738	
-0.393921	
-0.394958	
-0.395142	
-0.395203	
-0.395142	
-0.395569	
-0.395386	
-0.396301	
-0.39679	
-0.395935	
-0.395447	
-0.395813	
-0.395569	
-0.395691	
-0.39563	
-0.396057	
-0.39563	
-0.395264	
-0.395874	
-0.396179	
-0.395813	
-0.39447	
-0.394958	
-0.39502	
-0.395203	
-0.395813	
-0.395752	
-0.395508	
-0.395447	
-0.39563	
-0.396057	
-0.395752	
-0.394165	
-0.394958	
-0.395325	
-0.394714	
-0.394897	
-0.394775	
-0.394958	
-0.394653	
-0.395264	
-0.394897	
-0.395386	
-0.393555	
-0.394287	
-0.394165	
-0.39447	
-0.394226	
-0.394409	
-0.394409	
-0.394531	
-0.395081	
-0.393555	
-0.39502	
-0.393433	
-0.393982	
-0.393921	
-0.394165	
-0.394531	
-0.394287	
-0.394653	
-0.394409	
-0.395325	
-0.39386	
-0.395264	
-0.393921	
-0.394531	
-0.393433	
-0.39447	
-0.394226	
-0.394653	
-0.394531	
-0.394287	
-0.394653	
-0.394348	
-0.395874	
-0.393494	
-0.39447	
-0.393677	
-0.393799	
-0.394348	
-0.394409	
-0.394409	
-0.394897	
-0.395386	
-0.394958	
-0.395935	
-0.39386	
-0.394714	
-0.394409	
-0.394897	
-0.39447	
-0.394836	
-0.394226	
-0.394897	
-0.394836	
-0.394348	
-0.39563	
-0.39325	
-0.394348	
-0.394104	
-0.394958	
-0.39447	
-0.394043	
-0.394348	
-0.394653	
-0.394348	
-0.394226	
-0.395264	
-0.393494	
-0.394653	
-0.394409	
-0.395569	
-0.395203	
-0.39502	
-0.394348	
-0.394897	
-0.395203	
-0.394653	
-0.395203	
-0.393555	
-0.394836	
-0.394714	
-0.395691	
-0.394958	
-0.394958	
-0.395264	
-0.395569	
-0.395386	
-0.39502	
-0.394653	
-0.394043	
-0.395325	
-0.395264	
-0.395386	
-0.395142	
-0.395325	
-0.395813	
-0.39624	
-0.396179	
-0.395935	
-0.394958	
-0.39502	
-0.39624	
-0.395447	
-0.394653	
-0.395874	
-0.396301	
-0.396118	
-0.396729	
-0.396301	
-0.396362	
-0.395935	
-0.395996	
-0.396423	
-0.396729	
-0.395813	
-0.396912	
-0.397034	
-0.396973	
-0.39801	
-0.397644	
-0.397156	
-0.397217	
-0.398438	
-0.398254	
-0.397644	
-0.397217	
-0.397888	
-0.39801	
-0.397827	
-0.399475	
-0.398499	
-0.398071	
-0.397522	
-0.399231	
-0.398071	
-0.397888	
-0.387695	
-0.385681	
-0.386658	
-0.386841	
-0.386963	
-0.387695	
-0.398621	
-0.399536	
-0.399475	
-0.397766	
-0.397827	
-0.3974	
-0.397156	
-0.396851	
-0.396973	
-0.396057	
-0.396912	
-0.396423	
-0.395874	
-0.396423	
-0.395874	
-0.395752	
-0.39563	
-0.395752	
-0.395691	
-0.395935	
-0.395508	
-0.396423	
-0.395691	
-0.396118	
-0.395325	
-0.396606	
-0.396362	
-0.396606	
-0.396301	
-0.397278	
-0.397095	
-0.397156	
-0.397827	
-0.397522	
-0.397583	
-0.396912	
-0.398193	
-0.397827	
-0.397888	
-0.396729	
-0.398315	
-0.398193	
-0.397949	
-0.398743	
-0.397217	
-0.396118	
-0.394592	
-0.395813	
-0.393555	
-0.393005	
-0.391724	
-0.390991	
-0.390015	
-0.389221	
-0.390137	
-0.389893	
-0.390503	
-0.391968	
-0.396912	
-0.398438	
-0.40155	
-0.40448	
-0.408264	
-0.411621	
-0.415833	
-0.421204	
-0.425049	
-0.430481	
-0.435913	
-0.443665	
-0.44812	
-0.453857	
-0.458069	
-0.463135	
-0.468079	
-0.471619	
-0.476563	
-0.47876	
-0.48175	
-0.48291	
-0.484741	
-0.485168	
-0.484985	
-0.484802	
-0.485352	
-0.485046	
-0.484131	
-0.484985	
-0.485046	
-0.485107	
-0.485352	
-0.487	
-0.488098	
-0.489807	
-0.492126	
-0.494019	
-0.496521	
-0.498718	
-0.501831	
-0.505188	
-0.508301	
-0.511414	
-0.51355	
-0.514954	
-0.516296	
-0.516968	
-0.516968	
-0.516235	
-0.514465	
-0.512512	
-0.509094	
-0.505249	
-0.501953	
-0.495789	
-0.481079	
-0.471924	
-0.466858	
-0.461487	
-0.456421	
-0.45166	
-0.458862	
-0.456482	
-0.452698	
-0.451294	
-0.448547	
-0.446167	
-0.444336	
-0.442627	
-0.440857	
-0.438843	
-0.437439	
-0.434937	
-0.432068	
-0.428223	
-0.425232	
-0.420288	
-0.415405	
-0.410156	
-0.403992	
-0.398376	
-0.392639	
-0.385559	
-0.378845	
-0.372009	
-0.364258	
-0.355042	
-0.348633	
-0.339417	
-0.331177	
-0.322632	
-0.314331	
-0.305847	
-0.29834	
-0.291199	
-0.283325	
-0.276611	
-0.269043	
-0.266052	
-0.260986	
-0.257629	
-0.2547	
-0.254272	
-0.254944	
-0.254272	
-0.256592	
-0.258057	
-0.260315	
-0.263916	
-0.266113	
-0.269226	
-0.273132	
-0.276611	
-0.281006	
-0.285522	
-0.291748	
-0.295349	
-0.300903	
-0.306763	
-0.315735	
-0.321838	
-0.329285	
-0.336914	
-0.344421	
-0.352051	
-0.359802	
-0.366699	
-0.373657	
-0.380737	
-0.388855	
-0.395264	
-0.402649	
-0.408508	
-0.415466	
-0.421631	
-0.428589	
-0.434509	
-0.438721	
-0.44281	
-0.444641	
-0.450073	
-0.451538	
-0.45343	
-0.455872	
-0.456909	
-0.457825	
-0.458862	
-0.460388	
-0.462585	
-0.464478	
-0.467407	
-0.468262	
-0.469971	
-0.471802	
-0.475159	
-0.478943	
-0.482361	
-0.487488	
-0.489014	
-0.49176	
-0.492676	
-0.495728	
-0.495789	
-0.494385	
-0.49292	
-0.48938	
-0.486145	
-0.482544	
-0.478577	
-0.473572	
-0.469421	
-0.463623	
-0.461121	
-0.45697	
-0.453369	
-0.451355	
-0.447388	
-0.445374	
-0.443542	
-0.441895	
-0.438904	
-0.43689	
-0.433838	
-0.432922	
-0.429871	
-0.427002	
-0.425171	
-0.421448	
-0.417908	
-0.414124	
-0.411194	
-0.405945	
-0.401306	
-0.396362	
-0.392456	
-0.386047	
-0.380188	
-0.374634	
-0.367798	
-0.361816	
-0.354736	
-0.349243	
-0.341187	
-0.334656	
-0.327393	
-0.323059	
-0.317688	
-0.312439	
-0.308289	
-0.303284	
-0.299805	
-0.296509	
-0.294556	
-0.291809	
-0.290222	
-0.288818	
-0.2901	
-0.28949	
-0.290527	
-0.292114	
-0.294861	
-0.296875	
-0.299133	
-0.301575	
-0.304138	
-0.30658	
-0.310059	
-0.313477	
-0.315552	
-0.31897	
-0.321655	
-0.32489	
-0.327515	
-0.332336	
-0.333923	
-0.336609	
-0.339539	
-0.342407	
-0.345642	
-0.347229	
-0.34906	
-0.350525	
-0.353699	
-0.356079	
-0.358276	
-0.359802	
-0.361511	
-0.362549	
-0.365967	
-0.367432	
-0.369385	
-0.370422	
-0.372498	
-0.373901	
-0.376892	
-0.377747	
-0.378967	
-0.38031	
-0.382141	
-0.383728	
-0.383789	
-0.384888	
-0.385803	
-0.386292	
-0.386963	
-0.388062	
-0.387085	
-0.387756	
-0.387817	
-0.388	
-0.389587	
-0.388367	
-0.389526	
-0.388916	
-0.389893	
-0.390869	
-0.391541	
-0.390808	
-0.391235	
-0.391235	
-0.392029	
-0.392151	
-0.393188	
-0.392212	
-0.391235	
-0.391846	
-0.392944	
-0.392151	
-0.392151	
-0.39209	
-0.390198	
-0.391541	
-0.391235	
-0.391418	
-0.390686	
-0.390442	
-0.389893	
-0.391479	
-0.389832	
-0.389832	
-0.389954	
-0.388733	
-0.389221	
-0.388123	
-0.388245	
-0.388	
-0.388123	
-0.386536	
-0.388367	
-0.38739	
-0.387512	
-0.386902	
-0.387207	
-0.387451	
-0.386658	
-0.387024	
-0.386475	
-0.386353	
-0.385376	
-0.387634	
-0.386414	
-0.386353	
-0.386047	
-0.386108	
-0.386719	
-0.38501	
-0.38562	
-0.38562	
-0.385864	
-0.386475	
-0.387085	
-0.385864	
-0.385986	
-0.38446	
-0.386353	
-0.386841	
-0.387085	
-0.385925	
-0.385742	
-0.385254	
-0.38678	
-0.386169	
-0.386902	
-0.386841	
-0.386108	
-0.386658	
-0.385864	
-0.386414	
-0.386353	
-0.38678	
-0.387451	
-0.388428	
-0.386597	
-0.387817	
-0.385742	
-0.387207	
-0.38678	
-0.387329	
-0.386841	
-0.385437	
-0.385132	
-0.386902	
-0.386536	
-0.386719	
-0.38623	
-0.385681	
-0.387329	
-0.386902	
-0.386597	
-0.386292	
-0.386108	
-0.386414	
-0.387329	
-0.386475	
-0.387329	
-0.385315	
-0.386719	
-0.387024	
-0.387756	
-0.386719	
-0.385986	
-0.386353	
-0.387512	
-0.38739	
-0.387329	
-0.387024	
-0.38623	
-0.387695	
-0.387695	
-0.387817	
-0.387878	
-0.388184	
-0.388855	
-0.390015	
-0.389404	
-0.389221	
-0.388611	
-0.388123	
-0.389038	
-0.389221	
-0.389099	
-0.388733	
-0.388916	
-0.389038	
-0.389954	
-0.388916	
-0.389526	
-0.388672	
-0.387756	
-0.389282	
-0.389404	
-0.388916	
-0.388672	
-0.388794	
-0.389038	
-0.389954	
-0.389465	
-0.389587	
-0.389099	
-0.388977	
-0.389893	
-0.390137	
-0.389954	
-0.389954	
-0.390381	
-0.390564	
-0.391663	
-0.391663	
-0.391541	
-0.390747	
-0.390381	
-0.39209	
-0.39209	
-0.392212	
-0.392151	
-0.392151	
-0.391785	
-0.392639	
-0.392212	
-0.391785	
-0.39093	
-0.391052	
-0.391602	
-0.391663	
-0.391479	
-0.391235	
-0.391235	
-0.391052	
-0.392761	
-0.392517	
-0.392151	
-0.391418	
-0.390381	
-0.391296	
-0.391418	
-0.391479	
-0.391052	
-0.390503	
-0.390625	
-0.39209	
-0.391663	
-0.390991	
-0.390198	
-0.389893	
-0.391052	
-0.391541	
-0.391296	
-0.391052	
-0.390869	
-0.391296	
-0.391418	
-0.391296	
-0.391602	
-0.390808	
-0.390808	
-0.391968	
-0.391174	
-0.391052	
-0.390991	
-0.391541	
-0.391968	
-0.391785	
-0.391479	
-0.392395	
-0.391357	
-0.391113	
-0.391357	
-0.392334	
-0.391724	
-0.390625	
-0.390625	
-0.392395	
-0.392273	
-0.392212	
-0.391296	
-0.391602	
-0.391541	
-0.391357	
-0.391663	
-0.391602	
-0.391296	
-0.391846	
-0.392456	
-0.3927	
-0.392273	
-0.391785	
-0.391357	
-0.392578	
-0.392944	
-0.393127	
-0.392456	
-0.392883	
-0.393494	
-0.393127	
-0.392334	
-0.393372	
-0.392395	
-0.39209	
-0.392273	
-0.393127	
-0.392578	
-0.392212	
-0.392456	
-0.393005	
-0.392578	
-0.392151	
-0.3927	
-0.392578	
-0.3927	
-0.392273	
-0.393066	
-0.392578	
-0.392456	
-0.392578	
-0.393433	
-0.392761	
-0.392578	
-0.393494	
-0.3927	
-0.392883	
-0.39325	
-0.393921	
-0.3927	
-0.392578	
-0.392761	
-0.393921	
-0.393127	
-0.3927	
-0.393066	
-0.392639	
-0.392151	
-0.392761	
-0.393494	
-0.393005	
-0.393188	
-0.392029	
-0.393738	
-0.393188	
-0.393005	
-0.393433	
-0.393433	
-0.392395	
-0.392944	
-0.393616	
-0.393494	
-0.393127	
-0.392029	
-0.394287	
-0.393311	
-0.393982	
-0.393677	
-0.39325	
-0.392151	
-0.393616	
-0.394226	
-0.393738	
-0.393738	
-0.392944	
-0.394653	
-0.394287	
-0.394897	
-0.394409	
-0.394043	
-0.393494	
-0.394104	
-0.395691	
-0.394897	
-0.394531	
-0.39386	
-0.395203	
-0.395569	
-0.395996	
-0.395264	
-0.395447	
-0.394592	
-0.395203	
-0.397034	
-0.395874	
-0.395691	
-0.394775	
-0.396057	
-0.395935	
-0.395935	
-0.396606	
-0.395752	
-0.395752	
-0.395325	
-0.396545	
-0.395813	
-0.395447	
-0.395142	
-0.395447	
-0.395142	
-0.394714	
-0.394958	
-0.394165	
-0.394043	
-0.39386	
-0.394287	
-0.393494	
-0.393372	
-0.393616	
-0.393982	
-0.393555	
-0.39325	
-0.393921	
-0.393433	
-0.393311	
-0.3927	
-0.39386	
-0.393188	
-0.393127	
-0.394226	
-0.393738	
-0.394043	
-0.394104	
-0.394653	
-0.39386	
-0.394043	
-0.394043	
-0.395264	
-0.394836	
-0.394531	
-0.395325	
-0.395264	
-0.395081	
-0.395203	
-0.395996	
-0.394897	
-0.395386	
-0.395691	
-0.39563	
-0.395569	
-0.395386	
-0.396301	
-0.395752	
-0.39624	
-0.395508	
-0.396606	
-0.396057	
-0.396057	
-0.396057	
-0.396851	
-0.396362	
-0.396729	
-0.396423	
-0.396606	
-0.397278	
-0.396484	
-0.3974	
-0.396362	
-0.397095	
-0.396667	
-0.397461	
-0.397217	
-0.396912	
-0.396667	
-0.396729	
-0.397156	
-0.396423	
-0.396973	
-0.395447	
-0.395752	
-0.39563	
-0.396179	
-0.394836	
-0.395386	
-0.395447	
-0.395325	
-0.395142	
-0.395264	
-0.395996	
-0.394836	
-0.394775	
-0.395325	
-0.39624	
-0.395264	
-0.39563	
-0.395325	
-0.395142	
-0.395508	
-0.394714	
-0.395325	
-0.394714	
-0.394958	
-0.394958	
-0.396484	
-0.395142	
-0.395081	
-0.395081	
-0.394592	
-0.395386	
-0.394104	
-0.394836	
-0.394104	
-0.39447	
-0.394531	
-0.395935	
-0.394653	
-0.394653	
-0.394531	
-0.39447	
-0.394775	
-0.393494	
-0.394287	
-0.393616	
-0.393555	
-0.393372	
-0.39502	
-0.393616	
-0.393677	
-0.393982	
-0.393433	
-0.393738	
-0.392883	
-0.394104	
-0.393188	
-0.393677	
-0.393433	
-0.394409	
-0.393616	
-0.393616	
-0.393738	
-0.393738	
-0.394226	
-0.3927	
-0.394348	
-0.39386	
-0.393372	
-0.393005	
-0.394165	
-0.393188	
-0.393066	
-0.393188	
-0.392578	
-0.393188	
-0.391663	
-0.393127	
-0.392273	
-0.391968	
-0.392151	
-0.392761	
-0.391602	
-0.391968	
-0.391663	
-0.390869	
-0.391296	
-0.390442	
-0.391052	
-0.390686	
-0.391541	
-0.39093	
-0.392212	
-0.391479	
-0.391479	
-0.391663	
-0.391357	
-0.391663	
-0.390747	
-0.391602	
-0.391296	
-0.39093	
-0.390869	
-0.392029	
-0.391418	
-0.391174	
-0.391724	
-0.391296	
-0.391357	
-0.390808	
-0.391663	
-0.391541	
-0.391052	
-0.391663	
-0.392456	
-0.39209	
-0.391907	
-0.39209	
-0.391418	
-0.392212	
-0.391296	
-0.391724	
-0.391907	
-0.390808	
-0.391968	
-0.391846	
-0.392517	
-0.391968	
-0.392578	
-0.390991	
-0.392517	
-0.391479	
-0.391846	
-0.392151	
-0.390564	
-0.391785	
-0.391174	
-0.391663	
-0.391846	
-0.392151	
-0.390991	
-0.392151	
-0.391296	
-0.392029	
-0.391968	
-0.391052	
-0.391541	
-0.391907	
-0.392029	
-0.391846	
-0.391785	
-0.391113	
-0.391968	
-0.391418	
-0.392334	
-0.39209	
-0.391235	
-0.391907	
-0.391785	
-0.392639	
-0.392456	
-0.392578	
-0.391602	
-0.393127	
-0.391785	
-0.39209	
-0.392273	
-0.391968	
-0.392334	
-0.391602	
-0.392151	
-0.392334	
-0.392273	
-0.391052	
-0.391785	
-0.391907	
-0.392334	
-0.392395	
-0.391113	
-0.391846	
-0.390869	
-0.392395	
-0.392334	
-0.391602	
-0.390686	
-0.391968	
-0.391602	
-0.391907	
-0.391907	
-0.390686	
-0.391846	
-0.390991	
-0.392273	
-0.391663	
-0.390991	
-0.390686	
-0.391907	
-0.391357	
-0.391418	
-0.391846	
-0.390686	
-0.391724	
-0.390442	
-0.391663	
-0.391418	
-0.391174	
-0.390442	
-0.391113	
-0.390503	
-0.391174	
-0.391235	
-0.389771	
-0.391052	
-0.390442	
-0.391724	
-0.390625	
-0.390076	
-0.390198	
-0.390503	
-0.389526	
-0.390625	
-0.390442	
-0.389404	
-0.389954	
-0.389282	
-0.390991	
-0.390381	
-0.389648	
-0.389465	
-0.389709	
-0.388489	
-0.389221	
-0.389282	
-0.388672	
-0.388733	
-0.388367	
-0.389587	
-0.38855	
-0.388489	
-0.388184	
-0.388367	
-0.387329	
-0.388306	
-0.388855	
-0.387024	
-0.388	
-0.38739	
-0.388855	
-0.388062	
-0.387817	
-0.386292	
-0.387573	
-0.387024	
-0.387573	
-0.388428	
-0.386169	
-0.387573	
-0.387024	
-0.389282	
-0.387817	
-0.388245	
-0.386414	
-0.388184	
-0.387634	
-0.388184	
-0.388916	
-0.388306	
-0.389221	
-0.388977	
-0.390747	
-0.389893	
-0.390686	
-0.388733	
-0.390076	
-0.389343	
-0.389893	
-0.390442	
-0.389343	
-0.389954	
-0.389709	
-0.39093	
-0.389465	
-0.390076	
-0.388245	
-0.38916	
-0.389038	
-0.389648	
-0.389709	
-0.388672	
-0.388794	
-0.388672	
-0.389404	
-0.388733	
-0.388611	
-0.386719	
-0.38855	
-0.388245	
-0.388184	
-0.388794	
-0.387756	
-0.387695	
-0.387268	
-0.388367	
-0.387329	
-0.387939	
-0.386047	
-0.387329	
-0.387024	
-0.386963	
-0.387756	
-0.38678	
-0.386414	
-0.386169	
-0.387146	
-0.38678	
-0.386902	
-0.384705	
-0.385803	
-0.385742	
-0.38562	
-0.386414	
-0.385498	
-0.385864	
-0.385498	
-0.387146	
-0.386169	
-0.386963	
-0.385437	
-0.386414	
-0.386536	
-0.386719	
-0.387085	
-0.386658	
-0.386658	
-0.385803	
-0.387878	
-0.386841	
-0.387512	
-0.38623	
-0.386902	
-0.386536	
-0.386719	
-0.386963	
-0.386658	
-0.386597	
-0.385986	
-0.387512	
-0.387207	
-0.388123	
-0.385864	
-0.386658	
-0.386475	
-0.387207	
-0.387268	
-0.386658	
-0.386658	
-0.386169	
-0.387878	
-0.387329	
-0.387756	
-0.385864	
-0.387146	
-0.386719	
-0.387207	
-0.387512	
-0.38678	
-0.386841	
-0.386108	
-0.387817	
-0.387329	
-0.388062	
-0.385864	
-0.386414	
-0.387329	
-0.38739	
-0.387451	
-0.387512	
-0.387451	
-0.387207	
-0.388733	
-0.388306	
-0.388489	
-0.386841	
-0.387695	
-0.388062	
-0.388184	
-0.388	
-0.387939	
-0.387756	
-0.387329	
-0.388489	
-0.388062	
-0.388367	
-0.386841	
-0.386475	
-0.387573	
-0.387451	
-0.387817	
-0.387207	
-0.386475	
-0.386414	
-0.388428	
-0.388123	
-0.388	
-0.386963	
-0.386597	
-0.388062	
-0.388428	
-0.388977	
-0.388367	
-0.387512	
-0.387512	
-0.389648	
-0.389526	
-0.38916	
-0.388672	
-0.388611	
-0.389526	
-0.390198	
-0.390503	
-0.389709	
-0.388733	
-0.389526	
-0.39093	
-0.390564	
-0.39032	
-0.389343	
-0.388733	
-0.388733	
-0.390137	
-0.389954	
-0.388916	
-0.388428	
-0.388916	
-0.390503	
-0.390869	
-0.390259	
-0.389343	
-0.389282	
-0.389343	
-0.389954	
-0.390259	
-0.389404	
-0.387756	
-0.38855	
-0.389587	
-0.390137	
-0.389343	
-0.388062	
-0.388489	
-0.388611	
-0.388733	
-0.388855	
-0.388123	
-0.387634	
-0.388	
-0.389221	
-0.389465	
-0.389221	
-0.388733	
-0.388184	
-0.388733	
-0.388733	
-0.389343	
-0.388245	
-0.387512	
-0.388367	
-0.389771	
-0.388733	
-0.389404	
-0.388367	
-0.388733	
-0.388611	
-0.389771	
-0.389587	
-0.388428	
-0.387817	
-0.388	
-0.389099	
-0.388916	
-0.389221	
-0.388245	
-0.388672	
-0.389221	
-0.389832	
-0.389709	
-0.388367	
-0.388062	
-0.388977	
-0.389526	
-0.389099	
-0.38916	
-0.389038	
-0.389587	
-0.388855	
-0.390259	
-0.389709	
-0.388977	
-0.389465	
-0.389038	
-0.389282	
-0.389893	
-0.390137	
-0.389221	
-0.388489	
-0.388184	
-0.389771	
-0.389465	
-0.388733	
-0.388794	
-0.389038	
-0.389038	
-0.389343	
-0.389221	
-0.388611	
-0.388611	
-0.388062	
-0.389648	
-0.389832	
-0.388672	
-0.388733	
-0.388977	
-0.389648	
-0.390076	
-0.38916	
-0.388733	
-0.388306	
-0.388428	
-0.389282	
-0.389832	
-0.389282	
-0.389221	
-0.389526	
-0.389771	
-0.390747	
-0.389526	
-0.38916	
-0.388428	
-0.388123	
-0.389893	
-0.390137	
-0.389771	
-0.389648	
-0.389221	
-0.390015	
-0.390808	
-0.390015	
-0.389893	
-0.388794	
-0.388855	
-0.390259	
-0.391052	
-0.390015	
-0.389832	
-0.390076	
-0.39093	
-0.391052	
-0.390259	
-0.390137	
-0.389282	
-0.389587	
-0.390991	
-0.39093	
-0.390686	
-0.391296	
-0.390869	
-0.391235	
-0.392456	
-0.391357	
-0.391418	
-0.389954	
-0.39093	
-0.391907	
-0.392212	
-0.392029	
-0.391785	
-0.391479	
-0.391785	
-0.393494	
-0.3927	
-0.391907	
-0.391174	
-0.39209	
-0.392944	
-0.393005	
-0.392578	
-0.392029	
-0.392578	
-0.392578	
-0.393921	
-0.392578	
-0.392456	
-0.391357	
-0.391785	
-0.392822	
-0.392578	
-0.392029	
-0.391602	
-0.391785	
-0.39093	
-0.392029	
-0.391235	
-0.390747	
-0.389587	
-0.389771	
-0.390625	
-0.390381	
-0.390442	
-0.390015	
-0.390076	
-0.389343	
-0.391602	
-0.390198	
-0.390442	
-0.390015	
-0.389526	
-0.390625	
-0.390808	
-0.391235	
-0.390503	
-0.390442	
-0.389648	
-0.392639	
-0.391418	
-0.391235	
-0.391052	
-0.390015	
-0.391479	
-0.391785	
-0.392578	
-0.391907	
-0.391724	
-0.391479	
-0.392944	
-0.392639	
-0.392456	
-0.39209	
-0.391296	
-0.392822	
-0.392944	
-0.393677	
-0.392883	
-0.39325	
-0.392883	
-0.393616	
-0.394165	
-0.393066	
-0.393066	
-0.393005	
-0.39386	
-0.394104	
-0.394592	
-0.393799	
-0.393799	
-0.394348	
-0.394653	
-0.394897	
-0.394226	
-0.39386	
-0.394348	
-0.395508	
-0.394836	
-0.395203	
-0.394165	
-0.394836	
-0.394226	
-0.394531	
-0.394165	
-0.393494	
-0.39325	
-0.392578	
-0.393677	
-0.393005	
-0.393311	
-0.3927	
-0.392639	
-0.393066	
-0.394165	
-0.393677	
-0.392822	
-0.392395	
-0.392029	
-0.393616	
-0.392517	
-0.392883	
-0.392578	
-0.393066	
-0.393066	
-0.393188	
-0.393372	
-0.392822	
-0.392517	
-0.391663	
-0.393372	
-0.392456	
-0.392883	
-0.392639	
-0.392456	
-0.392578	
-0.392944	
-0.39325	
-0.392822	
-0.392517	
-0.391418	
-0.392517	
-0.392578	
-0.392761	
-0.392395	
-0.39209	
-0.392456	
-0.392761	
-0.393311	
-0.392273	
-0.391846	
-0.391357	
-0.391724	
-0.391968	
-0.391846	
-0.39209	
-0.391907	
-0.391846	
-0.391785	
-0.393127	
-0.392212	
-0.391602	
-0.391479	
-0.391296	
-0.391785	
-0.392456	
-0.392029	
-0.392151	
-0.39209	
-0.391785	
-0.392944	
-0.392761	
-0.391724	
-0.391357	
-0.391663	
-0.392029	
-0.391724	
-0.391785	
-0.391541	
-0.391663	
-0.391052	
-0.391968	
-0.391846	
-0.390137	
-0.390198	
-0.390503	
-0.390076	
-0.390015	
-0.390259	
-0.389832	
-0.389465	
-0.389832	
-0.390198	
-0.390076	
-0.389587	
-0.389648	
-0.389832	
-0.390198	
-0.390259	
-0.390564	
-0.390076	
-0.390198	
-0.390015	
-0.390686	
-0.391235	
-0.389954	
-0.389648	
-0.390381	
-0.390442	
-0.389954	
-0.390503	
-0.390381	
-0.390564	
-0.389771	
-0.391174	
-0.390808	
-0.390381	
-0.39032	
-0.39093	
-0.390991	
-0.390808	
-0.391418	
-0.390808	
-0.391418	
-0.391357	
-0.391357	
-0.391663	
-0.391357	
-0.39093	
-0.391113	
-0.390869	
-0.391174	
-0.391724	
-0.390869	
-0.391113	
-0.390869	
-0.392029	
-0.391968	
-0.39093	
-0.390869	
-0.390991	
-0.391113	
-0.391541	
-0.390808	
-0.390869	
-0.39093	
-0.391174	
-0.391663	
-0.391907	
-0.391235	
-0.391235	
-0.391663	
-0.39093	
-0.391357	
-0.391174	
-0.390991	
-0.390686	
-0.390686	
-0.391846	
-0.39209	
-0.391418	
-0.391296	
-0.391724	
-0.391724	
-0.391907	
-0.392395	
-0.391357	
-0.392029	
-0.391785	
-0.392212	
-0.391907	
-0.391357	
-0.391479	
-0.391113	
-0.390808	
-0.391479	
-0.392578	
-0.391113	
-0.391602	
-0.391296	
-0.391602	
-0.391174	
-0.391418	
-0.391479	
-0.390991	
-0.390686	
-0.391296	
-0.391846	
-0.390503	
-0.391052	
-0.391113	
-0.391357	
-0.391235	
-0.391724	
-0.391113	
-0.390991	
-0.390015	
-0.391174	
-0.391663	
-0.390259	
-0.391174	
-0.390869	
-0.391052	
-0.391663	
-0.392395	
-0.390259	
-0.390564	
-0.390625	
-0.391052	
-0.391846	
-0.389954	
-0.390686	
-0.39093	
-0.391113	
-0.390747	
-0.391052	
-0.388977	
-0.389893	
-0.390381	
-0.390564	
-0.39093	
-0.389038	
-0.390503	
-0.390076	
-0.390564	
-0.390015	
-0.390503	
-0.388489	
-0.388916	
-0.389954	
-0.389526	
-0.389832	
-0.388428	
-0.388794	
-0.38916	
-0.389282	
-0.388855	
-0.388794	
-0.38739	
-0.387817	
-0.38855	
-0.388489	
-0.388306	
-0.387451	
-0.388184	
-0.387939	
-0.388489	
-0.387756	
-0.387878	
-0.386475	
-0.386597	
-0.388062	
-0.387085	
-0.387512	
-0.387024	
-0.387146	
-0.387268	
-0.387451	
-0.387878	
-0.386963	
-0.386108	
-0.386292	
-0.387756	
-0.386475	
-0.387939	
-0.386902	
-0.387329	
-0.387695	
-0.388123	
-0.388977	
-0.388855	
-0.387573	
-0.38855	
-0.389832	
-0.388977	
-0.389526	
-0.389465	
-0.389771	
-0.389526	
-0.389343	
-0.390259	
-0.389526	
-0.388367	
-0.388794	
-0.389771	
-0.38855	
-0.389343	
-0.388672	
-0.38916	
-0.388672	
-0.388855	
-0.389282	
-0.388855	
-0.388	
-0.388428	
-0.38855	
-0.387024	
-0.388367	
-0.387939	
-0.387329	
-0.388	
-0.387756	
-0.388245	
-0.387573	
-0.38678	
-0.387085	
-0.387512	
-0.38623	
-0.387451	
-0.386719	
-0.385925	
-0.386536	
-0.386536	
-0.387146	
-0.38623	
-0.385437	
-0.385681	
-0.386108	
-0.384766	
-0.385986	
-0.385925	
-0.384399	
-0.385254	
-0.385742	
-0.386108	
-0.385376	
-0.385437	
-0.385254	
-0.385437	
-0.384644	
-0.386475	
-0.38623	
-0.38562	
-0.385986	
-0.386292	
-0.387085	
-0.386353	
-0.385925	
-0.386597	
-0.387512	
-0.38678	
-0.386536	
-0.386169	
-0.385315	
-0.386597	
-0.387756	
-0.387756	
-0.387024	
-0.386169	
-0.386047	
-0.385742	
-0.386658	
-0.38678	
-0.386658	
-0.386108	
-0.386536	
-0.387085	
-0.387451	
-0.386658	
-0.386169	
-0.386047	
-0.386597	
-0.386963	
-0.386658	
-0.387024	
-0.386597	
-0.386902	
-0.387024	
-0.387817	
-0.387146	
-0.386658	
-0.386658	
-0.386353	
-0.387329	
-0.38678	
-0.387146	
-0.386658	
-0.387146	
-0.386536	
-0.388428	
-0.387634	
-0.387512	
-0.387329	
-0.387939	
-0.387634	
-0.387756	
-0.387146	
-0.387085	
-0.387695	
-0.387939	
-0.388062	
-0.387695	
-0.387146	
-0.386841	
-0.387024	
	
