E:\DOCUMENTS AND SETTINGS\JPOTAS\MEUS DOCUMENTOS\UFRJ\RSCI-BM 12 WK SERIES\070719-RSCI-BM-02\RSCI-BM-02-LEMG\070719-RSCI-BM-02-LEMG-0008.ACQ
0.025000 msec/sample
1 channel
Analog input
Volts
CH1	
2000	
-0.401001	
-0.401367	
-0.401733	
-0.401123	
-0.399963	
-0.401184	
-0.401184	
-0.400391	
-0.400818	
-0.400818	
-0.399536	
-0.400085	
-0.399902	
-0.400391	
-0.400208	
-0.400513	
-0.399963	
-0.399658	
-0.400391	
-0.399719	
-0.400513	
-0.399414	
-0.399536	
-0.399719	
-0.39917	
-0.399536	
-0.399475	
-0.398376	
-0.397095	
-0.398499	
-0.397949	
-0.398193	
-0.397766	
-0.396973	
-0.39801	
-0.397095	
-0.398682	
-0.397949	
-0.39679	
-0.39801	
-0.397827	
-0.398254	
-0.398132	
-0.399048	
-0.397827	
-0.39856	
-0.398804	
-0.398743	
-0.398804	
-0.398926	
-0.397949	
-0.397278	
-0.3974	
-0.397766	
-0.397339	
-0.396545	
-0.397217	
-0.396423	
-0.396118	
-0.396362	
-0.396301	
-0.395264	
-0.394592	
-0.395447	
-0.395569	
-0.395264	
-0.394897	
-0.393555	
-0.394409	
-0.39325	
-0.394653	
-0.394226	
-0.392883	
-0.393555	
-0.393311	
-0.395081	
-0.394287	
-0.394897	
-0.393555	
-0.394165	
-0.394958	
-0.394836	
-0.394714	
-0.394348	
-0.394409	
-0.394531	
-0.394348	
-0.395508	
-0.395691	
-0.395508	
-0.394775	
-0.395935	
-0.396057	
-0.396606	
-0.39679	
-0.39624	
-0.39563	
-0.396179	
-0.397949	
-0.397278	
-0.397217	
-0.39679	
-0.397766	
-0.396851	
-0.398865	
-0.398804	
-0.397156	
-0.397644	
-0.398254	
-0.400024	
-0.400269	
-0.400818	
-0.399963	
-0.400269	
-0.400818	
-0.40094	
-0.400269	
-0.39978	
-0.400146	
-0.400452	
-0.400513	
-0.400452	
-0.400635	
-0.400146	
-0.399414	
-0.401123	
-0.400757	
-0.401306	
-0.401062	
-0.400879	
-0.400635	
-0.400269	
-0.401855	
-0.401367	
-0.401611	
-0.40094	
-0.401062	
-0.400452	
-0.400574	
-0.40094	
-0.398682	
-0.398987	
-0.400146	
-0.400513	
-0.400024	
-0.400696	
-0.400146	
-0.400208	
-0.400391	
-0.400818	
-0.400452	
-0.399597	
-0.399719	
-0.399231	
-0.399963	
-0.399597	
-0.399719	
-0.399292	
-0.39856	
-0.399841	
-0.398132	
-0.39917	
-0.39856	
-0.398438	
-0.397949	
-0.397339	
-0.399109	
-0.398682	
-0.399109	
-0.398071	
-0.398682	
-0.398315	
-0.399231	
-0.398743	
-0.398254	
-0.397766	
-0.39856	
-0.399414	
-0.399048	
-0.398987	
-0.398254	
-0.398987	
-0.398743	
-0.397705	
-0.398438	
-0.396362	
-0.39679	
-0.397095	
-0.397522	
-0.397034	
-0.396912	
-0.397339	
-0.396179	
-0.397522	
-0.396118	
-0.396423	
-0.395996	
-0.386169	
-0.382324	
-0.383057	
-0.385315	
-0.384155	
-0.384766	
-0.395386	
-0.397156	
-0.39624	
-0.396301	
-0.39624	
-0.395569	
-0.395264	
-0.395142	
-0.396362	
-0.395752	
-0.396118	
-0.396118	
-0.395996	
-0.39563	
-0.39563	
-0.396179	
-0.394897	
-0.395996	
-0.39679	
-0.397034	
-0.396606	
-0.396729	
-0.397644	
-0.397217	
-0.398193	
-0.397583	
-0.398071	
-0.397522	
-0.398254	
-0.397522	
-0.398315	
-0.398804	
-0.398865	
-0.399231	
-0.397888	
-0.399414	
-0.398682	
-0.399841	
-0.398621	
-0.398132	
-0.397949	
-0.397217	
-0.398987	
-0.397705	
-0.396973	
-0.396301	
-0.386414	
-0.383484	
-0.383362	
-0.385315	
-0.384216	
-0.385254	
-0.396667	
-0.399109	
-0.399658	
-0.40094	
-0.403442	
-0.404724	
-0.408142	
-0.411499	
-0.416077	
-0.417969	
-0.422424	
-0.424438	
-0.429504	
-0.433472	
-0.437927	
-0.443176	
-0.447754	
-0.452393	
-0.455688	
-0.461304	
-0.46344	
-0.46759	
-0.470581	
-0.473877	
-0.475769	
-0.477539	
-0.479614	
-0.480042	
-0.480408	
-0.48053	
-0.480774	
-0.478271	
-0.478821	
-0.478394	
-0.480469	
-0.480713	
-0.48114	
-0.482849	
-0.482544	
-0.485107	
-0.486572	
-0.489502	
-0.490234	
-0.493652	
-0.4953	
-0.5	
-0.503052	
-0.505676	
-0.508545	
-0.509277	
-0.51178	
-0.511963	
-0.51355	
-0.510681	
-0.510498	
-0.507813	
-0.506409	
-0.503479	
-0.499756	
-0.496094	
-0.48999	
-0.485962	
-0.481384	
-0.477783	
-0.471191	
-0.467224	
-0.462219	
-0.457581	
-0.455444	
-0.451294	
-0.448914	
-0.446472	
-0.444641	
-0.442261	
-0.439819	
-0.437378	
-0.434509	
-0.43158	
-0.428406	
-0.425903	
-0.421875	
-0.418091	
-0.414124	
-0.410095	
-0.40448	
-0.399353	
-0.394409	
-0.388794	
-0.382568	
-0.375916	
-0.370667	
-0.364502	
-0.357849	
-0.351501	
-0.34491	
-0.339722	
-0.333923	
-0.328796	
-0.322327	
-0.318359	
-0.312866	
-0.309082	
-0.306152	
-0.302673	
-0.301025	
-0.299927	
-0.300659	
-0.30127	
-0.30365	
-0.304932	
-0.309204	
-0.312866	
-0.317078	
-0.322388	
-0.325684	
-0.3302	
-0.335083	
-0.340332	
-0.34552	
-0.352661	
-0.356445	
-0.362122	
-0.366333	
-0.373169	
-0.378784	
-0.383057	
-0.388245	
-0.391296	
-0.395386	
-0.399536	
-0.403198	
-0.40564	
-0.408508	
-0.410828	
-0.414917	
-0.417175	
-0.418213	
-0.420471	
-0.420471	
-0.421814	
-0.422546	
-0.423523	
-0.424133	
-0.42511	
-0.424805	
-0.427612	
-0.42981	
-0.429626	
-0.430847	
-0.431091	
-0.431274	
-0.431396	
-0.43158	
-0.429932	
-0.42981	
-0.427551	
-0.42804	
-0.427368	
-0.424622	
-0.423157	
-0.421265	
-0.419434	
-0.416382	
-0.413208	
-0.409668	
-0.406311	
-0.4021	
-0.398376	
-0.39447	
-0.390198	
-0.386047	
-0.381775	
-0.376587	
-0.372375	
-0.368835	
-0.363403	
-0.35968	
-0.355042	
-0.350464	
-0.34729	
-0.344177	
-0.3396	
-0.336975	
-0.333008	
-0.329895	
-0.328003	
-0.325317	
-0.32373	
-0.321106	
-0.319824	
-0.319519	
-0.319824	
-0.318665	
-0.318909	
-0.318787	
-0.31897	
-0.320435	
-0.319275	
-0.321289	
-0.321533	
-0.324158	
-0.325867	
-0.327209	
-0.328735	
-0.331665	
-0.332336	
-0.3349	
-0.336914	
-0.338684	
-0.342285	
-0.343384	
-0.346863	
-0.34906	
-0.351135	
-0.354248	
-0.356079	
-0.356689	
-0.360168	
-0.359985	
-0.362671	
-0.364319	
-0.364807	
-0.366577	
-0.368164	
-0.36908	
-0.3703	
-0.371155	
-0.371338	
-0.37439	
-0.373108	
-0.375732	
-0.37677	
-0.377808	
-0.380249	
-0.381714	
-0.382324	
-0.383484	
-0.384583	
-0.38385	
-0.386169	
-0.385498	
-0.386536	
-0.386536	
-0.386475	
-0.387817	
-0.388245	
-0.388489	
-0.388672	
-0.389465	
-0.387207	
-0.388672	
-0.388123	
-0.386292	
-0.386719	
-0.385925	
-0.385925	
-0.385193	
-0.385254	
-0.38446	
-0.384949	
-0.384033	
-0.385193	
-0.384827	
-0.383118	
-0.383972	
-0.38446	
-0.384521	
-0.384644	
-0.385681	
-0.385193	
-0.386292	
-0.38623	
-0.387268	
-0.38739	
-0.386536	
-0.388367	
-0.388916	
-0.39032	
-0.391174	
-0.392395	
-0.393127	
-0.394104	
-0.395874	
-0.395935	
-0.396606	
-0.395264	
-0.396912	
-0.397339	
-0.397705	
-0.39801	
-0.398071	
-0.397644	
-0.398193	
-0.399109	
-0.398071	
-0.398804	
-0.396973	
-0.397522	
-0.397034	
-0.396667	
-0.396545	
-0.396729	
-0.396301	
-0.395874	
-0.396606	
-0.395508	
-0.39624	
-0.394409	
-0.394714	
-0.394958	
-0.395081	
-0.39502	
-0.394531	
-0.394409	
-0.39502	
-0.39502	
-0.394775	
-0.39502	
-0.394409	
-0.394104	
-0.394348	
-0.395508	
-0.395142	
-0.395386	
-0.395264	
-0.395813	
-0.396179	
-0.395813	
-0.394714	
-0.394104	
-0.39325	
-0.3927	
-0.393127	
-0.393066	
-0.393311	
-0.392334	
-0.392334	
-0.390564	
-0.39032	
-0.389465	
-0.388123	
-0.388367	
-0.388672	
-0.388733	
-0.388794	
-0.389832	
-0.388672	
-0.38916	
-0.388184	
-0.388611	
-0.38739	
-0.387085	
-0.387573	
-0.387634	
-0.387329	
-0.387329	
-0.387634	
-0.387024	
-0.388184	
-0.38623	
-0.387207	
-0.386658	
-0.387085	
-0.386597	
-0.387512	
-0.387573	
-0.387817	
-0.388062	
-0.388062	
-0.389465	
-0.388062	
-0.389465	
-0.388733	
-0.38916	
-0.389282	
-0.389648	
-0.390076	
-0.390564	
-0.391052	
-0.390991	
-0.392029	
-0.390625	
-0.392029	
-0.391235	
-0.391907	
-0.391541	
-0.392029	
-0.392883	
-0.392883	
-0.393555	
-0.394043	
-0.395081	
-0.394043	
-0.395142	
-0.394165	
-0.394165	
-0.394653	
-0.394958	
-0.395569	
-0.396057	
-0.396729	
-0.396362	
-0.397461	
-0.398132	
-0.398438	
-0.397644	
-0.39801	
-0.398865	
-0.399353	
-0.399902	
-0.400513	
-0.401611	
-0.401733	
-0.4021	
-0.402527	
-0.403076	
-0.402588	
-0.402527	
-0.402222	
-0.402771	
-0.4021	
-0.402588	
-0.403076	
-0.402283	
-0.40271	
-0.402649	
-0.403748	
-0.401978	
-0.4021	
-0.400696	
-0.402161	
-0.402283	
-0.402222	
-0.402771	
-0.4021	
-0.402344	
-0.401306	
-0.402222	
-0.40094	
-0.400757	
-0.398438	
-0.400635	
-0.40033	
-0.399963	
-0.400208	
-0.399719	
-0.399719	
-0.399292	
-0.399719	
-0.398926	
-0.397766	
-0.396179	
-0.398865	
-0.398987	
-0.398743	
-0.399658	
-0.398804	
-0.399353	
-0.399475	
-0.399841	
-0.399048	
-0.397522	
-0.39679	
-0.398438	
-0.398499	
-0.398376	
-0.398499	
-0.397278	
-0.397339	
-0.3974	
-0.397156	
-0.396362	
-0.394897	
-0.394836	
-0.395447	
-0.395508	
-0.395203	
-0.39624	
-0.395447	
-0.394958	
-0.394958	
-0.394653	
-0.39386	
-0.392822	
-0.392761	
-0.393677	
-0.393799	
-0.394104	
-0.394714	
-0.394531	
-0.394531	
-0.395142	
-0.39502	
-0.394104	
-0.393738	
-0.393127	
-0.394653	
-0.394897	
-0.395081	
-0.395447	
-0.394714	
-0.395264	
-0.396729	
-0.395752	
-0.395386	
-0.395081	
-0.395203	
-0.396484	
-0.396118	
-0.396545	
-0.397217	
-0.396484	
-0.397034	
-0.397522	
-0.397583	
-0.396729	
-0.395813	
-0.396423	
-0.397095	
-0.397156	
-0.397644	
-0.398865	
-0.398315	
-0.398376	
-0.399292	
-0.399536	
-0.398682	
-0.397644	
-0.397522	
-0.398438	
-0.39917	
-0.398804	
-0.398926	
-0.398865	
-0.398743	
-0.399658	
-0.399231	
-0.398987	
-0.398438	
-0.397339	
-0.398132	
-0.399658	
-0.399658	
-0.399353	
-0.399902	
-0.399536	
-0.400452	
-0.399841	
-0.400391	
-0.398743	
-0.397827	
-0.398499	
-0.398743	
-0.39856	
-0.398315	
-0.399597	
-0.398438	
-0.399414	
-0.400208	
-0.399475	
-0.398743	
-0.398376	
-0.398376	
-0.398621	
-0.398865	
-0.398682	
-0.398376	
-0.398438	
-0.399109	
-0.39917	
-0.398682	
-0.397949	
-0.397522	
-0.397827	
-0.397705	
-0.398193	
-0.398132	
-0.398621	
-0.39801	
-0.398865	
-0.398621	
-0.397522	
-0.398499	
-0.398193	
-0.396667	
-0.397583	
-0.398438	
-0.398743	
-0.398987	
-0.399536	
-0.399658	
-0.399475	
-0.398682	
-0.399658	
-0.398254	
-0.395874	
-0.39801	
-0.39801	
-0.398438	
-0.398376	
-0.398376	
-0.397827	
-0.397461	
-0.397949	
-0.397766	
-0.396484	
-0.395447	
-0.396423	
-0.396057	
-0.395569	
-0.395569	
-0.396423	
-0.395264	
-0.395264	
-0.396545	
-0.39502	
-0.393066	
-0.393982	
-0.394043	
-0.39386	
-0.393982	
-0.394348	
-0.395569	
-0.394714	
-0.394775	
-0.39624	
-0.394836	
-0.393372	
-0.393921	
-0.39447	
-0.393616	
-0.394958	
-0.395142	
-0.395569	
-0.395752	
-0.395813	
-0.396545	
-0.39563	
-0.395264	
-0.395813	
-0.396179	
-0.395691	
-0.396851	
-0.396423	
-0.397095	
-0.397461	
-0.398315	
-0.397949	
-0.39624	
-0.397705	
-0.397217	
-0.395935	
-0.397156	
-0.397583	
-0.3974	
-0.397217	
-0.397949	
-0.398682	
-0.397644	
-0.397522	
-0.398682	
-0.397949	
-0.39624	
-0.398438	
-0.399231	
-0.399475	
-0.399475	
-0.400635	
-0.400269	
-0.40033	
-0.401855	
-0.40094	
-0.40094	
-0.400269	
-0.401306	
-0.401306	
-0.401123	
-0.401428	
-0.401917	
-0.401428	
-0.401489	
-0.402832	
-0.401367	
-0.400635	
-0.400635	
-0.400635	
-0.400269	
-0.401062	
-0.401367	
-0.401306	
-0.401489	
-0.401672	
-0.4021	
-0.400818	
-0.40094	
-0.401001	
-0.401367	
-0.401123	
-0.401367	
-0.401917	
-0.401733	
-0.402222	
-0.4021	
-0.401794	
-0.400452	
-0.401855	
-0.400391	
-0.399231	
-0.399963	
-0.400146	
-0.40033	
-0.39978	
-0.401184	
-0.400696	
-0.399963	
-0.399902	
-0.40033	
-0.399231	
-0.397949	
-0.399414	
-0.399597	
-0.399963	
-0.399231	
-0.399231	
-0.399109	
-0.398621	
-0.39917	
-0.39856	
-0.397705	
-0.396912	
-0.397888	
-0.39801	
-0.397583	
-0.398132	
-0.397827	
-0.397583	
-0.39801	
-0.398926	
-0.396606	
-0.396179	
-0.39624	
-0.396301	
-0.396179	
-0.396667	
-0.396667	
-0.395874	
-0.396118	
-0.396118	
-0.396118	
-0.394409	
-0.394592	
-0.395325	
-0.395508	
-0.394836	
-0.396118	
-0.396057	
-0.39624	
-0.397095	
-0.396301	
-0.396423	
-0.395935	
-0.395508	
-0.395691	
-0.395569	
-0.395264	
-0.396301	
-0.396118	
-0.396606	
-0.3974	
-0.397583	
-0.397705	
-0.397217	
-0.397766	
-0.397278	
-0.395996	
-0.397766	
-0.398499	
-0.398438	
-0.398254	
-0.39856	
-0.399353	
-0.398926	
-0.399475	
-0.398865	
-0.398621	
-0.396545	
-0.398071	
-0.398315	
-0.398132	
-0.39856	
-0.398071	
-0.398743	
-0.397217	
-0.398865	
-0.396362	
-0.397644	
-0.3974	
-0.398193	
-0.398499	
-0.398682	
-0.399109	
-0.399719	
-0.400208	
-0.399597	
-0.40155	
-0.399719	
-0.40033	
-0.400085	
-0.400635	
-0.40033	
-0.400879	
-0.401245	
-0.401489	
-0.402588	
-0.401855	
-0.402405	
-0.401733	
-0.402588	
-0.402283	
-0.401855	
-0.401489	
-0.4021	
-0.401672	
-0.401672	
-0.40271	
-0.401672	
-0.402161	
-0.401489	
-0.40094	
-0.401062	
-0.398804	
-0.400574	
-0.400757	
-0.400635	
-0.400818	
-0.400757	
-0.400574	
-0.399536	
-0.400757	
-0.399353	
-0.399292	
-0.398499	
-0.398804	
-0.398499	
-0.39856	
-0.39856	
-0.398132	
-0.399231	
-0.398132	
-0.39917	
-0.397461	
-0.398071	
-0.397278	
-0.397461	
-0.396118	
-0.396729	
-0.396667	
-0.396484	
-0.396729	
-0.395874	
-0.396545	
-0.394409	
-0.395691	
-0.394836	
-0.395386	
-0.395386	
-0.395996	
-0.395813	
-0.395447	
-0.396301	
-0.395874	
-0.395508	
-0.395264	
-0.394104	
-0.394287	
-0.392578	
-0.39447	
-0.395264	
-0.394714	
-0.39447	
-0.395447	
-0.396118	
-0.395447	
-0.395691	
-0.395203	
-0.39502	
-0.393982	
-0.395142	
-0.394165	
-0.395569	
-0.395691	
-0.396057	
-0.39624	
-0.395081	
-0.395996	
-0.395203	
-0.396301	
-0.394836	
-0.395508	
-0.395569	
-0.395569	
-0.396118	
-0.396729	
-0.396729	
-0.39624	
-0.397644	
-0.39679	
-0.397705	
-0.396973	
-0.395874	
-0.396912	
-0.3974	
-0.397644	
-0.397827	
-0.398315	
-0.397766	
-0.39801	
-0.396606	
-0.397644	
-0.397705	
-0.396423	
-0.396973	
-0.396667	
-0.397095	
-0.397522	
-0.397949	
-0.39679	
-0.397461	
-0.398132	
-0.397644	
-0.398132	
-0.39679	
-0.398254	
-0.397583	
-0.398804	
-0.399475	
-0.399719	
-0.399536	
-0.399231	
-0.40033	
-0.398621	
-0.400146	
-0.399048	
-0.400024	
-0.399536	
-0.40033	
-0.400146	
-0.400574	
-0.401428	
-0.400879	
-0.401733	
-0.39978	
-0.40155	
-0.400513	
-0.400085	
-0.399963	
-0.400269	
-0.400635	
-0.400757	
-0.401367	
-0.400635	
-0.400696	
-0.400269	
-0.400024	
-0.399414	
-0.398193	
-0.399048	
-0.399414	
-0.398804	
-0.398865	
-0.399353	
-0.398621	
-0.39856	
-0.398926	
-0.396973	
-0.398376	
-0.39624	
-0.398071	
-0.396606	
-0.397644	
-0.397949	
-0.398132	
-0.398499	
-0.397888	
-0.399475	
-0.397278	
-0.398804	
-0.397278	
-0.398132	
-0.398315	
-0.397766	
-0.397888	
-0.398315	
-0.398438	
-0.397217	
-0.39856	
-0.395447	
-0.396606	
-0.39563	
-0.395569	
-0.395264	
-0.395325	
-0.394775	
-0.394836	
-0.395386	
-0.394531	
-0.394653	
-0.393066	
-0.39386	
-0.393311	
-0.393066	
-0.393311	
-0.392639	
-0.393738	
-0.394409	
-0.395081	
-0.394104	
-0.394592	
-0.393799	
-0.393188	
-0.394775	
-0.392334	
-0.394165	
-0.393738	
-0.394226	
-0.394409	
-0.394958	
-0.394836	
-0.394531	
-0.395325	
-0.393921	
-0.394958	
-0.393188	
-0.394775	
-0.394592	
-0.39502	
-0.395142	
-0.395508	
-0.396545	
-0.395752	
-0.397705	
-0.395325	
-0.396484	
-0.395569	
-0.396729	
-0.396362	
-0.397034	
-0.397278	
-0.3974	
-0.397644	
-0.397644	
-0.398804	
-0.39624	
-0.397888	
-0.397034	
-0.397583	
-0.398254	
-0.397888	
-0.398804	
-0.399048	
-0.399414	
-0.399231	
-0.399963	
-0.398254	
-0.398132	
-0.399231	
-0.398682	
-0.398865	
-0.398315	
-0.398865	
-0.399475	
-0.399841	
-0.400024	
-0.399658	
-0.398682	
-0.398682	
-0.400208	
-0.398071	
-0.399902	
-0.399536	
-0.400024	
-0.400208	
-0.401611	
-0.401123	
-0.400574	
-0.400757	
-0.399597	
-0.400024	
-0.398315	
-0.399292	
-0.399353	
-0.398376	
-0.399353	
-0.400024	
-0.399597	
-0.399658	
-0.400757	
-0.398987	
-0.398804	
-0.399231	
-0.398804	
-0.398376	
-0.398315	
-0.398743	
-0.398376	
-0.398193	
-0.398132	
-0.398499	
-0.396362	
-0.396179	
-0.397461	
-0.396729	
-0.397095	
-0.397095	
-0.397522	
-0.397339	
-0.398315	
-0.398193	
-0.397766	
-0.397217	
-0.397034	
-0.3974	
-0.395935	
-0.397522	
-0.397644	
-0.397522	
-0.398254	
-0.398376	
-0.398682	
-0.398438	
-0.397888	
-0.396484	
-0.396667	
-0.394958	
-0.396057	
-0.395691	
-0.39563	
-0.395813	
-0.396118	
-0.395325	
-0.395325	
-0.395569	
-0.393066	
-0.393005	
-0.394287	
-0.394043	
-0.39325	
-0.393433	
-0.393372	
-0.393311	
-0.393677	
-0.393799	
-0.393616	
-0.392273	
-0.392456	
-0.3927	
-0.393066	
-0.39325	
-0.393188	
-0.39325	
-0.393616	
-0.394165	
-0.393982	
-0.394531	
-0.393433	
-0.393616	
-0.39386	
-0.393799	
-0.394531	
-0.394714	
-0.394165	
-0.395386	
-0.395691	
-0.395752	
-0.39624	
-0.395874	
-0.395508	
-0.395325	
-0.39563	
-0.396301	
-0.396729	
-0.395752	
-0.396729	
-0.397278	
-0.397644	
-0.398193	
-0.398621	
-0.397278	
-0.397644	
-0.397644	
-0.398865	
-0.398987	
-0.398926	
-0.39917	
-0.399841	
-0.400513	
-0.400452	
-0.401245	
-0.398743	
-0.398987	
-0.399109	
-0.399719	
-0.399475	
-0.39917	
-0.398376	
-0.399902	
-0.400146	
-0.40033	
-0.40094	
-0.400146	
-0.399902	
-0.399597	
-0.40094	
-0.400024	
-0.399536	
-0.399048	
-0.399292	
-0.39978	
-0.399719	
-0.399536	
-0.399109	
-0.39801	
-0.397827	
-0.398071	
-0.398682	
-0.398743	
-0.398865	
-0.399048	
-0.399353	
-0.399597	
-0.39978	
-0.39978	
-0.398254	
-0.397644	
-0.397339	
-0.398254	
-0.39801	
-0.397949	
-0.397461	
-0.397217	
-0.397339	
-0.398499	
-0.398376	
-0.396606	
-0.396179	
-0.397095	
-0.397583	
-0.396973	
-0.397156	
-0.396667	
-0.397278	
-0.397278	
-0.398132	
-0.397827	
-0.397339	
-0.396851	
-0.397095	
-0.397278	
-0.397644	
-0.397034	
-0.39679	
-0.396362	
-0.396545	
-0.396667	
-0.396484	
-0.39679	
-0.395325	
-0.394897	
-0.395386	
-0.395386	
-0.395203	
-0.395081	
-0.394348	
-0.395142	
-0.395447	
-0.394897	
-0.395142	
-0.394043	
-0.392334	
-0.392944	
-0.394104	
-0.393616	
-0.393555	
-0.392944	
-0.393494	
-0.393494	
-0.394409	
-0.394409	
-0.393433	
-0.392761	
-0.392883	
-0.394165	
-0.393372	
-0.393311	
-0.393433	
-0.393799	
-0.393982	
-0.395874	
-0.395691	
-0.394836	
-0.39447	
-0.394409	
-0.394409	
-0.395569	
-0.395447	
-0.395752	
-0.395142	
-0.396301	
-0.396606	
-0.3974	
-0.396912	
-0.395996	
-0.395691	
-0.39624	
-0.397095	
-0.396423	
-0.396667	
-0.396179	
-0.397217	
-0.396851	
-0.397888	
-0.397766	
-0.396973	
-0.395813	
-0.395935	
-0.3974	
-0.39679	
-0.397278	
-0.397034	
-0.397278	
-0.398193	
-0.399353	
-0.398804	
-0.398376	
-0.397949	
-0.396973	
-0.399719	
-0.399475	
-0.399536	
-0.399719	
-0.400208	
-0.400391	
-0.401733	
-0.402466	
-0.400452	
-0.400085	
-0.399414	
-0.399414	
-0.39978	
-0.399536	
-0.399902	
-0.398926	
-0.399963	
-0.400208	
-0.401001	
-0.400085	
-0.399414	
-0.398865	
-0.398865	
-0.399475	
-0.39917	
-0.399231	
-0.398315	
-0.399719	
-0.399536	
-0.399658	
-0.400146	
-0.398438	
-0.397766	
-0.397339	
-0.398987	
-0.398132	
-0.397827	
-0.397278	
-0.397583	
-0.397461	
-0.397949	
-0.398621	
-0.397095	
-0.396362	
-0.395691	
-0.397278	
-0.396301	
-0.396179	
-0.39624	
-0.396118	
-0.396362	
-0.397156	
-0.397583	
-0.396301	
-0.395386	
-0.39502	
-0.393372	
-0.39447	
-0.394714	
-0.394653	
-0.394531	
-0.394836	
-0.395447	
-0.395386	
-0.396057	
-0.394043	
-0.394348	
-0.394775	
-0.394836	
-0.394287	
-0.394409	
-0.393005	
-0.393921	
-0.394043	
-0.393982	
-0.394531	
-0.39386	
-0.392151	
-0.391846	
-0.392517	
-0.39325	
-0.393066	
-0.392029	
-0.393005	
-0.393555	
-0.394409	
-0.394409	
-0.394653	
-0.39325	
-0.392578	
-0.39325	
-0.394104	
-0.394287	
-0.39325	
-0.394104	
-0.394348	
-0.395203	
-0.395569	
-0.395935	
-0.394592	
-0.394531	
-0.395325	
-0.395203	
-0.395691	
-0.395752	
-0.396057	
-0.396423	
-0.396606	
-0.396667	
-0.396973	
-0.396362	
-0.396423	
-0.396912	
-0.395569	
-0.396545	
-0.396301	
-0.396362	
-0.396667	
-0.396362	
-0.396729	
-0.396484	
-0.396667	
-0.394592	
-0.394836	
-0.394714	
-0.395386	
-0.395203	
-0.395142	
-0.396606	
-0.397095	
-0.398071	
-0.398438	
-0.398926	
-0.397095	
-0.397461	
-0.398438	
-0.398376	
-0.398315	
-0.398438	
-0.39856	
-0.399292	
-0.400024	
-0.400146	
-0.400696	
-0.399841	
-0.399475	
-0.399841	
-0.399231	
-0.40033	
-0.400452	
-0.399902	
-0.400757	
-0.400818	
-0.400391	
-0.400024	
-0.400635	
-0.399109	
-0.399109	
-0.398804	
-0.399414	
-0.399597	
-0.39856	
-0.399353	
-0.398865	
-0.399597	
-0.399353	
-0.400146	
-0.397766	
-0.3974	
-0.397888	
-0.397949	
-0.397583	
-0.397156	
-0.397156	
-0.397156	
-0.397583	
-0.397644	
-0.398071	
-0.396484	
-0.396545	
-0.395874	
-0.396179	
-0.395996	
-0.395386	
-0.395325	
-0.395325	
-0.395325	
-0.395142	
-0.394775	
-0.394226	
-0.393433	
-0.39386	
-0.3927	
-0.393616	
-0.394226	
-0.393555	
-0.39447	
-0.394287	
-0.394348	
-0.394104	
-0.394287	
-0.393311	
-0.392395	
-0.392273	
-0.393738	
-0.393127	
-0.392883	
-0.393555	
-0.392822	
-0.393555	
-0.394226	
-0.394592	
-0.392944	
-0.393372	
-0.393494	
-0.394043	
-0.394226	
-0.393799	
-0.39386	
-0.394104	
-0.394592	
-0.394775	
-0.395386	
-0.394226	
-0.393005	
-0.394043	
-0.394409	
-0.394409	
-0.394592	
-0.393188	
-0.394836	
-0.394836	
-0.395935	
-0.395508	
-0.395264	
-0.39502	
-0.394043	
-0.395203	
-0.396179	
-0.396301	
-0.39624	
-0.396301	
-0.396484	
-0.39679	
-0.397583	
-0.397766	
-0.396301	
-0.395996	
-0.396057	
-0.396606	
-0.396851	
-0.396057	
-0.396484	
-0.396057	
-0.396484	
-0.396729	
-0.397339	
-0.396118	
-0.395508	
-0.396606	
-0.396912	
-0.396973	
-0.397034	
-0.397461	
-0.397888	
-0.398071	
-0.398926	
-0.398682	
-0.397949	
-0.397034	
-0.398193	
-0.397583	
-0.398071	
-0.398438	
-0.397522	
-0.399231	
-0.39917	
-0.400452	
-0.399902	
-0.400757	
-0.399475	
-0.39856	
-0.399353	
-0.400085	
-0.400085	
-0.39917	
-0.399597	
-0.399414	
-0.399658	
-0.400024	
-0.400757	
-0.399292	
-0.398621	
-0.399475	
-0.398865	
-0.398499	
-0.398315	
-0.398438	
-0.398193	
-0.397949	
-0.399353	
-0.398132	
-0.397583	
-0.396362	
-0.397522	
-0.395203	
-0.397095	
-0.397034	
-0.396484	
-0.396667	
-0.39679	
-0.398499	
-0.396851	
-0.398499	
-0.39679	
-0.397095	
-0.397095	
-0.396729	
-0.396423	
-0.396118	
-0.396851	
-0.396973	
-0.397522	
-0.396484	
-0.396851	
-0.39563	
-0.395996	
-0.396301	
-0.395386	
-0.39502	
-0.394653	
-0.394348	
-0.394165	
-0.39386	
-0.393555	
-0.393738	
-0.393066	
-0.391663	
-0.392639	
-0.390137	
-0.392273	
-0.39209	
-0.391785	
-0.392517	
-0.393066	
-0.393494	
-0.393005	
-0.394836	
-0.391541	
-0.392822	
-0.393433	
-0.392944	
-0.393066	
-0.392639	
-0.39325	
-0.393433	
-0.39447	
-0.393921	
-0.394409	
-0.392334	
-0.393311	
-0.394165	
-0.393188	
-0.393555	
-0.39386	
-0.393982	
-0.393799	
-0.39563	
-0.394531	
-0.395264	
-0.39447	
-0.395264	
-0.39563	
-0.39325	
-0.395691	
-0.395447	
-0.395203	
-0.396057	
-0.397217	
-0.396545	
-0.396606	
-0.397705	
-0.395508	
-0.396667	
-0.396912	
-0.396851	
-0.397217	
-0.396606	
-0.397705	
-0.398315	
-0.39856	
-0.398315	
-0.399048	
-0.398071	
-0.398376	
-0.398743	
-0.397827	
-0.397888	
-0.398132	
-0.397766	
-0.398254	
-0.399292	
-0.398499	
-0.398743	
-0.397461	
-0.398865	
-0.398987	
-0.396729	
-0.399292	
	
