E:\DOCUMENTS AND SETTINGS\JPOTAS\MEUS DOCUMENTOS\UFRJ\RSCI-BM 12 WK SERIES\070719-RSCI-BM-02\RSCI-BM-02-LEMG\070719-RSCI-BM-02-LEMG-0017.ACQ
0.025000 msec/sample
1 channel
Analog input
Volts
CH1	
2000	
-0.39209	
-0.392883	
-0.392151	
-0.392822	
-0.392578	
-0.393005	
-0.393677	
-0.393311	
-0.393616	
-0.392578	
-0.391602	
-0.392456	
-0.392761	
-0.391724	
-0.392944	
-0.392395	
-0.392761	
-0.392761	
-0.393555	
-0.393616	
-0.392517	
-0.390747	
-0.391846	
-0.392639	
-0.391479	
-0.392151	
-0.391968	
-0.391968	
-0.391968	
-0.392883	
-0.392578	
-0.391846	
-0.39032	
-0.391235	
-0.392273	
-0.392151	
-0.392517	
-0.392029	
-0.391968	
-0.391968	
-0.392578	
-0.391113	
-0.390808	
-0.389038	
-0.389648	
-0.390198	
-0.389771	
-0.390259	
-0.390686	
-0.390198	
-0.390503	
-0.391113	
-0.390381	
-0.390747	
-0.389465	
-0.389771	
-0.390503	
-0.389771	
-0.390808	
-0.391174	
-0.391663	
-0.392578	
-0.39386	
-0.393127	
-0.393433	
-0.39209	
-0.393555	
-0.393921	
-0.393494	
-0.394226	
-0.394836	
-0.394775	
-0.394958	
-0.395813	
-0.394958	
-0.395264	
-0.39447	
-0.396057	
-0.395996	
-0.395508	
-0.396423	
-0.396545	
-0.396606	
-0.39679	
-0.396667	
-0.39624	
-0.395996	
-0.394531	
-0.396179	
-0.395813	
-0.394897	
-0.395813	
-0.395691	
-0.395325	
-0.395813	
-0.396057	
-0.395386	
-0.395386	
-0.393616	
-0.394653	
-0.394775	
-0.393127	
-0.394287	
-0.394226	
-0.393921	
-0.393372	
-0.393738	
-0.392944	
-0.392578	
-0.390686	
-0.391663	
-0.391479	
-0.391052	
-0.391968	
-0.391724	
-0.391541	
-0.391663	
-0.392151	
-0.391418	
-0.391113	
-0.389221	
-0.391174	
-0.390991	
-0.391296	
-0.391785	
-0.391235	
-0.390991	
-0.391785	
-0.392517	
-0.391541	
-0.391785	
-0.389282	
-0.391785	
-0.391846	
-0.392212	
-0.391724	
-0.392029	
-0.392273	
-0.392151	
-0.393311	
-0.391785	
-0.392334	
-0.390259	
-0.392151	
-0.391785	
-0.391479	
-0.391968	
-0.391785	
-0.391785	
-0.391724	
-0.393616	
-0.391418	
-0.391907	
-0.389832	
-0.390991	
-0.390686	
-0.391113	
-0.390869	
-0.390869	
-0.391174	
-0.391235	
-0.393433	
-0.390991	
-0.391907	
-0.389404	
-0.391113	
-0.391541	
-0.391052	
-0.391174	
-0.391052	
-0.391357	
-0.391724	
-0.393799	
-0.391479	
-0.391785	
-0.390747	
-0.391418	
-0.391235	
-0.391296	
-0.391174	
-0.391785	
-0.391296	
-0.391602	
-0.394043	
-0.390991	
-0.391541	
-0.388489	
-0.390198	
-0.390198	
-0.39032	
-0.390259	
-0.389648	
-0.389832	
-0.390503	
-0.391724	
-0.390137	
-0.39093	
-0.378296	
-0.379395	
-0.379211	
-0.380859	
-0.380859	
-0.38147	
-0.392517	
-0.393372	
-0.395081	
-0.393433	
-0.393372	
-0.391052	
-0.394531	
-0.393738	
-0.395264	
-0.395142	
-0.395691	
-0.39563	
-0.395569	
-0.396179	
-0.395386	
-0.394714	
-0.392212	
-0.394165	
-0.393127	
-0.395081	
-0.394775	
-0.394775	
-0.394836	
-0.395447	
-0.395874	
-0.394958	
-0.394714	
-0.392151	
-0.394653	
-0.394287	
-0.395081	
-0.395691	
-0.395325	
-0.395752	
-0.395752	
-0.396606	
-0.394653	
-0.394043	
-0.391235	
-0.393127	
-0.391357	
-0.391968	
-0.391602	
-0.390259	
-0.389343	
-0.388611	
-0.389099	
-0.386353	
-0.385498	
-0.382751	
-0.384949	
-0.384094	
-0.385193	
-0.386047	
-0.386963	
-0.388123	
-0.390625	
-0.394043	
-0.396057	
-0.39917	
-0.39978	
-0.406799	
-0.411438	
-0.416321	
-0.421448	
-0.427002	
-0.432983	
-0.44104	
-0.446045	
-0.45282	
-0.457581	
-0.464111	
-0.468567	
-0.474487	
-0.478271	
-0.481689	
-0.484375	
-0.486511	
-0.48938	
-0.487	
-0.486938	
-0.48468	
-0.485352	
-0.484436	
-0.48584	
-0.487	
-0.487427	
-0.488831	
-0.491333	
-0.495483	
-0.49585	
-0.498901	
-0.499023	
-0.505066	
-0.508301	
-0.511475	
-0.514282	
-0.516663	
-0.51825	
-0.52063	
-0.5224	
-0.522217	
-0.521301	
-0.517212	
-0.518799	
-0.515869	
-0.512573	
-0.508606	
-0.504089	
-0.49939	
-0.495789	
-0.490479	
-0.486084	
-0.480469	
-0.473938	
-0.472107	
-0.468689	
-0.465149	
-0.461548	
-0.458374	
-0.455444	
-0.454407	
-0.451172	
-0.449646	
-0.445068	
-0.442993	
-0.440308	
-0.438843	
-0.435608	
-0.433289	
-0.429199	
-0.425659	
-0.422852	
-0.416626	
-0.41156	
-0.404907	
-0.399414	
-0.393066	
-0.387329	
-0.380249	
-0.373108	
-0.364563	
-0.356262	
-0.348083	
-0.338379	
-0.329529	
-0.319519	
-0.309021	
-0.302063	
-0.294006	
-0.286865	
-0.280029	
-0.27356	
-0.268921	
-0.265259	
-0.260803	
-0.258667	
-0.256348	
-0.256348	
-0.256958	
-0.25885	
-0.260925	
-0.263672	
-0.266968	
-0.270508	
-0.276367	
-0.279846	
-0.283264	
-0.285278	
-0.293762	
-0.299438	
-0.304565	
-0.309692	
-0.314636	
-0.319397	
-0.32605	
-0.32782	
-0.331604	
-0.334717	
-0.338867	
-0.341858	
-0.345337	
-0.347717	
-0.349854	
-0.352051	
-0.35437	
-0.355042	
-0.356995	
-0.357056	
-0.357361	
-0.359802	
-0.360596	
-0.362122	
-0.363403	
-0.364319	
-0.365845	
-0.369141	
-0.368347	
-0.36969	
-0.367981	
-0.37207	
-0.373535	
-0.375549	
-0.377319	
-0.378662	
-0.38092	
-0.38324	
-0.384338	
-0.38562	
-0.385986	
-0.386841	
-0.388855	
-0.390076	
-0.391663	
-0.392273	
-0.3927	
-0.393372	
-0.396179	
-0.394104	
-0.394287	
-0.391785	
-0.393921	
-0.393188	
-0.393616	
-0.393127	
-0.392883	
-0.393005	
-0.393372	
-0.393494	
-0.3927	
-0.391968	
-0.390381	
-0.392029	
-0.391541	
-0.392395	
-0.391846	
-0.392639	
-0.392517	
-0.394043	
-0.393005	
-0.392639	
-0.391724	
-0.391235	
-0.392334	
-0.392517	
-0.392761	
-0.392517	
-0.392578	
-0.392883	
-0.395142	
-0.393494	
-0.393677	
-0.39209	
-0.391541	
-0.3927	
-0.392883	
-0.392578	
-0.392273	
-0.391602	
-0.391907	
-0.39209	
-0.391235	
-0.391113	
-0.387634	
-0.390076	
-0.389587	
-0.389709	
-0.388977	
-0.389099	
-0.388855	
-0.390564	
-0.388306	
-0.387878	
-0.387451	
-0.386719	
-0.387756	
-0.386719	
-0.387878	
-0.388306	
-0.388794	
-0.38916	
-0.389465	
-0.388916	
-0.388977	
-0.388855	
-0.388855	
-0.389526	
-0.389221	
-0.389893	
-0.38916	
-0.389893	
-0.391907	
-0.38916	
-0.389465	
-0.387634	
-0.389526	
-0.389221	
-0.388245	
-0.389526	
-0.389465	
-0.388672	
-0.390442	
-0.389404	
-0.389099	
-0.387268	
-0.387939	
-0.388733	
-0.388306	
-0.388428	
-0.388428	
-0.388916	
-0.389282	
-0.389771	
-0.388733	
-0.388306	
-0.387207	
-0.389038	
-0.389587	
-0.388855	
-0.38916	
-0.389526	
-0.390076	
-0.390442	
-0.389893	
-0.389832	
-0.387878	
-0.389832	
-0.389282	
-0.389099	
-0.388062	
-0.389221	
-0.388916	
-0.389282	
-0.390137	
-0.388916	
-0.38855	
-0.387207	
-0.387634	
-0.386841	
-0.386658	
-0.385315	
-0.385803	
-0.385681	
-0.386475	
-0.386414	
-0.386475	
-0.385193	
-0.38385	
-0.384888	
-0.38562	
-0.386047	
-0.384888	
-0.385559	
-0.385742	
-0.386597	
-0.386292	
-0.386658	
-0.385315	
-0.384338	
-0.385498	
-0.385925	
-0.385986	
-0.386292	
-0.385742	
-0.385864	
-0.387146	
-0.386414	
-0.386536	
-0.385681	
-0.385803	
-0.385803	
-0.386169	
-0.385864	
-0.386047	
-0.386169	
-0.386169	
-0.387634	
-0.386169	
-0.387085	
-0.386292	
-0.386292	
-0.386475	
-0.386536	
-0.386292	
-0.386902	
-0.387085	
-0.386902	
-0.389221	
-0.387512	
-0.38855	
-0.387024	
-0.389587	
-0.387268	
-0.38855	
-0.387268	
-0.377869	
-0.37854	
-0.379272	
-0.381897	
-0.379456	
-0.386536	
-0.389648	
-0.390381	
-0.388123	
-0.389282	
-0.388	
-0.389038	
-0.388184	
-0.388184	
-0.389343	
-0.388123	
-0.387756	
-0.386169	
-0.388245	
-0.387573	
-0.387573	
-0.387695	
-0.387878	
-0.388428	
-0.388916	
-0.388611	
-0.388428	
-0.387634	
-0.387756	
-0.387817	
-0.388062	
-0.388	
-0.388367	
-0.388123	
-0.388428	
-0.390137	
-0.388672	
-0.388184	
-0.386475	
-0.386719	
-0.385864	
-0.386536	
-0.384888	
-0.384888	
-0.384216	
-0.383667	
-0.383179	
-0.38147	
-0.379822	
-0.377197	
-0.377136	
-0.37616	
-0.376221	
-0.375854	
-0.378418	
-0.38092	
-0.383667	
-0.387085	
-0.390381	
-0.392761	
-0.396118	
-0.40094	
-0.405518	
-0.410339	
-0.415161	
-0.421631	
-0.427246	
-0.434692	
-0.44165	
-0.446594	
-0.451538	
-0.457397	
-0.461853	
-0.465271	
-0.46759	
-0.469971	
-0.471313	
-0.471802	
-0.47229	
-0.471191	
-0.46991	
-0.468262	
-0.468262	
-0.46875	
-0.469299	
-0.468811	
-0.470276	
-0.471741	
-0.473755	
-0.47522	
-0.478271	
-0.480713	
-0.484436	
-0.488342	
-0.493225	
-0.496826	
-0.500305	
-0.503052	
-0.505127	
-0.506775	
-0.50647	
-0.504639	
-0.502014	
-0.50116	
-0.496887	
-0.493042	
-0.487854	
-0.482666	
-0.476624	
-0.471252	
-0.466675	
-0.462646	
-0.45636	
-0.452454	
-0.450378	
-0.447021	
-0.444092	
-0.441101	
-0.438599	
-0.436218	
-0.433655	
-0.431274	
-0.428833	
-0.423889	
-0.419861	
-0.415344	
-0.411072	
-0.405579	
-0.400146	
-0.395569	
-0.389954	
-0.385132	
-0.380005	
-0.374023	
-0.366028	
-0.359253	
-0.351563	
-0.344299	
-0.336548	
-0.328186	
-0.320984	
-0.314026	
-0.307617	
-0.301331	
-0.2948	
-0.287842	
-0.28241	
-0.278564	
-0.275024	
-0.272461	
-0.269409	
-0.268677	
-0.268127	
-0.268677	
-0.26825	
-0.269348	
-0.269104	
-0.271423	
-0.272705	
-0.275818	
-0.27832	
-0.281128	
-0.284058	
-0.287842	
-0.291321	
-0.294495	
-0.297241	
-0.301025	
-0.305786	
-0.309631	
-0.314148	
-0.317078	
-0.322632	
-0.326782	
-0.330383	
-0.334534	
-0.337402	
-0.340149	
-0.343018	
-0.346191	
-0.34906	
-0.35144	
-0.354431	
-0.356995	
-0.359802	
-0.362183	
-0.36377	
-0.364746	
-0.367065	
-0.368652	
-0.371155	
-0.372925	
-0.373901	
-0.375977	
-0.377625	
-0.379578	
-0.380249	
-0.381104	
-0.381165	
-0.383972	
-0.385254	
-0.385742	
-0.386658	
-0.387817	
-0.388733	
-0.389771	
-0.390015	
-0.391052	
-0.389526	
-0.390869	
-0.391907	
-0.391907	
-0.392151	
-0.391235	
-0.392456	
-0.392883	
-0.393372	
-0.39209	
-0.391663	
-0.391235	
-0.391663	
-0.391235	
-0.390991	
-0.390503	
-0.390625	
-0.390686	
-0.391541	
-0.391113	
-0.390564	
-0.389282	
-0.387817	
-0.389771	
-0.389526	
-0.389893	
-0.389709	
-0.389343	
-0.389404	
-0.390869	
-0.390137	
-0.389893	
-0.388489	
-0.389832	
-0.390015	
-0.389893	
-0.389832	
-0.39032	
-0.389771	
-0.390381	
-0.390747	
-0.389893	
-0.389343	
-0.388489	
-0.388672	
-0.388794	
-0.387878	
-0.387817	
-0.386719	
-0.386963	
-0.387939	
-0.386658	
-0.386475	
-0.385437	
-0.385132	
-0.385437	
-0.385864	
-0.386047	
-0.385986	
-0.386169	
-0.38739	
-0.386841	
-0.386963	
-0.385437	
-0.386597	
-0.386841	
-0.387512	
-0.387695	
-0.388184	
-0.388916	
-0.390259	
-0.390137	
-0.389954	
-0.389587	
-0.389343	
-0.390076	
-0.390259	
-0.39032	
-0.389771	
-0.389587	
-0.390442	
-0.390991	
-0.390564	
-0.390259	
-0.389587	
-0.390076	
-0.390198	
-0.390686	
-0.390564	
-0.390076	
-0.390747	
-0.390686	
-0.391846	
-0.391235	
-0.390686	
-0.390259	
-0.391052	
-0.391357	
-0.391174	
-0.391052	
-0.391479	
-0.391541	
-0.392273	
-0.391785	
-0.39032	
-0.39032	
-0.392029	
-0.39209	
-0.391907	
-0.392212	
-0.391113	
-0.392578	
-0.392151	
-0.392578	
-0.392944	
-0.391541	
-0.39032	
-0.391663	
-0.391357	
-0.391602	
-0.390808	
-0.391418	
-0.391602	
-0.391663	
-0.390564	
-0.390015	
-0.390198	
-0.390076	
-0.390381	
-0.391113	
-0.390747	
-0.390991	
-0.391418	
-0.391846	
-0.392456	
-0.391541	
-0.39093	
-0.39093	
-0.391907	
-0.392029	
-0.39209	
-0.391846	
-0.391602	
-0.392212	
-0.392822	
-0.393311	
-0.391602	
-0.391418	
-0.391479	
-0.392151	
-0.392456	
-0.391846	
-0.392212	
-0.391541	
-0.392517	
-0.392456	
-0.393738	
-0.39209	
-0.392212	
-0.390747	
-0.392883	
-0.392151	
-0.392578	
-0.392761	
-0.391235	
-0.393555	
-0.39325	
-0.39386	
-0.393005	
-0.393311	
-0.392029	
-0.393799	
-0.3927	
-0.39386	
-0.393433	
-0.394165	
-0.394714	
-0.394348	
-0.394531	
-0.394531	
-0.394165	
-0.393066	
-0.395081	
-0.393921	
-0.393494	
-0.393616	
-0.39386	
-0.394287	
-0.39325	
-0.392334	
-0.3927	
-0.391846	
-0.392151	
-0.392212	
-0.391968	
-0.391907	
-0.389893	
-0.391235	
-0.391846	
-0.3927	
-0.390991	
-0.390564	
-0.389954	
-0.391296	
-0.391052	
-0.391296	
-0.391174	
-0.391602	
-0.391724	
-0.391663	
-0.391418	
-0.391602	
-0.391052	
-0.391174	
-0.392212	
-0.391418	
-0.391541	
-0.390625	
-0.392151	
-0.392883	
-0.393066	
-0.391907	
-0.392395	
-0.390991	
-0.392212	
-0.391907	
-0.391846	
-0.391785	
-0.391357	
-0.392029	
-0.392944	
-0.392334	
-0.392517	
-0.39209	
-0.39209	
-0.393738	
-0.39209	
-0.393066	
-0.393372	
-0.393494	
-0.393738	
-0.394836	
-0.393921	
-0.393616	
-0.392639	
-0.394043	
-0.39447	
-0.392761	
-0.393677	
-0.393066	
-0.393433	
-0.393921	
-0.393555	
-0.392761	
-0.392212	
-0.390808	
-0.391785	
-0.391418	
-0.390808	
-0.390381	
-0.38916	
-0.390442	
-0.390381	
-0.389771	
-0.388855	
-0.38916	
-0.388977	
-0.388611	
-0.388489	
-0.387939	
-0.387756	
-0.386597	
-0.387817	
-0.388794	
-0.388184	
-0.387085	
-0.387512	
-0.387207	
-0.387634	
-0.387268	
-0.38739	
-0.38739	
-0.38678	
-0.387878	
-0.389587	
-0.389587	
-0.388062	
-0.387695	
-0.388428	
-0.388977	
-0.388916	
-0.388367	
-0.388428	
-0.389282	
-0.389465	
-0.391357	
-0.390198	
-0.390015	
-0.389404	
-0.389954	
-0.391296	
-0.391785	
-0.391541	
-0.391663	
-0.391357	
-0.392029	
-0.392334	
-0.392822	
-0.392212	
-0.391357	
-0.391907	
-0.393311	
-0.392151	
-0.392639	
-0.392456	
-0.393005	
-0.393311	
-0.393677	
-0.393311	
-0.3927	
-0.393494	
-0.391541	
-0.393066	
-0.391113	
-0.391907	
-0.390625	
-0.392029	
-0.393555	
-0.392273	
-0.392029	
-0.391296	
-0.391235	
-0.391785	
-0.391724	
-0.391235	
-0.39093	
-0.39032	
-0.391602	
-0.392456	
-0.391602	
-0.391296	
-0.389771	
-0.391724	
-0.392151	
-0.391663	
-0.392273	
-0.391968	
-0.392273	
-0.392273	
-0.392151	
-0.392822	
-0.392029	
-0.391785	
-0.392212	
-0.392273	
-0.391907	
-0.391846	
-0.391846	
-0.391541	
-0.392883	
-0.391785	
-0.39209	
-0.39093	
-0.392029	
-0.391174	
-0.391357	
-0.391296	
-0.391052	
-0.390869	
-0.391479	
-0.392761	
-0.391296	
-0.391541	
-0.390442	
-0.392212	
-0.391113	
-0.391968	
-0.390808	
-0.391541	
-0.391418	
-0.392029	
-0.393494	
-0.392029	
-0.393066	
-0.391479	
-0.393311	
-0.392151	
-0.393433	
-0.391113	
-0.391968	
-0.391357	
-0.391968	
-0.393066	
-0.391418	
-0.392029	
-0.389648	
-0.390869	
-0.389771	
-0.391785	
-0.388733	
-0.389771	
-0.38916	
-0.388977	
-0.388977	
-0.388062	
-0.387878	
-0.386841	
-0.387634	
-0.386536	
-0.387634	
-0.38623	
-0.387207	
-0.386719	
-0.387939	
-0.388184	
-0.387634	
-0.387146	
-0.385925	
-0.38739	
-0.386047	
-0.387329	
-0.386658	
-0.387634	
-0.385559	
-0.388	
-0.387512	
-0.387268	
-0.386719	
-0.386169	
-0.386963	
-0.386475	
-0.386536	
-0.38623	
-0.386658	
-0.38623	
-0.388062	
-0.386353	
-0.386353	
-0.386353	
-0.386353	
-0.386475	
-0.386047	
-0.386658	
-0.385803	
-0.386475	
-0.386536	
-0.387695	
-0.386353	
-0.386902	
-0.385986	
-0.386597	
-0.386597	
-0.387695	
-0.387329	
-0.388	
-0.388123	
-0.388123	
-0.389221	
-0.388367	
-0.388672	
-0.386841	
-0.388672	
-0.388306	
-0.388489	
-0.388184	
-0.388245	
-0.38855	
-0.388367	
-0.388794	
-0.388184	
-0.388428	
-0.384949	
-0.387817	
-0.386536	
-0.38739	
-0.386353	
-0.387085	
-0.386963	
-0.387146	
-0.386963	
-0.387146	
-0.387207	
-0.386536	
-0.386841	
-0.384827	
-0.38739	
-0.38623	
-0.386475	
-0.386353	
-0.387329	
-0.386047	
-0.386353	
-0.385742	
-0.385986	
-0.386963	
-0.385864	
-0.386597	
-0.385315	
-0.385559	
-0.384766	
-0.387451	
-0.385193	
-0.385193	
-0.384277	
-0.385254	
-0.38562	
-0.38501	
-0.385132	
-0.384705	
-0.384521	
-0.384033	
-0.38678	
-0.384705	
-0.385315	
-0.383118	
-0.384949	
-0.385315	
-0.384949	
-0.385376	
-0.38446	
-0.385803	
-0.384827	
-0.386169	
-0.386475	
-0.387329	
-0.385559	
-0.386597	
-0.387024	
-0.387573	
-0.387329	
-0.386414	
-0.387207	
-0.387146	
-0.387329	
-0.387939	
-0.387756	
-0.387024	
-0.38739	
-0.386414	
-0.387329	
-0.387146	
-0.386047	
-0.386963	
-0.388062	
-0.387024	
-0.38739	
-0.386597	
-0.387085	
-0.387329	
-0.386108	
-0.387085	
-0.38678	
-0.386169	
-0.386169	
-0.387268	
-0.386414	
-0.386597	
-0.38501	
-0.386902	
-0.386719	
-0.38678	
-0.387085	
-0.387024	
-0.386719	
-0.386719	
-0.387024	
-0.385803	
-0.386108	
-0.384338	
-0.385315	
-0.385193	
-0.385071	
-0.385376	
-0.384888	
-0.384705	
-0.384766	
-0.385498	
-0.384583	
-0.38562	
-0.384583	
-0.384399	
-0.385132	
-0.385132	
-0.385132	
-0.38446	
-0.385193	
-0.385864	
-0.386475	
-0.386353	
-0.387146	
-0.386047	
-0.387573	
-0.387878	
-0.387878	
-0.388916	
-0.388184	
-0.388733	
-0.389038	
-0.389587	
-0.38916	
-0.389893	
-0.388855	
-0.390137	
-0.389771	
-0.390503	
-0.390991	
-0.390198	
-0.390442	
-0.390625	
-0.390747	
-0.391479	
-0.390686	
-0.389954	
-0.390625	
-0.390564	
-0.390747	
-0.390198	
-0.389771	
-0.389954	
-0.389954	
-0.390076	
-0.390198	
-0.389526	
-0.389526	
-0.389832	
-0.390076	
-0.389648	
-0.389099	
-0.388489	
-0.388855	
-0.389587	
-0.388367	
-0.387451	
-0.387146	
-0.387085	
-0.387207	
-0.387512	
-0.38678	
-0.386047	
-0.385437	
-0.385803	
-0.387024	
-0.385803	
-0.386169	
-0.384949	
-0.385315	
-0.384949	
-0.386169	
-0.386658	
-0.385254	
-0.384705	
-0.38446	
-0.387085	
-0.385742	
-0.386475	
-0.38501	
-0.38562	
-0.385193	
-0.386658	
-0.38623	
-0.385925	
-0.385071	
-0.385315	
-0.387085	
-0.385803	
-0.386719	
-0.385071	
-0.386414	
-0.385498	
-0.386841	
-0.385925	
-0.386108	
-0.384827	
-0.385864	
-0.386475	
-0.385864	
-0.385864	
-0.383911	
-0.384949	
-0.384583	
-0.385864	
-0.384949	
-0.384766	
-0.383484	
-0.384949	
-0.385803	
-0.385071	
-0.385437	
-0.383301	
-0.385071	
-0.38446	
-0.38623	
-0.385254	
-0.384583	
-0.383667	
-0.385376	
-0.385925	
-0.385254	
-0.385193	
-0.383972	
-0.385071	
-0.384888	
-0.385803	
-0.385498	
-0.384827	
-0.383972	
-0.385742	
-0.38562	
-0.385681	
-0.385132	
-0.384521	
-0.385071	
-0.384827	
-0.384521	
-0.38501	
-0.384033	
-0.383911	
-0.384766	
-0.38385	
-0.384338	
-0.383423	
-0.384094	
-0.384338	
-0.38501	
-0.38501	
-0.384766	
-0.384766	
-0.385437	
-0.386414	
-0.385376	
-0.385864	
-0.385254	
-0.386169	
-0.386169	
-0.388123	
-0.387573	
-0.387573	
-0.387695	
-0.389221	
-0.390381	
-0.388672	
-0.389099	
-0.387939	
-0.388855	
-0.388733	
-0.390076	
-0.388794	
-0.388245	
-0.387146	
-0.388733	
-0.390015	
-0.388916	
-0.389099	
-0.387634	
-0.388916	
-0.389038	
-0.390076	
-0.388733	
-0.388611	
-0.387268	
-0.389282	
-0.390137	
-0.38916	
-0.389526	
-0.387451	
-0.389099	
-0.388916	
-0.389954	
-0.388916	
-0.388794	
-0.386963	
-0.389099	
-0.390259	
-0.388916	
-0.390015	
-0.388	
-0.389282	
-0.389587	
-0.389526	
-0.389404	
-0.388855	
-0.387817	
-0.389954	
-0.389404	
-0.38855	
-0.389038	
-0.386963	
-0.388306	
-0.388367	
-0.387634	
-0.387207	
-0.387451	
-0.387451	
-0.387756	
-0.387817	
-0.387817	
-0.387939	
-0.387329	
-0.388245	
-0.389526	
-0.388245	
-0.388428	
-0.388123	
-0.388672	
-0.389404	
-0.389221	
-0.388855	
-0.389709	
-0.388672	
-0.388733	
-0.390381	
-0.389099	
-0.38916	
-0.388489	
-0.389526	
-0.389954	
-0.389526	
-0.389526	
-0.389648	
-0.389404	
-0.389832	
-0.39093	
-0.389893	
-0.389465	
-0.388306	
-0.389526	
-0.390991	
-0.389954	
-0.389893	
-0.390625	
-0.390137	
-0.390503	
-0.390198	
-0.390808	
-0.390808	
-0.389526	
-0.391296	
-0.392212	
-0.390564	
-0.390991	
-0.391174	
-0.391418	
-0.391357	
-0.390442	
-0.391235	
-0.391174	
-0.391052	
-0.392029	
-0.393494	
-0.391235	
-0.391479	
-0.390686	
-0.391174	
-0.391418	
-0.389465	
-0.390381	
-0.389648	
-0.389282	
-0.389893	
-0.390564	
-0.389343	
-0.389465	
-0.388	
-0.388733	
-0.389587	
-0.387451	
-0.388184	
-0.387817	
-0.388489	
-0.388733	
-0.389648	
-0.388611	
-0.388428	
-0.387817	
-0.388977	
-0.389465	
-0.387817	
-0.388489	
-0.38855	
-0.38855	
-0.38916	
-0.389709	
-0.388977	
-0.389099	
-0.388611	
-0.388977	
-0.389771	
-0.388489	
-0.38916	
-0.388367	
-0.389221	
-0.389893	
-0.390015	
-0.388855	
-0.388611	
-0.38855	
-0.389099	
-0.390808	
-0.389282	
-0.389282	
-0.388733	
-0.390076	
-0.391235	
-0.391235	
-0.390381	
-0.390259	
-0.389893	
-0.390625	
-0.392212	
-0.390442	
-0.390686	
-0.390015	
-0.39093	
-0.391357	
-0.391418	
-0.390503	
-0.390381	
-0.389771	
-0.390747	
-0.391296	
-0.390076	
-0.389648	
-0.388184	
-0.388611	
-0.388428	
-0.388306	
-0.387268	
-0.387024	
-0.385437	
-0.386841	
-0.38739	
-0.386536	
-0.385986	
-0.384827	
-0.385803	
-0.385803	
-0.385681	
-0.385498	
-0.385498	
-0.38385	
-0.385193	
-0.38501	
-0.384094	
-0.383911	
-0.382813	
-0.38501	
-0.384949	
-0.38501	
-0.384888	
-0.385986	
-0.38385	
-0.385071	
-0.385071	
-0.385559	
-0.38562	
-0.384216	
-0.386414	
-0.386047	
-0.38623	
-0.386047	
-0.38739	
-0.385864	
-0.386841	
-0.386719	
-0.38739	
-0.387634	
-0.386169	
-0.389099	
-0.389099	
-0.388794	
-0.388428	
-0.389404	
-0.388672	
-0.389404	
-0.388794	
-0.389221	
-0.389221	
-0.388367	
-0.390503	
-0.390381	
-0.390259	
-0.389587	
-0.390381	
-0.390076	
-0.39032	
-0.389526	
-0.389954	
-0.389893	
-0.389648	
-0.390198	
-0.389954	
-0.389587	
-0.388245	
-0.38916	
-0.389282	
-0.389954	
-0.389038	
-0.389038	
-0.388672	
-0.389282	
-0.389587	
-0.389526	
-0.388916	
-0.388611	
-0.388855	
-0.389099	
-0.390137	
-0.388794	
-0.389648	
-0.389099	
-0.389954	
-0.389526	
-0.390076	
-0.389832	
-0.389587	
-0.389771	
-0.389954	
-0.391602	
-0.389526	
-0.39032	
-0.389343	
-0.39032	
-0.389771	
-0.390503	
-0.389343	
-0.389648	
-0.389404	
-0.389709	
-0.390747	
-0.389282	
-0.389526	
-0.388306	
-0.389343	
-0.38916	
-0.389526	
-0.388977	
-0.389099	
-0.388977	
-0.389221	
-0.390503	
-0.38916	
-0.388855	
-0.387878	
-0.389526	
-0.389343	
-0.390076	
-0.389282	
-0.389771	
-0.389526	
-0.390137	
-0.391418	
-0.390015	
-0.390137	
-0.388428	
-0.390564	
-0.389832	
-0.390625	
-0.389221	
-0.389893	
-0.388916	
-0.389099	
-0.38916	
-0.389038	
-0.388184	
-0.386475	
-0.38916	
-0.388062	
-0.388245	
-0.386841	
-0.387207	
-0.385315	
-0.386108	
-0.386475	
-0.385559	
-0.385132	
-0.384888	
-0.385864	
-0.385437	
-0.385498	
-0.38501	
-0.385803	
-0.384216	
-0.385681	
-0.38562	
-0.385193	
-0.384888	
-0.384094	
-0.385498	
-0.385437	
-0.385437	
-0.384338	
-0.385864	
-0.383972	
-0.38562	
-0.384766	
-0.384644	
-0.384338	
-0.383789	
-0.386108	
-0.384827	
-0.384644	
-0.38385	
-0.385376	
-0.38385	
-0.385559	
-0.384094	
-0.384583	
-0.384094	
-0.383667	
-0.385254	
-0.384521	
-0.384277	
-0.383667	
-0.384521	
-0.384766	
-0.38562	
-0.384399	
-0.384888	
-0.384338	
-0.384644	
-0.38562	
-0.386475	
-0.385986	
-0.38562	
-0.385803	
-0.386047	
-0.386841	
-0.386169	
-0.386597	
-0.385681	
-0.386047	
-0.386658	
-0.387085	
-0.385681	
-0.386719	
-0.385986	
-0.385925	
-0.38623	
-0.385193	
-0.385132	
-0.384766	
-0.385193	
-0.385437	
-0.386353	
-0.384949	
-0.385559	
-0.384705	
-0.385132	
-0.385742	
-0.384766	
-0.38446	
-0.383728	
-0.385254	
-0.384644	
-0.385193	
-0.384583	
-0.385437	
-0.383789	
-0.384216	
-0.384644	
-0.384155	
-0.384094	
-0.383301	
-0.38446	
-0.383789	
-0.383667	
-0.383606	
-0.38385	
-0.382507	
-0.383423	
-0.383179	
-0.383362	
-0.38324	
-0.382751	
-0.38385	
-0.383423	
-0.382874	
-0.382629	
-0.382874	
-0.382874	
-0.382996	
-0.383545	
-0.382568	
-0.38269	
-0.382813	
-0.384033	
-0.383789	
-0.38324	
-0.38324	
-0.383911	
-0.384644	
-0.384216	
-0.385254	
-0.384583	
	
