E:\DOCUMENTS AND SETTINGS\JPOTAS\MEUS DOCUMENTOS\UFRJ\RSCI-BM 12 WK SERIES\070719-RSCI-BM-02\RSCI-BM-02-LEMG\070719-RSCI-BM-02-LEMG-0011.ACQ
0.025000 msec/sample
1 channel
Analog input
Volts
CH1	
2000	
-0.400513	
-0.401428	
-0.400085	
-0.39978	
-0.400391	
-0.399475	
-0.400085	
-0.398621	
-0.398499	
-0.400146	
-0.400024	
-0.399719	
-0.400146	
-0.400024	
-0.399048	
-0.398987	
-0.398376	
-0.398743	
-0.398376	
-0.397705	
-0.398438	
-0.397949	
-0.398315	
-0.398804	
-0.398804	
-0.398132	
-0.397461	
-0.397949	
-0.397888	
-0.397888	
-0.3974	
-0.397705	
-0.397949	
-0.398254	
-0.399292	
-0.399414	
-0.398621	
-0.398682	
-0.398376	
-0.398376	
-0.397888	
-0.396912	
-0.397705	
-0.397461	
-0.397095	
-0.397766	
-0.397583	
-0.396179	
-0.396484	
-0.396423	
-0.395264	
-0.395569	
-0.394653	
-0.395325	
-0.395386	
-0.395081	
-0.395264	
-0.395386	
-0.394836	
-0.393921	
-0.394958	
-0.393005	
-0.393738	
-0.393005	
-0.393372	
-0.393127	
-0.393616	
-0.393799	
-0.39386	
-0.394348	
-0.39386	
-0.393494	
-0.393311	
-0.39386	
-0.393555	
-0.39325	
-0.39447	
-0.394226	
-0.394653	
-0.395325	
-0.395813	
-0.395203	
-0.394653	
-0.395142	
-0.395874	
-0.395264	
-0.394043	
-0.395996	
-0.396301	
-0.396423	
-0.397034	
-0.397034	
-0.396057	
-0.395813	
-0.3974	
-0.39679	
-0.396912	
-0.395874	
-0.397217	
-0.3974	
-0.398071	
-0.398987	
-0.399719	
-0.398865	
-0.398865	
-0.400452	
-0.397888	
-0.399658	
-0.398865	
-0.398865	
-0.399292	
-0.399597	
-0.400024	
-0.399902	
-0.400146	
-0.399475	
-0.400513	
-0.399597	
-0.39978	
-0.399719	
-0.400146	
-0.400269	
-0.400513	
-0.400513	
-0.40033	
-0.400757	
-0.399963	
-0.399475	
-0.399353	
-0.399353	
-0.398987	
-0.397766	
-0.398926	
-0.399292	
-0.399231	
-0.399353	
-0.400146	
-0.399353	
-0.398315	
-0.398865	
-0.398743	
-0.399109	
-0.397705	
-0.398621	
-0.398804	
-0.398499	
-0.398804	
-0.399353	
-0.398071	
-0.397949	
-0.399231	
-0.397705	
-0.397034	
-0.396484	
-0.396973	
-0.396606	
-0.397034	
-0.397583	
-0.397644	
-0.396851	
-0.396912	
-0.396729	
-0.395691	
-0.396912	
-0.396484	
-0.396729	
-0.39679	
-0.397034	
-0.397278	
-0.3974	
-0.396912	
-0.396057	
-0.395264	
-0.395203	
-0.396118	
-0.39563	
-0.393738	
-0.395508	
-0.395752	
-0.395508	
-0.395935	
-0.395752	
-0.394714	
-0.394165	
-0.394592	
-0.394714	
-0.394653	
-0.392944	
-0.394592	
-0.393982	
-0.393799	
-0.394897	
-0.395203	
-0.393311	
-0.393127	
-0.394043	
-0.393372	
-0.382568	
-0.380249	
-0.381836	
-0.382874	
-0.383118	
-0.383667	
-0.396118	
-0.395447	
-0.394592	
-0.395386	
-0.394043	
-0.393616	
-0.39325	
-0.394287	
-0.394714	
-0.394531	
-0.394714	
-0.395325	
-0.395081	
-0.395386	
-0.394897	
-0.393433	
-0.395203	
-0.395447	
-0.395752	
-0.395996	
-0.396118	
-0.396423	
-0.397095	
-0.3974	
-0.396301	
-0.395752	
-0.395142	
-0.396484	
-0.395569	
-0.395447	
-0.396057	
-0.396118	
-0.395935	
-0.396973	
-0.397705	
-0.396057	
-0.396423	
-0.396545	
-0.396545	
-0.396301	
-0.396057	
-0.397583	
-0.397156	
-0.39679	
-0.396973	
-0.397339	
-0.394775	
-0.394836	
-0.394226	
-0.392822	
-0.391724	
-0.389648	
-0.390442	
-0.389526	
-0.389709	
-0.390198	
-0.391663	
-0.392456	
-0.394775	
-0.398376	
-0.400085	
-0.403809	
-0.405762	
-0.409058	
-0.413025	
-0.416809	
-0.421997	
-0.427307	
-0.4328	
-0.438049	
-0.443848	
-0.447571	
-0.452881	
-0.45575	
-0.450195	
-0.452576	
-0.456726	
-0.460632	
-0.46344	
-0.463501	
-0.476563	
-0.477417	
-0.475586	
-0.475159	
-0.473145	
-0.474365	
-0.474304	
-0.474487	
-0.475647	
-0.477295	
-0.476807	
-0.478149	
-0.479919	
-0.481873	
-0.484314	
-0.485352	
-0.489746	
-0.492493	
-0.4953	
-0.498535	
-0.502869	
-0.504089	
-0.505432	
-0.507446	
-0.507751	
-0.507996	
-0.506226	
-0.50708	
-0.50531	
-0.502319	
-0.500183	
-0.496765	
-0.490845	
-0.485779	
-0.481689	
-0.47583	
-0.469788	
-0.463318	
-0.459839	
-0.456177	
-0.451904	
-0.449341	
-0.447144	
-0.443665	
-0.441711	
-0.44104	
-0.438293	
-0.43634	
-0.433716	
-0.431885	
-0.429443	
-0.426392	
-0.423828	
-0.419739	
-0.414612	
-0.409485	
-0.405579	
-0.39856	
-0.394104	
-0.38855	
-0.382629	
-0.377686	
-0.372498	
-0.366943	
-0.361206	
-0.354797	
-0.347412	
-0.341736	
-0.334839	
-0.330261	
-0.324707	
-0.318542	
-0.315369	
-0.311401	
-0.308899	
-0.305847	
-0.30542	
-0.303101	
-0.303711	
-0.302856	
-0.306335	
-0.309021	
-0.312988	
-0.317627	
-0.32196	
-0.326965	
-0.331116	
-0.336487	
-0.339233	
-0.344971	
-0.347656	
-0.352295	
-0.356384	
-0.361755	
-0.366821	
-0.372253	
-0.377502	
-0.382996	
-0.387634	
-0.391968	
-0.398254	
-0.401978	
-0.408142	
-0.412109	
-0.418457	
-0.423279	
-0.427856	
-0.431641	
-0.435181	
-0.437805	
-0.439636	
-0.441345	
-0.443604	
-0.445007	
-0.445801	
-0.446045	
-0.445313	
-0.44458	
-0.443542	
-0.442383	
-0.440674	
-0.440552	
-0.438232	
-0.438049	
-0.437561	
-0.437195	
-0.435608	
-0.435059	
-0.434265	
-0.433411	
-0.432373	
-0.430664	
-0.431213	
-0.428406	
-0.428467	
-0.426514	
-0.424927	
-0.422302	
-0.420288	
-0.417419	
-0.414368	
-0.412048	
-0.407837	
-0.403625	
-0.399353	
-0.395569	
-0.390442	
-0.385071	
-0.381226	
-0.375916	
-0.370178	
-0.363953	
-0.35791	
-0.350159	
-0.342896	
-0.33606	
-0.328674	
-0.323914	
-0.315613	
-0.312134	
-0.306946	
-0.302856	
-0.29834	
-0.295166	
-0.291931	
-0.289246	
-0.287109	
-0.28656	
-0.28595	
-0.285278	
-0.286926	
-0.288147	
-0.289978	
-0.292114	
-0.294739	
-0.296936	
-0.301086	
-0.303833	
-0.30719	
-0.310242	
-0.314148	
-0.317566	
-0.321045	
-0.324158	
-0.327271	
-0.329224	
-0.330994	
-0.334534	
-0.335205	
-0.338501	
-0.339172	
-0.343384	
-0.345886	
-0.348816	
-0.350952	
-0.35321	
-0.354797	
-0.357239	
-0.356934	
-0.359741	
-0.361206	
-0.362488	
-0.365845	
-0.367676	
-0.370361	
-0.371216	
-0.373352	
-0.374146	
-0.376953	
-0.377502	
-0.379578	
-0.380859	
-0.382568	
-0.384094	
-0.385681	
-0.387817	
-0.388977	
-0.389771	
-0.389221	
-0.391663	
-0.391296	
-0.39209	
-0.392578	
-0.39325	
-0.393433	
-0.393921	
-0.395386	
-0.395203	
-0.39563	
-0.394775	
-0.39679	
-0.394958	
-0.395142	
-0.394775	
-0.395142	
-0.395935	
-0.396301	
-0.397156	
-0.397461	
-0.398071	
-0.397034	
-0.398315	
-0.397644	
-0.398499	
-0.397461	
-0.399353	
-0.400085	
-0.400574	
-0.401855	
-0.401917	
-0.401855	
-0.400452	
-0.401672	
-0.400696	
-0.400818	
-0.400085	
-0.400879	
-0.401001	
-0.401367	
-0.401794	
-0.401123	
-0.400574	
-0.399719	
-0.400024	
-0.398315	
-0.398865	
-0.397339	
-0.397766	
-0.397705	
-0.397766	
-0.397766	
-0.397461	
-0.396729	
-0.395935	
-0.396667	
-0.39502	
-0.395996	
-0.394836	
-0.396057	
-0.396179	
-0.396179	
-0.396484	
-0.397217	
-0.396118	
-0.394897	
-0.395935	
-0.395264	
-0.395386	
-0.395325	
-0.395203	
-0.395142	
-0.395508	
-0.394714	
-0.395386	
-0.39386	
-0.39447	
-0.392273	
-0.392578	
-0.392395	
-0.391052	
-0.391479	
-0.391541	
-0.391907	
-0.391052	
-0.390503	
-0.389465	
-0.389771	
-0.389404	
-0.388794	
-0.38855	
-0.389343	
-0.389282	
-0.389099	
-0.389648	
-0.391174	
-0.389832	
-0.389587	
-0.389954	
-0.389648	
-0.388916	
-0.389343	
-0.390015	
-0.39032	
-0.391235	
-0.39093	
-0.391602	
-0.391235	
-0.391357	
-0.390137	
-0.391541	
-0.391907	
-0.392212	
-0.392395	
-0.392944	
-0.39386	
-0.393982	
-0.393188	
-0.393921	
-0.393921	
-0.393799	
-0.393616	
-0.394104	
-0.394653	
-0.394287	
-0.39447	
-0.394958	
-0.395874	
-0.395386	
-0.395081	
-0.395874	
-0.396179	
-0.395691	
-0.395996	
-0.397156	
-0.397522	
-0.398132	
-0.397888	
-0.398987	
-0.398254	
-0.396912	
-0.39801	
-0.397705	
-0.396973	
-0.397156	
-0.398315	
-0.398132	
-0.398438	
-0.398865	
-0.399109	
-0.398743	
-0.398254	
-0.398926	
-0.39856	
-0.398132	
-0.398315	
-0.399658	
-0.399719	
-0.399963	
-0.400757	
-0.40094	
-0.400269	
-0.399719	
-0.399536	
-0.398254	
-0.397888	
-0.398254	
-0.398926	
-0.399292	
-0.399109	
-0.400146	
-0.39978	
-0.399719	
-0.398804	
-0.399048	
-0.398193	
-0.397217	
-0.397705	
-0.398438	
-0.39856	
-0.39801	
-0.398499	
-0.398193	
-0.398865	
-0.397339	
-0.397888	
-0.39679	
-0.395691	
-0.396362	
-0.397034	
-0.396912	
-0.397278	
-0.397766	
-0.397095	
-0.397644	
-0.397095	
-0.397644	
-0.396545	
-0.396606	
-0.397156	
-0.397705	
-0.397827	
-0.397827	
-0.398132	
-0.397949	
-0.398071	
-0.396912	
-0.397339	
-0.396545	
-0.396545	
-0.395508	
-0.396057	
-0.395874	
-0.395691	
-0.396484	
-0.395874	
-0.396057	
-0.394409	
-0.394653	
-0.394531	
-0.394165	
-0.393311	
-0.394287	
-0.39386	
-0.393677	
-0.394226	
-0.394775	
-0.39502	
-0.392334	
-0.392639	
-0.392151	
-0.392883	
-0.392883	
-0.393188	
-0.393066	
-0.393677	
-0.394043	
-0.394409	
-0.394775	
-0.394104	
-0.393921	
-0.392578	
-0.394531	
-0.394592	
-0.394897	
-0.39502	
-0.395874	
-0.395935	
-0.39679	
-0.396057	
-0.396423	
-0.396118	
-0.39502	
-0.396484	
-0.396729	
-0.396973	
-0.3974	
-0.397827	
-0.397583	
-0.398743	
-0.397522	
-0.397705	
-0.396851	
-0.396423	
-0.397644	
-0.39801	
-0.398315	
-0.399109	
-0.399719	
-0.399414	
-0.400757	
-0.399902	
-0.400024	
-0.399414	
-0.398254	
-0.39978	
-0.39917	
-0.399902	
-0.39978	
-0.400208	
-0.400024	
-0.402039	
-0.400879	
-0.400757	
-0.400513	
-0.399292	
-0.40094	
-0.399841	
-0.400513	
-0.400391	
-0.400879	
-0.400452	
-0.401123	
-0.40094	
-0.399902	
-0.400146	
-0.398071	
-0.399597	
-0.39917	
-0.399414	
-0.399231	
-0.400024	
-0.399719	
-0.400818	
-0.400391	
-0.399841	
-0.399414	
-0.398315	
-0.398804	
-0.398743	
-0.398621	
-0.398987	
-0.399109	
-0.398438	
-0.39978	
-0.398987	
-0.398438	
-0.398438	
-0.396545	
-0.397705	
-0.3974	
-0.397522	
-0.397339	
-0.397949	
-0.397644	
-0.398376	
-0.398132	
-0.397339	
-0.397705	
-0.396057	
-0.397156	
-0.397034	
-0.3974	
-0.396912	
-0.397522	
-0.397339	
-0.398071	
-0.397095	
-0.396362	
-0.396729	
-0.394531	
-0.395569	
-0.395203	
-0.395447	
-0.395325	
-0.395752	
-0.395569	
-0.396423	
-0.395508	
-0.394897	
-0.395264	
-0.393799	
-0.39386	
-0.394226	
-0.394043	
-0.394043	
-0.394165	
-0.394043	
-0.394714	
-0.393799	
-0.393188	
-0.393433	
-0.391968	
-0.392029	
-0.392456	
-0.393372	
-0.393677	
-0.394043	
-0.393738	
-0.394592	
-0.394165	
-0.393127	
-0.393616	
-0.392212	
-0.392578	
-0.393555	
-0.393738	
-0.393677	
-0.39447	
-0.394287	
-0.395691	
-0.394897	
-0.394226	
-0.394714	
-0.393738	
-0.394348	
-0.394409	
-0.394897	
-0.395264	
-0.395081	
-0.395508	
-0.396484	
-0.39563	
-0.394775	
-0.39502	
-0.39386	
-0.394409	
-0.395081	
-0.393738	
-0.394653	
-0.394531	
-0.394653	
-0.395325	
-0.394958	
-0.394653	
-0.394409	
-0.394531	
-0.395264	
-0.395447	
-0.394958	
-0.396362	
-0.396606	
-0.397522	
-0.398132	
-0.3974	
-0.397461	
-0.397644	
-0.397583	
-0.397888	
-0.398499	
-0.397827	
-0.398621	
-0.39917	
-0.399597	
-0.398987	
-0.399292	
-0.398438	
-0.398193	
-0.398315	
-0.39801	
-0.398132	
-0.397461	
-0.397949	
-0.398071	
-0.398926	
-0.398132	
-0.398804	
-0.397705	
-0.397034	
-0.398254	
-0.3974	
-0.397217	
-0.397217	
-0.397461	
-0.397339	
-0.397461	
-0.397034	
-0.396973	
-0.395996	
-0.395996	
-0.395691	
-0.395569	
-0.394714	
-0.395264	
-0.395325	
-0.395203	
-0.395203	
-0.395386	
-0.395142	
-0.394653	
-0.39447	
-0.394409	
-0.393982	
-0.393066	
-0.394104	
-0.393555	
-0.393433	
-0.393494	
-0.393005	
-0.393188	
-0.393066	
-0.392151	
-0.392273	
-0.392273	
-0.39093	
-0.391968	
-0.391357	
-0.392578	
-0.392334	
-0.392456	
-0.393066	
-0.392334	
-0.391296	
-0.391418	
-0.39209	
-0.390625	
-0.390991	
-0.390381	
-0.391052	
-0.390869	
-0.391235	
-0.391052	
-0.390381	
-0.390137	
-0.39093	
-0.391724	
-0.390808	
-0.391174	
-0.391113	
-0.391479	
-0.391785	
-0.392517	
-0.391663	
-0.391602	
-0.391541	
-0.391357	
-0.391296	
-0.391541	
-0.391846	
-0.391541	
-0.391846	
-0.392334	
-0.393372	
-0.392456	
-0.393066	
-0.39209	
-0.392578	
-0.392456	
-0.393127	
-0.393372	
-0.393555	
-0.393982	
-0.394287	
-0.39502	
-0.394348	
-0.394958	
-0.393799	
-0.394043	
-0.39386	
-0.393555	
-0.393494	
-0.393616	
-0.393799	
-0.393616	
-0.39447	
-0.392761	
-0.393494	
-0.392578	
-0.393066	
-0.393372	
-0.393738	
-0.392944	
-0.393982	
-0.393982	
-0.394714	
-0.395874	
-0.395142	
-0.396118	
-0.395386	
-0.395508	
-0.395264	
-0.395508	
-0.394714	
-0.395691	
-0.395142	
-0.396118	
-0.397034	
-0.397339	
-0.397888	
-0.396606	
-0.397034	
-0.397705	
-0.398193	
-0.3974	
-0.397583	
-0.39679	
-0.397522	
-0.397827	
-0.397522	
-0.397644	
-0.396851	
-0.396057	
-0.396851	
-0.397644	
-0.396301	
-0.396606	
-0.396301	
-0.396484	
-0.396484	
-0.395996	
-0.395996	
-0.39563	
-0.393799	
-0.395203	
-0.395447	
-0.39502	
-0.39447	
-0.394836	
-0.394958	
-0.394836	
-0.394897	
-0.394775	
-0.393982	
-0.392395	
-0.394104	
-0.394592	
-0.393799	
-0.393188	
-0.394043	
-0.393616	
-0.393616	
-0.394348	
-0.392639	
-0.392151	
-0.390869	
-0.392029	
-0.391846	
-0.391602	
-0.390869	
-0.391968	
-0.391724	
-0.391846	
-0.393494	
-0.391602	
-0.391418	
-0.390747	
-0.391602	
-0.390564	
-0.390625	
-0.389343	
-0.390564	
-0.390564	
-0.390991	
-0.392883	
-0.391418	
-0.391541	
-0.390869	
-0.391479	
-0.390808	
-0.391846	
-0.390625	
-0.391663	
-0.391724	
-0.391968	
-0.392822	
-0.391724	
-0.391541	
-0.391724	
-0.391846	
-0.391663	
-0.391663	
-0.391113	
-0.392517	
-0.391479	
-0.392334	
-0.392944	
-0.3927	
-0.3927	
-0.392517	
-0.393616	
-0.393188	
-0.39386	
-0.393311	
-0.393494	
-0.393127	
-0.394226	
-0.394958	
-0.394226	
-0.394226	
-0.39447	
-0.395325	
-0.393372	
-0.395508	
-0.393982	
-0.394653	
-0.393982	
-0.394714	
-0.395569	
-0.394775	
-0.395142	
-0.394775	
-0.395264	
-0.395203	
-0.396851	
-0.395691	
-0.395325	
-0.395508	
-0.395874	
-0.396179	
-0.395996	
-0.397034	
-0.396179	
-0.395447	
-0.39624	
-0.397156	
-0.396484	
-0.396606	
-0.396606	
-0.396973	
-0.397522	
-0.397888	
-0.397827	
-0.397339	
-0.396301	
-0.397522	
-0.397949	
-0.397644	
-0.397522	
-0.397095	
-0.396973	
-0.397278	
-0.398376	
-0.397705	
-0.396851	
-0.395996	
-0.3974	
-0.397705	
-0.396851	
-0.396667	
-0.396423	
-0.395447	
-0.396301	
-0.397278	
-0.395813	
-0.395203	
-0.394531	
-0.395203	
-0.394836	
-0.395264	
-0.394165	
-0.394897	
-0.394226	
-0.395447	
-0.396301	
-0.395081	
-0.394897	
-0.394043	
-0.395752	
-0.394409	
-0.395691	
-0.394348	
-0.395508	
-0.395264	
-0.395447	
-0.396484	
-0.395569	
-0.395508	
-0.394531	
-0.39624	
-0.394226	
-0.395325	
-0.394104	
-0.394104	
-0.393127	
-0.393372	
-0.394287	
-0.392639	
-0.392822	
-0.391846	
-0.392822	
-0.390808	
-0.391541	
-0.391052	
-0.391113	
-0.390625	
-0.390442	
-0.39209	
-0.391357	
-0.391296	
-0.390869	
-0.391724	
-0.391235	
-0.391296	
-0.390869	
-0.391479	
-0.390991	
-0.39032	
-0.391968	
-0.391663	
-0.3927	
-0.391479	
-0.391541	
-0.391418	
-0.392395	
-0.392029	
-0.391846	
-0.392029	
-0.391357	
-0.393372	
-0.392944	
-0.393127	
-0.392822	
-0.393188	
-0.393188	
-0.393982	
-0.394165	
-0.392639	
-0.394226	
-0.393494	
-0.394592	
-0.394653	
-0.394775	
-0.394226	
-0.393921	
-0.395264	
-0.394592	
-0.395691	
-0.394714	
-0.395874	
-0.395264	
-0.396545	
-0.397217	
-0.396729	
-0.396667	
-0.395142	
-0.397766	
-0.396179	
-0.397888	
-0.396484	
-0.396667	
-0.396667	
-0.39679	
-0.397522	
-0.397095	
-0.396912	
-0.39563	
-0.398193	
-0.396301	
-0.398132	
-0.397034	
-0.397522	
-0.397095	
-0.397827	
-0.399231	
-0.398132	
-0.398804	
-0.396973	
-0.397949	
-0.396851	
-0.398132	
-0.396851	
-0.396545	
-0.396912	
-0.397217	
-0.398621	
-0.397339	
-0.397522	
-0.396423	
-0.396973	
-0.396179	
-0.397095	
-0.396545	
-0.396423	
-0.396118	
-0.396118	
-0.397034	
-0.395813	
-0.396851	
-0.395203	
-0.395813	
-0.395569	
-0.395081	
-0.394714	
-0.393921	
-0.394897	
-0.394043	
-0.395203	
-0.394714	
-0.395325	
-0.394165	
-0.394714	
-0.394775	
-0.394836	
-0.395386	
-0.393921	
-0.394958	
-0.394775	
-0.396179	
-0.395447	
-0.396606	
-0.395386	
-0.394836	
-0.395569	
-0.394653	
-0.395203	
-0.393921	
-0.394348	
-0.394043	
-0.393982	
-0.393677	
-0.394104	
-0.392456	
-0.391357	
-0.393188	
-0.392273	
-0.392395	
-0.391785	
-0.392029	
-0.391479	
-0.391479	
-0.391602	
-0.391479	
-0.390442	
-0.389648	
-0.390564	
-0.390137	
-0.390381	
-0.389954	
-0.390259	
-0.390259	
-0.390625	
-0.391418	
-0.391052	
-0.390442	
-0.389587	
-0.390808	
-0.391113	
-0.391235	
-0.391296	
-0.391418	
-0.391357	
-0.390991	
-0.392395	
-0.3927	
-0.391968	
-0.39093	
-0.392151	
-0.392273	
-0.393188	
-0.393372	
-0.391968	
-0.392822	
-0.392395	
-0.394104	
-0.393616	
-0.393372	
-0.392578	
-0.393311	
-0.394104	
-0.393738	
-0.395325	
-0.393494	
-0.394653	
-0.394714	
-0.396057	
-0.396484	
-0.395691	
-0.394897	
-0.396057	
-0.39679	
-0.395996	
-0.396545	
-0.394531	
-0.396179	
-0.396301	
-0.397339	
-0.396606	
-0.396606	
-0.395752	
-0.396484	
-0.396301	
-0.396912	
-0.3974	
-0.396606	
-0.397217	
-0.397217	
-0.397766	
-0.396912	
-0.396912	
-0.395752	
-0.39624	
-0.396301	
-0.396057	
-0.396362	
-0.395752	
-0.395996	
-0.395508	
-0.396973	
-0.395935	
-0.39679	
-0.395691	
-0.395325	
-0.396118	
-0.395447	
-0.395752	
-0.395142	
-0.395447	
-0.395081	
-0.39447	
-0.395325	
-0.395569	
-0.394714	
-0.394226	
-0.394531	
-0.394287	
-0.39386	
-0.393921	
-0.393311	
-0.393433	
-0.393616	
-0.393616	
-0.393921	
-0.393311	
-0.392273	
-0.393738	
-0.39325	
-0.393311	
-0.394287	
-0.3927	
-0.393555	
-0.393555	
-0.393921	
-0.393738	
-0.392944	
-0.390808	
-0.392456	
-0.392761	
-0.392456	
-0.393066	
-0.391113	
-0.391907	
-0.392151	
-0.392822	
-0.391907	
-0.391235	
-0.389587	
-0.391602	
-0.39209	
-0.391357	
-0.391785	
-0.390686	
-0.390869	
-0.390991	
-0.391907	
-0.390625	
-0.390076	
-0.388977	
-0.389954	
-0.390808	
-0.389832	
-0.390381	
-0.390198	
-0.39032	
-0.390198	
-0.391479	
-0.390381	
-0.390625	
-0.38916	
-0.390381	
-0.389648	
-0.390381	
-0.390625	
-0.390503	
-0.39093	
-0.390869	
-0.392334	
-0.391724	
-0.392029	
-0.391296	
-0.392029	
-0.391541	
-0.392334	
-0.392761	
-0.392212	
-0.392334	
-0.392456	
-0.393127	
-0.393188	
-0.393005	
-0.392517	
-0.392029	
-0.392029	
-0.392883	
-0.393494	
-0.392822	
-0.392456	
-0.392456	
-0.392212	
-0.392883	
-0.39325	
-0.392212	
-0.391724	
-0.392578	
-0.393066	
-0.393433	
-0.393494	
-0.393066	
-0.394348	
-0.393738	
-0.395752	
-0.395935	
-0.394897	
-0.394653	
-0.395447	
-0.396118	
-0.395874	
-0.396545	
-0.395874	
-0.396667	
-0.396362	
-0.397339	
-0.397217	
-0.396057	
-0.395508	
-0.396118	
-0.396423	
-0.396118	
-0.396606	
-0.395081	
-0.396118	
-0.39624	
-0.39624	
-0.396118	
-0.395508	
-0.393982	
-0.394897	
-0.395752	
-0.395325	
-0.395447	
-0.39386	
-0.394897	
-0.394897	
-0.395508	
-0.395081	
-0.394409	
-0.392822	
-0.394104	
-0.393921	
-0.393494	
-0.394043	
-0.392456	
-0.393066	
-0.393066	
-0.39386	
-0.393066	
-0.3927	
-0.392456	
-0.391357	
-0.393066	
-0.392517	
-0.3927	
-0.392212	
-0.392029	
-0.391663	
-0.391235	
-0.392029	
-0.391113	
-0.390381	
-0.390015	
-0.390076	
-0.390564	
-0.390564	
-0.390991	
-0.39093	
-0.390991	
-0.390381	
-0.391235	
-0.391174	
-0.389954	
-0.389526	
-0.39032	
-0.389954	
-0.390076	
-0.390381	
-0.389771	
-0.389465	
-0.389343	
-0.389893	
-0.39032	
-0.389099	
-0.389404	
-0.389587	
-0.389893	
-0.390198	
-0.390625	
-0.389648	
-0.389893	
-0.39032	
-0.391235	
-0.391174	
-0.389893	
-0.390137	
-0.390503	
-0.39032	
-0.390198	
-0.390808	
-0.389648	
-0.390442	
-0.390808	
-0.391357	
-0.391541	
-0.390747	
-0.391235	
-0.391907	
-0.392578	
-0.392334	
-0.3927	
-0.391357	
-0.392761	
-0.393005	
-0.393127	
-0.392883	
-0.392761	
-0.392395	
-0.392334	
-0.392883	
-0.392761	
-0.392578	
-0.392029	
-0.392395	
-0.392334	
-0.39209	
-0.392456	
-0.391602	
-0.391541	
-0.39093	
-0.392151	
-0.392334	
-0.392944	
-0.393188	
-0.393372	
-0.393982	
-0.393982	
-0.394836	
-0.394897	
-0.394287	
-0.394104	
-0.394043	
-0.394958	
-0.395386	
-0.39502	
-0.395813	
-0.396118	
-0.395752	
-0.396973	
-0.39679	
-0.39563	
-0.396118	
-0.396362	
-0.396912	
-0.396851	
-0.396545	
-0.39679	
-0.39679	
-0.395508	
-0.397095	
-0.397034	
-0.394897	
-0.396423	
-0.396118	
-0.396118	
-0.395996	
-0.396118	
-0.394165	
-0.395569	
-0.394043	
-0.395508	
-0.395508	
-0.393616	
-0.393982	
-0.394226	
-0.394653	
-0.394531	
-0.394775	
-0.393494	
-0.393921	
-0.393799	
-0.394104	
-0.393677	
-0.392944	
-0.393494	
-0.392761	
-0.393799	
-0.393738	
-0.393982	
-0.392761	
-0.392761	
-0.392639	
-0.392395	
-0.392395	
-0.391479	
-0.391296	
-0.389954	
-0.390503	
-0.391357	
-0.392273	
-0.391541	
-0.39093	
-0.39093	
-0.390747	
-0.391296	
-0.39093	
-0.390381	
-0.389587	
-0.390137	
-0.390381	
-0.390869	
-0.389648	
-0.389709	
-0.389954	
-0.39032	
-0.391113	
-0.391296	
-0.390381	
-0.390198	
-0.390808	
-0.391235	
-0.391846	
-0.390747	
-0.390442	
-0.391052	
-0.391113	
-0.392029	
-0.391541	
-0.390564	
-0.390869	
-0.391602	
-0.391602	
-0.391785	
-0.391846	
-0.390625	
-0.391602	
-0.392029	
-0.393005	
-0.39209	
-0.391113	
-0.392212	
-0.392944	
-0.393372	
-0.393799	
-0.393311	
-0.392395	
-0.39386	
-0.394531	
-0.394348	
-0.393921	
-0.393188	
-0.393616	
-0.394104	
-0.393799	
-0.394104	
-0.393982	
-0.392944	
-0.39447	
-0.394104	
-0.394287	
-0.39447	
-0.394226	
-0.394775	
-0.39447	
-0.394897	
-0.39502	
-0.395447	
-0.394714	
-0.395447	
-0.395752	
-0.395752	
-0.395752	
-0.395874	
-0.395447	
-0.395081	
-0.39679	
-0.396362	
-0.396912	
-0.396362	
-0.397156	
-0.397705	
-0.397217	
-0.397583	
-0.397949	
-0.396973	
-0.396484	
-0.39801	
-0.397705	
-0.39801	
-0.397034	
-0.397278	
-0.397339	
-0.397156	
-0.397278	
-0.397461	
-0.397156	
-0.396423	
-0.397278	
-0.397034	
-0.397156	
-0.396362	
-0.396484	
-0.396484	
-0.396179	
-0.396851	
-0.395874	
-0.395752	
-0.39502	
-0.395142	
-0.395264	
-0.395386	
-0.395264	
-0.393921	
-0.394592	
-0.393677	
-0.395874	
-0.395081	
-0.394409	
-0.394958	
-0.395386	
-0.394836	
-0.395691	
-0.39563	
-0.394836	
-0.395203	
-0.394775	
-0.396057	
-0.395325	
-0.394409	
-0.395264	
-0.395142	
-0.394714	
-0.394714	
-0.39502	
-0.393311	
-0.393311	
-0.39325	
-0.393188	
-0.392578	
-0.392883	
-0.391724	
-0.391846	
-0.391479	
-0.391663	
-0.391846	
-0.390442	
-0.390991	
-0.391541	
-0.391479	
-0.390625	
-0.391846	
-0.390991	
-0.391296	
-0.391357	
-0.391357	
-0.391602	
-0.390808	
-0.390625	
-0.391907	
-0.392212	
-0.391602	
-0.392395	
-0.391785	
-0.391968	
-0.392456	
-0.392029	
-0.391968	
-0.392212	
-0.391235	
-0.392578	
-0.392273	
-0.393066	
-0.39325	
-0.392578	
-0.393127	
-0.393555	
-0.394531	
-0.394226	
-0.393982	
-0.393433	
-0.39447	
-0.393616	
-0.394287	
-0.395081	
-0.393677	
-0.394348	
-0.394409	
-0.39563	
-0.395569	
-0.39624	
-0.395752	
-0.396606	
-0.396606	
-0.396545	
-0.397156	
-0.395691	
-0.396729	
-0.396729	
-0.397095	
-0.396606	
-0.397827	
-0.396667	
-0.396606	
-0.397766	
-0.396912	
-0.397278	
-0.396362	
-0.396423	
-0.396545	
-0.397644	
-0.397827	
-0.398132	
-0.397522	
-0.396973	
-0.398621	
-0.397339	
-0.397949	
-0.397217	
-0.396851	
-0.397095	
-0.396179	
-0.397583	
	
