E:\DOCUMENTS AND SETTINGS\JPOTAS\MEUS DOCUMENTOS\UFRJ\RSCI-BM 12 WK SERIES\070719-RSCI-BM-02\RSCI-BM-02-LEMG\070719-RSCI-BM-02-LEMG-0018.ACQ
0.025000 msec/sample
1 channel
Analog input
Volts
CH1	
2000	
-0.389465	
-0.390747	
-0.389771	
-0.390076	
-0.389404	
-0.390381	
-0.391113	
-0.390747	
-0.390808	
-0.390381	
-0.390564	
-0.389648	
-0.390503	
-0.389343	
-0.391052	
-0.390625	
-0.39093	
-0.391663	
-0.391968	
-0.392273	
-0.392212	
-0.391785	
-0.391724	
-0.392334	
-0.391479	
-0.392334	
-0.391296	
-0.39209	
-0.393005	
-0.392151	
-0.3927	
-0.392029	
-0.391907	
-0.391663	
-0.391724	
-0.391907	
-0.391479	
-0.391113	
-0.391235	
-0.39209	
-0.391357	
-0.391235	
-0.390503	
-0.389832	
-0.390503	
-0.389954	
-0.39032	
-0.390259	
-0.39032	
-0.390442	
-0.391296	
-0.390869	
-0.391785	
-0.391418	
-0.390686	
-0.390076	
-0.390503	
-0.390808	
-0.391052	
-0.390808	
-0.391113	
-0.391602	
-0.391479	
-0.391541	
-0.391907	
-0.390808	
-0.391479	
-0.391602	
-0.391968	
-0.392212	
-0.3927	
-0.392761	
-0.39325	
-0.393433	
-0.393799	
-0.393433	
-0.392944	
-0.39325	
-0.392395	
-0.393188	
-0.393311	
-0.39386	
-0.394226	
-0.394836	
-0.394775	
-0.394714	
-0.394409	
-0.393982	
-0.394226	
-0.393005	
-0.394165	
-0.394165	
-0.394165	
-0.394836	
-0.39563	
-0.395203	
-0.395447	
-0.394348	
-0.394226	
-0.394287	
-0.393616	
-0.394592	
-0.39447	
-0.394287	
-0.394348	
-0.394897	
-0.394897	
-0.394836	
-0.39447	
-0.393433	
-0.393311	
-0.392822	
-0.393372	
-0.392883	
-0.393005	
-0.3927	
-0.393311	
-0.392639	
-0.392944	
-0.392212	
-0.391724	
-0.390564	
-0.39032	
-0.391113	
-0.391235	
-0.391357	
-0.390381	
-0.391357	
-0.390991	
-0.390686	
-0.390747	
-0.390137	
-0.390015	
-0.389221	
-0.390015	
-0.389954	
-0.390137	
-0.390015	
-0.390442	
-0.39032	
-0.389893	
-0.389648	
-0.389648	
-0.389526	
-0.388672	
-0.390076	
-0.389587	
-0.389771	
-0.389587	
-0.390625	
-0.390747	
-0.389832	
-0.390015	
-0.389404	
-0.390137	
-0.38916	
-0.390198	
-0.390503	
-0.390564	
-0.390503	
-0.391357	
-0.391418	
-0.390808	
-0.390381	
-0.390381	
-0.39032	
-0.390015	
-0.391052	
-0.391113	
-0.391052	
-0.391418	
-0.391968	
-0.391663	
-0.391541	
-0.390808	
-0.391113	
-0.391296	
-0.391968	
-0.392029	
-0.39209	
-0.392578	
-0.392944	
-0.394348	
-0.394104	
-0.394531	
-0.393372	
-0.393677	
-0.393982	
-0.39502	
-0.395081	
-0.395508	
-0.395813	
-0.396423	
-0.397217	
-0.396851	
-0.396973	
-0.396179	
-0.387207	
-0.384521	
-0.385193	
-0.385681	
-0.385925	
-0.385925	
-0.396057	
-0.397766	
-0.3974	
-0.397217	
-0.395996	
-0.395813	
-0.396057	
-0.396057	
-0.395935	
-0.395142	
-0.395874	
-0.396301	
-0.396851	
-0.396606	
-0.396851	
-0.39624	
-0.396545	
-0.395874	
-0.396606	
-0.396423	
-0.395874	
-0.396667	
-0.396423	
-0.396667	
-0.39679	
-0.396423	
-0.395813	
-0.395447	
-0.394958	
-0.395508	
-0.395142	
-0.394226	
-0.395569	
-0.395264	
-0.395691	
-0.395447	
-0.394775	
-0.394043	
-0.393311	
-0.391724	
-0.391357	
-0.390686	
-0.389038	
-0.388611	
-0.386902	
-0.386719	
-0.38562	
-0.384644	
-0.38324	
-0.382446	
-0.382019	
-0.382813	
-0.383301	
-0.383423	
-0.386169	
-0.388245	
-0.390503	
-0.393799	
-0.395508	
-0.398438	
-0.401855	
-0.405762	
-0.409851	
-0.414185	
-0.418762	
-0.425537	
-0.431519	
-0.438538	
-0.445251	
-0.449585	
-0.454163	
-0.460449	
-0.46582	
-0.470825	
-0.474426	
-0.478027	
-0.480042	
-0.481689	
-0.48291	
-0.482788	
-0.481934	
-0.480835	
-0.480408	
-0.48053	
-0.480774	
-0.480652	
-0.482178	
-0.484497	
-0.487488	
-0.491821	
-0.493286	
-0.496582	
-0.500061	
-0.504822	
-0.507874	
-0.510742	
-0.51239	
-0.515747	
-0.517822	
-0.520691	
-0.522766	
-0.521667	
-0.52002	
-0.517944	
-0.517395	
-0.513672	
-0.510376	
-0.505676	
-0.501465	
-0.496887	
-0.492676	
-0.487793	
-0.481628	
-0.476318	
-0.47345	
-0.469543	
-0.465942	
-0.463196	
-0.46106	
-0.458435	
-0.456543	
-0.454712	
-0.452576	
-0.449097	
-0.446228	
-0.444763	
-0.441467	
-0.439087	
-0.435974	
-0.433044	
-0.429932	
-0.426331	
-0.422974	
-0.417847	
-0.41156	
-0.40509	
-0.400208	
-0.393311	
-0.386902	
-0.379639	
-0.372437	
-0.364136	
-0.355957	
-0.348083	
-0.337158	
-0.32666	
-0.315491	
-0.308167	
-0.299622	
-0.290955	
-0.283691	
-0.277893	
-0.272583	
-0.267761	
-0.266846	
-0.263	
-0.261719	
-0.260681	
-0.261292	
-0.263306	
-0.265503	
-0.266418	
-0.270935	
-0.274231	
-0.279053	
-0.28241	
-0.286133	
-0.2901	
-0.295105	
-0.300171	
-0.30481	
-0.309631	
-0.315125	
-0.320129	
-0.324463	
-0.329834	
-0.332397	
-0.336304	
-0.337036	
-0.34198	
-0.344482	
-0.346558	
-0.348389	
-0.350098	
-0.35199	
-0.354736	
-0.35498	
-0.35553	
-0.356323	
-0.358398	
-0.359985	
-0.361511	
-0.363342	
-0.365356	
-0.367371	
-0.369568	
-0.371643	
-0.371948	
-0.373291	
-0.373291	
-0.377075	
-0.378784	
-0.380188	
-0.380676	
-0.383484	
-0.385376	
-0.389343	
-0.388489	
-0.389648	
-0.389709	
-0.393005	
-0.393677	
-0.394348	
-0.39502	
-0.395813	
-0.396301	
-0.397339	
-0.397156	
-0.396729	
-0.396362	
-0.395691	
-0.396667	
-0.395752	
-0.395569	
-0.394531	
-0.395325	
-0.395325	
-0.397339	
-0.395264	
-0.394775	
-0.39325	
-0.393127	
-0.393494	
-0.393372	
-0.393311	
-0.393433	
-0.393372	
-0.393799	
-0.395203	
-0.393372	
-0.393677	
-0.391846	
-0.393433	
-0.394104	
-0.394104	
-0.393982	
-0.394226	
-0.39386	
-0.394775	
-0.394897	
-0.394104	
-0.393433	
-0.392883	
-0.394836	
-0.393921	
-0.393616	
-0.393799	
-0.393921	
-0.393921	
-0.395203	
-0.394287	
-0.392639	
-0.391418	
-0.39209	
-0.392578	
-0.392151	
-0.391479	
-0.390991	
-0.390869	
-0.391357	
-0.391724	
-0.390442	
-0.390076	
-0.389404	
-0.390991	
-0.39032	
-0.390198	
-0.389893	
-0.389832	
-0.389893	
-0.391113	
-0.390503	
-0.390442	
-0.388916	
-0.389038	
-0.390198	
-0.390442	
-0.390015	
-0.390076	
-0.390198	
-0.391724	
-0.391724	
-0.390808	
-0.390137	
-0.390259	
-0.390747	
-0.390137	
-0.390442	
-0.389038	
-0.390076	
-0.390381	
-0.390686	
-0.389832	
-0.389587	
-0.388733	
-0.389465	
-0.389221	
-0.389099	
-0.388367	
-0.388916	
-0.388733	
-0.38916	
-0.389038	
-0.387512	
-0.386475	
-0.38739	
-0.387146	
-0.386963	
-0.386169	
-0.386414	
-0.386047	
-0.38623	
-0.386353	
-0.386658	
-0.385132	
-0.384216	
-0.384644	
-0.385681	
-0.385193	
-0.385315	
-0.38562	
-0.385742	
-0.386719	
-0.386353	
-0.387146	
-0.385681	
-0.384766	
-0.38501	
-0.385742	
-0.385864	
-0.385071	
-0.385864	
-0.385986	
-0.386719	
-0.386169	
-0.38562	
-0.384216	
-0.385071	
-0.384277	
-0.384888	
-0.38501	
-0.384216	
-0.385071	
-0.384888	
-0.385437	
-0.385376	
-0.385132	
-0.384521	
-0.385315	
-0.384949	
-0.385864	
-0.38623	
-0.385681	
-0.386536	
-0.386719	
-0.387207	
-0.38739	
-0.386536	
-0.385376	
-0.386169	
-0.385864	
-0.386841	
-0.386658	
-0.386963	
-0.38739	
-0.387695	
-0.388611	
-0.38916	
-0.388184	
-0.386841	
-0.388611	
-0.388184	
-0.388	
-0.388306	
-0.388	
-0.387878	
-0.388062	
-0.38855	
-0.388672	
-0.38739	
-0.38623	
-0.386108	
-0.387451	
-0.387573	
-0.387207	
-0.387451	
-0.387695	
-0.388306	
-0.388733	
-0.388855	
-0.388184	
-0.387817	
-0.388489	
-0.389526	
-0.390259	
-0.390503	
-0.390747	
-0.391541	
-0.3927	
-0.392456	
-0.392334	
-0.391968	
-0.391663	
-0.393066	
-0.392944	
-0.392578	
-0.392639	
-0.393066	
-0.39325	
-0.394531	
-0.394348	
-0.393555	
-0.392212	
-0.391907	
-0.393372	
-0.393005	
-0.392944	
-0.392029	
-0.392395	
-0.392273	
-0.392944	
-0.391907	
-0.391418	
-0.389404	
-0.391418	
-0.39093	
-0.390198	
-0.389465	
-0.389526	
-0.389038	
-0.390076	
-0.390076	
-0.388184	
-0.387451	
-0.387085	
-0.388245	
-0.387451	
-0.387695	
-0.387573	
-0.387939	
-0.387512	
-0.389221	
-0.387939	
-0.38678	
-0.385559	
-0.385864	
-0.388	
-0.386902	
-0.387146	
-0.386292	
-0.386841	
-0.387451	
-0.388672	
-0.386597	
-0.387085	
-0.384888	
-0.386841	
-0.386841	
-0.386902	
-0.38678	
-0.385986	
-0.38678	
-0.387268	
-0.388672	
-0.386963	
-0.386719	
-0.385254	
-0.387512	
-0.387756	
-0.387573	
-0.387451	
-0.386902	
-0.387939	
-0.388855	
-0.389709	
-0.388733	
-0.388428	
-0.386414	
-0.388794	
-0.38855	
-0.388367	
-0.388428	
-0.387146	
-0.388733	
-0.388977	
-0.389465	
-0.388367	
-0.387878	
-0.386597	
-0.388306	
-0.387817	
-0.387756	
-0.387695	
-0.386658	
-0.387085	
-0.387451	
-0.387451	
-0.386353	
-0.386169	
-0.384766	
-0.387024	
-0.386475	
-0.386475	
-0.386353	
-0.386353	
-0.386841	
-0.387878	
-0.388	
-0.387146	
-0.386108	
-0.385559	
-0.387085	
-0.38678	
-0.386963	
-0.386536	
-0.386719	
-0.386841	
-0.388672	
-0.386902	
-0.386963	
-0.386292	
-0.38678	
-0.388794	
-0.388123	
-0.388123	
-0.388184	
-0.388367	
-0.388855	
-0.390747	
-0.388672	
-0.389099	
-0.386963	
-0.389282	
-0.39032	
-0.389465	
-0.389832	
-0.389221	
-0.389587	
-0.389709	
-0.390808	
-0.389709	
-0.38916	
-0.388123	
-0.390076	
-0.390747	
-0.389771	
-0.390015	
-0.389343	
-0.390259	
-0.390747	
-0.391907	
-0.39032	
-0.389893	
-0.389221	
-0.390686	
-0.39032	
-0.390015	
-0.390137	
-0.390198	
-0.39032	
-0.391174	
-0.390869	
-0.389648	
-0.388855	
-0.388	
-0.38916	
-0.388977	
-0.388977	
-0.388367	
-0.388855	
-0.388184	
-0.390198	
-0.38855	
-0.387817	
-0.386902	
-0.386963	
-0.387939	
-0.387146	
-0.387268	
-0.386658	
-0.386719	
-0.386963	
-0.388367	
-0.387085	
-0.386475	
-0.384583	
-0.384949	
-0.386414	
-0.386292	
-0.385864	
-0.38562	
-0.385864	
-0.386597	
-0.387695	
-0.385986	
-0.385254	
-0.383545	
-0.384155	
-0.38623	
-0.385986	
-0.385925	
-0.385742	
-0.386169	
-0.386658	
-0.387878	
-0.386353	
-0.385864	
-0.384399	
-0.385498	
-0.386902	
-0.386414	
-0.386475	
-0.386536	
-0.387024	
-0.387268	
-0.388489	
-0.387085	
-0.38678	
-0.385742	
-0.387756	
-0.387939	
-0.387573	
-0.387512	
-0.387451	
-0.387634	
-0.388916	
-0.389404	
-0.387329	
-0.387573	
-0.386169	
-0.388367	
-0.389099	
-0.388794	
-0.388916	
-0.389099	
-0.390015	
-0.391052	
-0.391602	
-0.390076	
-0.389221	
-0.388611	
-0.391296	
-0.392822	
-0.391846	
-0.392212	
-0.392212	
-0.392822	
-0.393921	
-0.394104	
-0.393005	
-0.391663	
-0.390076	
-0.393127	
-0.393311	
-0.393188	
-0.392761	
-0.391541	
-0.392944	
-0.393188	
-0.393066	
-0.392578	
-0.391846	
-0.390137	
-0.392761	
-0.392822	
-0.392822	
-0.392273	
-0.39209	
-0.393616	
-0.393921	
-0.392822	
-0.392883	
-0.393005	
-0.392273	
-0.394165	
-0.393555	
-0.393799	
-0.393921	
-0.394104	
-0.394287	
-0.394226	
-0.393127	
-0.393433	
-0.392517	
-0.393127	
-0.393433	
-0.392822	
-0.392395	
-0.392395	
-0.392883	
-0.393311	
-0.393799	
-0.392822	
-0.392517	
-0.392029	
-0.392273	
-0.39325	
-0.392334	
-0.392456	
-0.39093	
-0.392456	
-0.393066	
-0.393738	
-0.391846	
-0.391296	
-0.391602	
-0.392334	
-0.392212	
-0.391907	
-0.391907	
-0.39209	
-0.392761	
-0.393738	
-0.394348	
-0.392639	
-0.392029	
-0.392273	
-0.392822	
-0.392456	
-0.392578	
-0.392151	
-0.393127	
-0.392944	
-0.392578	
-0.393372	
-0.391113	
-0.389954	
-0.388916	
-0.390869	
-0.389648	
-0.389587	
-0.388733	
-0.389282	
-0.388977	
-0.388611	
-0.390381	
-0.388428	
-0.38678	
-0.386597	
-0.388855	
-0.387695	
-0.387329	
-0.386963	
-0.387512	
-0.387634	
-0.387878	
-0.389587	
-0.387756	
-0.387207	
-0.387146	
-0.388977	
-0.388367	
-0.388855	
-0.388794	
-0.389221	
-0.390259	
-0.390076	
-0.391602	
-0.390503	
-0.390503	
-0.389954	
-0.392212	
-0.392456	
-0.392395	
-0.39209	
-0.393433	
-0.39386	
-0.394714	
-0.394104	
-0.393433	
-0.394043	
-0.39209	
-0.394592	
-0.394226	
-0.394531	
-0.393616	
-0.39502	
-0.395386	
-0.396179	
-0.395142	
-0.394897	
-0.394714	
-0.394348	
-0.395569	
-0.395569	
-0.395325	
-0.394409	
-0.395569	
-0.396118	
-0.396423	
-0.395203	
-0.394836	
-0.394714	
-0.394958	
-0.394958	
-0.395264	
-0.395264	
-0.394897	
-0.394714	
-0.396301	
-0.395752	
-0.394287	
-0.394043	
-0.392761	
-0.394409	
-0.393921	
-0.393616	
-0.392944	
-0.392944	
-0.393372	
-0.394165	
-0.394287	
-0.393005	
-0.392639	
-0.391663	
-0.393494	
-0.393433	
-0.393188	
-0.39325	
-0.393005	
-0.393677	
-0.395142	
-0.394653	
-0.393616	
-0.393555	
-0.392029	
-0.394409	
-0.394287	
-0.39447	
-0.394836	
-0.394958	
-0.394775	
-0.396118	
-0.395325	
-0.394592	
-0.393982	
-0.394104	
-0.394409	
-0.394592	
-0.394165	
-0.393738	
-0.394043	
-0.394897	
-0.396301	
-0.395508	
-0.39447	
-0.393738	
-0.394348	
-0.394592	
-0.394287	
-0.39447	
-0.394531	
-0.39447	
-0.393921	
-0.395081	
-0.394287	
-0.393127	
-0.391907	
-0.3927	
-0.393311	
-0.392456	
-0.392456	
-0.391846	
-0.392334	
-0.392639	
-0.39325	
-0.392944	
-0.391724	
-0.390259	
-0.39093	
-0.392212	
-0.391785	
-0.391357	
-0.391296	
-0.391541	
-0.391907	
-0.393005	
-0.391602	
-0.390564	
-0.389038	
-0.390625	
-0.391235	
-0.390808	
-0.390686	
-0.390503	
-0.390747	
-0.390991	
-0.392395	
-0.391235	
-0.390808	
-0.390015	
-0.390381	
-0.391479	
-0.391235	
-0.391052	
-0.391113	
-0.391602	
-0.392334	
-0.393494	
-0.392761	
-0.391846	
-0.391357	
-0.391541	
-0.393188	
-0.392883	
-0.393127	
-0.392456	
-0.393372	
-0.393982	
-0.395447	
-0.394409	
-0.393494	
-0.393372	
-0.393982	
-0.395203	
-0.39502	
-0.39502	
-0.393799	
-0.39502	
-0.395813	
-0.397217	
-0.395264	
-0.395203	
-0.394592	
-0.394836	
-0.395569	
-0.395325	
-0.395447	
-0.395325	
-0.395691	
-0.396362	
-0.396484	
-0.395386	
-0.395081	
-0.393433	
-0.395203	
-0.394958	
-0.395203	
-0.39502	
-0.39502	
-0.395081	
-0.39624	
-0.396362	
-0.394653	
-0.394043	
-0.393311	
-0.395081	
-0.394592	
-0.39447	
-0.393982	
-0.39386	
-0.393921	
-0.395264	
-0.394897	
-0.394043	
-0.393188	
-0.393127	
-0.394287	
-0.393738	
-0.393738	
-0.393677	
-0.393799	
-0.393494	
-0.39447	
-0.394165	
-0.392578	
-0.391968	
-0.391235	
-0.392578	
-0.391663	
-0.392029	
-0.391296	
-0.391296	
-0.391479	
-0.392578	
-0.391357	
-0.389709	
-0.389099	
-0.387939	
-0.390015	
-0.389282	
-0.389099	
-0.388855	
-0.38916	
-0.389343	
-0.390991	
-0.389221	
-0.388794	
-0.387756	
-0.387939	
-0.390381	
-0.389587	
-0.389221	
-0.388733	
-0.38916	
-0.389526	
-0.390808	
-0.388977	
-0.389099	
-0.386841	
-0.389221	
-0.389587	
-0.389038	
-0.388855	
-0.388855	
-0.388855	
-0.388916	
-0.390137	
-0.388428	
-0.388367	
-0.38562	
-0.388367	
-0.389343	
-0.38855	
-0.388489	
-0.387878	
-0.389404	
-0.390381	
-0.391235	
-0.389832	
-0.389465	
-0.387573	
-0.390137	
-0.390564	
-0.389832	
-0.389954	
-0.388428	
-0.390076	
-0.390442	
-0.391541	
-0.390198	
-0.389893	
-0.388855	
-0.390564	
-0.391357	
-0.391113	
-0.39093	
-0.389771	
-0.391418	
-0.391785	
-0.391846	
-0.39093	
-0.39032	
-0.388916	
-0.390076	
-0.390198	
-0.390198	
-0.389343	
-0.388611	
-0.389832	
-0.390869	
-0.389648	
-0.389526	
-0.389404	
-0.389465	
-0.39032	
-0.390503	
-0.39093	
-0.390808	
-0.390747	
-0.392334	
-0.393738	
-0.392578	
-0.392517	
-0.392456	
-0.393616	
-0.393738	
-0.394531	
-0.393921	
-0.393677	
-0.393311	
-0.394714	
-0.397217	
-0.394653	
-0.394836	
-0.393982	
-0.395081	
-0.395142	
-0.39502	
-0.394714	
-0.394897	
-0.393494	
-0.394775	
-0.397522	
-0.394226	
-0.393677	
-0.392639	
-0.393311	
-0.393188	
-0.3927	
-0.392761	
-0.391968	
-0.391296	
-0.391907	
-0.394043	
-0.390381	
-0.390442	
-0.387451	
-0.389221	
-0.389343	
-0.389343	
-0.388916	
-0.388489	
-0.388184	
-0.388977	
-0.390564	
-0.388489	
-0.388123	
-0.385559	
-0.388123	
-0.388062	
-0.388062	
-0.388	
-0.387878	
-0.387756	
-0.388611	
-0.38916	
-0.387512	
-0.387573	
-0.386169	
-0.388062	
-0.388428	
-0.388	
-0.387756	
-0.387756	
-0.387634	
-0.388367	
-0.389038	
-0.387817	
-0.387146	
-0.386414	
-0.387939	
-0.388733	
-0.388245	
-0.388245	
-0.388123	
-0.38855	
-0.389709	
-0.389832	
-0.389099	
-0.38916	
-0.387695	
-0.389404	
-0.390564	
-0.390198	
-0.389771	
-0.389038	
-0.389771	
-0.391541	
-0.389954	
-0.389893	
-0.389221	
-0.388794	
-0.389709	
-0.390442	
-0.390137	
-0.389282	
-0.388062	
-0.389465	
-0.39093	
-0.388794	
-0.388672	
-0.387268	
-0.387146	
-0.388245	
-0.388428	
-0.388367	
-0.387939	
-0.387695	
-0.388733	
-0.390442	
-0.38855	
-0.38855	
-0.386597	
-0.387573	
-0.388794	
-0.38855	
-0.388428	
-0.388306	
-0.388794	
-0.389221	
-0.390442	
-0.389038	
-0.388367	
-0.38739	
-0.388245	
-0.389709	
-0.389465	
-0.389587	
-0.389648	
-0.390015	
-0.390991	
-0.391724	
-0.390686	
-0.39032	
-0.389587	
-0.390686	
-0.391724	
-0.391418	
-0.391479	
-0.391113	
-0.391663	
-0.392761	
-0.392761	
-0.391785	
-0.391235	
-0.390564	
-0.392029	
-0.392761	
-0.392151	
-0.392395	
-0.392212	
-0.392578	
-0.39386	
-0.393066	
-0.392822	
-0.391785	
-0.391113	
-0.392273	
-0.393555	
-0.392761	
-0.392395	
-0.39209	
-0.392578	
-0.394348	
-0.392822	
-0.392029	
-0.391052	
-0.391418	
-0.391663	
-0.392761	
-0.39209	
-0.391663	
-0.391113	
-0.391296	
-0.393005	
-0.391724	
-0.390442	
-0.388855	
-0.390259	
-0.390259	
-0.391052	
-0.389648	
-0.389343	
-0.38916	
-0.389648	
-0.390503	
-0.389709	
-0.388916	
-0.387573	
-0.388611	
-0.389038	
-0.389832	
-0.388611	
-0.388123	
-0.388123	
-0.388855	
-0.389709	
-0.388794	
-0.387878	
-0.387207	
-0.388184	
-0.388245	
-0.389343	
-0.388123	
-0.388245	
-0.388	
-0.388611	
-0.390259	
-0.38855	
-0.388	
-0.386963	
-0.388367	
-0.388306	
-0.389282	
-0.388489	
-0.388672	
-0.388489	
-0.389587	
-0.389893	
-0.389648	
-0.389282	
-0.387207	
-0.389099	
-0.389282	
-0.390198	
-0.389954	
-0.389587	
-0.38916	
-0.390564	
-0.389954	
-0.390015	
-0.388916	
-0.38739	
-0.389526	
-0.390442	
-0.390869	
-0.390503	
-0.390625	
-0.389954	
-0.391724	
-0.391724	
-0.391541	
-0.39032	
-0.390381	
-0.39209	
-0.392578	
-0.393127	
-0.393433	
-0.393555	
-0.392517	
-0.394531	
-0.394775	
-0.394836	
-0.393433	
-0.393921	
-0.395142	
-0.394775	
-0.39502	
-0.394531	
-0.394836	
-0.394348	
-0.394348	
-0.394165	
-0.394592	
-0.394226	
-0.393494	
-0.394287	
-0.394348	
-0.394348	
-0.394348	
-0.393921	
-0.394043	
-0.395081	
-0.394958	
-0.395264	
-0.394348	
-0.393372	
-0.394348	
-0.395081	
-0.39502	
-0.395081	
-0.394592	
-0.396057	
-0.396057	
-0.395264	
-0.395508	
-0.39447	
-0.393799	
-0.394165	
-0.394592	
-0.394043	
-0.39386	
-0.393555	
-0.394653	
-0.394287	
-0.393738	
-0.394043	
-0.393494	
-0.393616	
-0.393555	
-0.394043	
-0.393433	
-0.393127	
-0.393372	
-0.394043	
-0.393921	
-0.393005	
-0.393433	
-0.3927	
-0.392761	
-0.392822	
-0.393982	
-0.392944	
-0.392639	
-0.393127	
-0.394104	
-0.394348	
-0.393982	
-0.39447	
-0.393494	
-0.394165	
-0.393494	
-0.395264	
-0.394287	
-0.39447	
-0.393799	
-0.394714	
-0.395203	
-0.393188	
-0.393372	
-0.392578	
-0.392517	
-0.391602	
-0.392578	
-0.391235	
-0.391235	
-0.390442	
-0.391174	
-0.391296	
-0.389709	
-0.389343	
-0.389648	
-0.389648	
-0.389038	
-0.389832	
-0.389343	
-0.38916	
-0.388428	
-0.389221	
-0.390503	
-0.38916	
-0.388672	
-0.389099	
-0.389343	
-0.388733	
-0.389771	
-0.389893	
-0.39032	
-0.389404	
-0.390991	
-0.392761	
-0.391357	
-0.391479	
-0.391113	
-0.392273	
-0.392029	
-0.393433	
-0.393738	
-0.39386	
-0.393311	
-0.395264	
-0.39624	
-0.394836	
-0.395081	
-0.394287	
-0.395447	
-0.395264	
-0.395935	
-0.396179	
-0.395752	
-0.395569	
-0.396362	
-0.397888	
-0.39679	
-0.396667	
-0.395386	
-0.396667	
-0.396973	
-0.397217	
-0.397339	
-0.397095	
-0.397949	
-0.397339	
-0.39801	
-0.397278	
-0.397034	
-0.396362	
-0.397156	
-0.397522	
-0.397095	
-0.396912	
-0.396973	
-0.397217	
-0.397461	
-0.397522	
-0.396362	
-0.396179	
-0.39563	
-0.395996	
-0.396301	
-0.395874	
-0.395508	
-0.395325	
-0.395325	
-0.395935	
-0.395386	
-0.394958	
-0.395386	
-0.394409	
-0.394897	
-0.395447	
-0.395081	
-0.395264	
-0.395569	
-0.395508	
-0.396118	
-0.396362	
-0.395569	
-0.395447	
-0.395081	
-0.395386	
-0.396484	
-0.396179	
-0.396484	
-0.39624	
-0.39679	
-0.398071	
-0.397278	
-0.396118	
-0.396606	
-0.395813	
-0.396179	
-0.397278	
-0.396545	
-0.396606	
-0.396545	
-0.397583	
-0.397766	
-0.396912	
-0.395752	
-0.39679	
-0.396057	
-0.396545	
-0.397095	
-0.396729	
-0.396729	
-0.39679	
-0.397156	
-0.397888	
-0.396729	
-0.394958	
-0.395203	
-0.395203	
-0.39563	
-0.395447	
-0.394714	
-0.394775	
-0.394714	
-0.395203	
-0.395874	
-0.395142	
-0.393494	
-0.394165	
-0.393738	
-0.393677	
-0.394775	
-0.394165	
-0.394226	
-0.393799	
-0.394165	
-0.394836	
-0.39447	
-0.392273	
-0.3927	
-0.392883	
-0.393494	
-0.394104	
-0.392944	
-0.393188	
-0.39325	
-0.393494	
-0.394348	
-0.393982	
-0.393127	
-0.392456	
-0.393127	
-0.393616	
-0.394043	
-0.393555	
-0.393677	
-0.393555	
-0.394287	
-0.395142	
-0.394531	
-0.394165	
-0.392883	
-0.393799	
-0.39502	
-0.395752	
-0.395264	
-0.395325	
-0.395325	
-0.396362	
-0.396423	
-0.396301	
-0.39624	
-0.395874	
-0.396118	
-0.398071	
-0.397766	
-0.397949	
-0.397705	
-0.398438	
-0.398438	
-0.398804	
-0.398438	
-0.398193	
-0.397644	
-0.397217	
-0.398315	
-0.398438	
-0.398499	
-0.398254	
-0.399109	
-0.39856	
-0.398621	
-0.39801	
-0.397888	
-0.3974	
-0.396912	
-0.398499	
-0.398315	
-0.398376	
-0.398193	
-0.398804	
-0.398682	
-0.398682	
-0.397522	
-0.397766	
-0.396423	
-0.396729	
-0.398132	
-0.397766	
-0.397156	
-0.397339	
-0.398376	
-0.39856	
-0.397644	
-0.396423	
-0.396973	
-0.396301	
-0.396729	
-0.397278	
-0.396912	
-0.396667	
-0.396912	
-0.397766	
-0.398132	
-0.396912	
-0.395386	
-0.395325	
-0.396179	
-0.395935	
-0.396179	
-0.395142	
-0.39502	
-0.395264	
-0.395081	
-0.395447	
-0.394714	
-0.392944	
-0.392212	
-0.393433	
-0.393555	
-0.393494	
-0.392883	
-0.392273	
-0.392639	
-0.393005	
-0.393494	
-0.393188	
-0.391113	
-0.39093	
-0.392212	
-0.392578	
-0.393433	
-0.392822	
-0.392822	
-0.392395	
-0.39325	
-0.393677	
-0.393799	
-0.391663	
-0.392151	
-0.392517	
-0.392883	
-0.393311	
-0.392151	
-0.392395	
-0.392517	
-0.392761	
-0.393127	
-0.392456	
-0.390625	
-0.391602	
-0.391235	
-0.391724	
-0.392578	
-0.391418	
-0.392029	
-0.392273	
-0.393311	
-0.39386	
-0.392944	
-0.392212	
-0.392761	
-0.392212	
-0.393372	
-0.393982	
-0.39325	
-0.393127	
-0.393372	
-0.393921	
-0.394043	
-0.393188	
-0.393127	
-0.393127	
-0.393005	
-0.394165	
-0.39502	
-0.394287	
-0.394287	
-0.394592	
-0.395386	
-0.394531	
-0.393982	
-0.393616	
-0.392456	
-0.393982	
-0.394043	
-0.394165	
-0.393188	
-0.393311	
-0.393372	
-0.393677	
-0.393188	
-0.393066	
-0.392029	
-0.391479	
-0.393005	
-0.39325	
-0.394226	
-0.393494	
-0.394043	
-0.395264	
-0.39563	
-0.39563	
-0.395325	
-0.394653	
-0.395264	
-0.39624	
-0.396729	
-0.397705	
-0.397095	
-0.397156	
-0.397949	
-0.3974	
-0.398193	
-0.397339	
-0.397278	
-0.397461	
-0.398193	
-0.398254	
-0.398743	
-0.397827	
-0.39801	
-0.398743	
-0.397705	
-0.398132	
-0.39679	
-0.396118	
-0.396301	
-0.396423	
-0.396301	
-0.396851	
-0.395691	
-0.395386	
-0.396118	
-0.394897	
-0.394043	
-0.3927	
-0.393555	
-0.392822	
-0.392212	
-0.392334	
-0.392578	
-0.391785	
-0.392029	
-0.392029	
-0.391357	
-0.391479	
-0.390198	
-0.39093	
-0.390869	
-0.390564	
-0.391113	
-0.391602	
-0.390442	
-0.390442	
-0.390503	
-0.39093	
-0.390503	
-0.388733	
-0.389832	
-0.390503	
-0.390137	
	
