E:\DOCUMENTS AND SETTINGS\JPOTAS\MEUS DOCUMENTOS\UFRJ\RSCI-BM 12 WK SERIES\070719-RSCI-BM-02\RSCI-BM-02-LEMG\070719-RSCI-BM-02-LEMG-0007.ACQ
0.025000 msec/sample
1 channel
Analog input
Volts
CH1	
2000	
-0.39093	
-0.391052	
-0.390259	
-0.391052	
-0.391541	
-0.391235	
-0.391418	
-0.391052	
-0.390991	
-0.390625	
-0.391296	
-0.390198	
-0.38916	
-0.388855	
-0.390259	
-0.39032	
-0.390015	
-0.390259	
-0.389648	
-0.388855	
-0.391174	
-0.391052	
-0.39093	
-0.390259	
-0.390015	
-0.390381	
-0.390808	
-0.391968	
-0.391357	
-0.391479	
-0.391296	
-0.391907	
-0.391846	
-0.3927	
-0.393005	
-0.392883	
-0.393188	
-0.393494	
-0.393982	
-0.393921	
-0.394897	
-0.393921	
-0.393982	
-0.394775	
-0.394958	
-0.393982	
-0.392883	
-0.393372	
-0.394104	
-0.394409	
-0.393677	
-0.39386	
-0.393494	
-0.392456	
-0.394897	
-0.393555	
-0.393555	
-0.392822	
-0.392029	
-0.392761	
-0.393127	
-0.394226	
-0.393799	
-0.393555	
-0.39325	
-0.393982	
-0.393311	
-0.394348	
-0.393799	
-0.392273	
-0.392578	
-0.393555	
-0.394226	
-0.394287	
-0.394897	
-0.393921	
-0.394775	
-0.395813	
-0.395691	
-0.394775	
-0.394104	
-0.394531	
-0.394714	
-0.395325	
-0.395386	
-0.395569	
-0.394836	
-0.394043	
-0.396729	
-0.395264	
-0.394653	
-0.394409	
-0.394592	
-0.39386	
-0.394104	
-0.395142	
-0.394043	
-0.39386	
-0.39325	
-0.393921	
-0.392578	
-0.394287	
-0.393616	
-0.392761	
-0.393799	
-0.394226	
-0.39502	
-0.394836	
-0.395935	
-0.394714	
-0.395508	
-0.39624	
-0.39679	
-0.395996	
-0.394775	
-0.396667	
-0.397034	
-0.39801	
-0.398254	
-0.39801	
-0.397705	
-0.397217	
-0.398987	
-0.397827	
-0.397278	
-0.396423	
-0.39679	
-0.396851	
-0.396057	
-0.396545	
-0.395996	
-0.396118	
-0.395142	
-0.39563	
-0.394287	
-0.394958	
-0.394348	
-0.392944	
-0.39325	
-0.39386	
-0.393555	
-0.393677	
-0.394348	
-0.393433	
-0.392639	
-0.394348	
-0.394348	
-0.393433	
-0.392212	
-0.39325	
-0.393738	
-0.39386	
-0.394531	
-0.394165	
-0.393921	
-0.393127	
-0.394897	
-0.393982	
-0.393555	
-0.393311	
-0.393738	
-0.393372	
-0.393799	
-0.394226	
-0.393921	
-0.394104	
-0.394226	
-0.393982	
-0.393188	
-0.394287	
-0.393799	
-0.392761	
-0.392883	
-0.394043	
-0.394226	
-0.395081	
-0.395447	
-0.394409	
-0.394348	
-0.394958	
-0.395325	
-0.394104	
-0.392578	
-0.393799	
-0.394287	
-0.394714	
-0.394592	
-0.394714	
-0.394531	
-0.394531	
-0.394226	
-0.394592	
-0.394165	
-0.3927	
-0.393616	
-0.393982	
-0.393982	
-0.386292	
-0.384399	
-0.38385	
-0.383972	
-0.384827	
-0.383606	
-0.393799	
-0.394836	
-0.394165	
-0.394043	
-0.394653	
-0.394531	
-0.394897	
-0.39502	
-0.39386	
-0.394043	
-0.394348	
-0.394958	
-0.394104	
-0.394348	
-0.39447	
-0.394348	
-0.394165	
-0.394531	
-0.395203	
-0.394897	
-0.394897	
-0.394165	
-0.395325	
-0.394775	
-0.393677	
-0.393677	
-0.394653	
-0.395691	
-0.395691	
-0.396729	
-0.39563	
-0.39563	
-0.39624	
-0.396606	
-0.387268	
-0.383606	
-0.383484	
-0.38324	
-0.383362	
-0.382874	
-0.391907	
-0.393372	
-0.391541	
-0.390747	
-0.389587	
-0.390076	
-0.388489	
-0.388367	
-0.38855	
-0.390381	
-0.392273	
-0.394531	
-0.397888	
-0.400269	
-0.403809	
-0.406677	
-0.411072	
-0.414551	
-0.419006	
-0.423584	
-0.429626	
-0.435364	
-0.440857	
-0.447021	
-0.451233	
-0.456421	
-0.460327	
-0.465332	
-0.467773	
-0.470276	
-0.473206	
-0.476501	
-0.478455	
-0.479736	
-0.482117	
-0.481995	
-0.482544	
-0.482178	
-0.483154	
-0.4823	
-0.482239	
-0.483032	
-0.483826	
-0.484253	
-0.485168	
-0.487549	
-0.487671	
-0.489746	
-0.491455	
-0.493713	
-0.496399	
-0.499573	
-0.502319	
-0.505188	
-0.507813	
-0.509399	
-0.511292	
-0.511475	
-0.511963	
-0.51123	
-0.509644	
-0.507996	
-0.505737	
-0.501648	
-0.499146	
-0.495239	
-0.49054	
-0.486084	
-0.481628	
-0.476624	
-0.471985	
-0.467773	
-0.464722	
-0.460999	
-0.457397	
-0.454224	
-0.452881	
-0.450073	
-0.447876	
-0.446411	
-0.442749	
-0.440063	
-0.437134	
-0.434937	
-0.430176	
-0.427673	
-0.423889	
-0.4198	
-0.415466	
-0.411133	
-0.40741	
-0.400696	
-0.395813	
-0.389282	
-0.383911	
-0.376465	
-0.370483	
-0.362915	
-0.35791	
-0.351257	
-0.344543	
-0.337891	
-0.33075	
-0.325317	
-0.318115	
-0.310486	
-0.30603	
-0.30127	
-0.296265	
-0.292053	
-0.290771	
-0.288452	
-0.288696	
-0.288879	
-0.290344	
-0.291382	
-0.29248	
-0.295593	
-0.299316	
-0.302734	
-0.306702	
-0.312134	
-0.317444	
-0.322693	
-0.327881	
-0.333313	
-0.338989	
-0.345032	
-0.349426	
-0.355286	
-0.360229	
-0.366821	
-0.371521	
-0.375427	
-0.380798	
-0.383423	
-0.386414	
-0.389099	
-0.392334	
-0.39447	
-0.395508	
-0.396667	
-0.398499	
-0.398987	
-0.399658	
-0.40155	
-0.40094	
-0.401001	
-0.40094	
-0.402161	
-0.402466	
-0.403076	
-0.403931	
-0.405823	
-0.407104	
-0.407715	
-0.410156	
-0.410278	
-0.409973	
-0.409485	
-0.40979	
-0.408386	
-0.406982	
-0.405151	
-0.404541	
-0.402832	
-0.400879	
-0.399353	
-0.396423	
-0.393555	
-0.391541	
-0.389709	
-0.386841	
-0.384094	
-0.380554	
-0.378357	
-0.375549	
-0.371643	
-0.368835	
-0.364868	
-0.360596	
-0.356323	
-0.351746	
-0.347351	
-0.343811	
-0.338501	
-0.335693	
-0.332581	
-0.329285	
-0.327026	
-0.324951	
-0.322937	
-0.321777	
-0.320679	
-0.320618	
-0.32019	
-0.318298	
-0.320007	
-0.321106	
-0.321411	
-0.323853	
-0.323914	
-0.324402	
-0.325439	
-0.326355	
-0.327942	
-0.328918	
-0.328613	
-0.331665	
-0.333374	
-0.33551	
-0.337952	
-0.340454	
-0.341553	
-0.343079	
-0.346008	
-0.348816	
-0.350891	
-0.353943	
-0.356384	
-0.359009	
-0.362061	
-0.364502	
-0.366943	
-0.368042	
-0.369995	
-0.37085	
-0.373535	
-0.374268	
-0.376038	
-0.377197	
-0.378662	
-0.380188	
-0.381226	
-0.383301	
-0.383423	
-0.384399	
-0.384705	
-0.386536	
-0.38739	
-0.388	
-0.388489	
-0.389709	
-0.390991	
-0.391296	
-0.391479	
-0.391724	
-0.392456	
-0.392578	
-0.393005	
-0.392578	
-0.392456	
-0.392395	
-0.391968	
-0.391785	
-0.391296	
-0.389954	
-0.388977	
-0.388489	
-0.387573	
-0.386658	
-0.385437	
-0.384888	
-0.383911	
-0.383362	
-0.38269	
-0.383362	
-0.381287	
-0.380493	
-0.379761	
-0.379883	
-0.379395	
-0.378906	
-0.378906	
-0.379395	
-0.380005	
-0.379883	
-0.382324	
-0.380432	
-0.380676	
-0.381165	
-0.38208	
-0.38269	
-0.382874	
-0.381104	
-0.384216	
-0.38501	
-0.385864	
-0.387878	
-0.387512	
-0.388733	
-0.389832	
-0.390747	
-0.391296	
-0.392517	
-0.391113	
-0.393921	
-0.394348	
-0.394531	
-0.39563	
-0.395325	
-0.395325	
-0.394653	
-0.393555	
-0.394836	
-0.394348	
-0.393127	
-0.39502	
-0.394836	
-0.394775	
-0.394592	
-0.394043	
-0.393127	
-0.393127	
-0.392273	
-0.39325	
-0.392822	
-0.392456	
-0.393433	
-0.393188	
-0.393494	
-0.393982	
-0.39386	
-0.394104	
-0.39502	
-0.394287	
-0.395081	
-0.395264	
-0.395691	
-0.395691	
-0.395996	
-0.396912	
-0.397217	
-0.395935	
-0.39563	
-0.396606	
-0.395264	
-0.39502	
-0.39386	
-0.394409	
-0.393921	
-0.393799	
-0.393921	
-0.393799	
-0.392639	
-0.392456	
-0.391785	
-0.391418	
-0.391479	
-0.389893	
-0.390747	
-0.39032	
-0.390137	
-0.390076	
-0.390137	
-0.388733	
-0.388123	
-0.387451	
-0.387634	
-0.387024	
-0.385742	
-0.386475	
-0.386047	
-0.385254	
-0.385254	
-0.386597	
-0.384216	
-0.383972	
-0.382935	
-0.383911	
-0.383118	
-0.383728	
-0.384033	
-0.384033	
-0.384521	
-0.384766	
-0.385498	
-0.384521	
-0.384277	
-0.38385	
-0.384155	
-0.383545	
-0.385132	
-0.384827	
-0.385437	
-0.38623	
-0.387329	
-0.388855	
-0.388245	
-0.389282	
-0.388733	
-0.390381	
-0.389832	
-0.391541	
-0.391602	
-0.391907	
-0.392761	
-0.39325	
-0.394287	
-0.393127	
-0.393799	
-0.392456	
-0.393127	
-0.392822	
-0.393311	
-0.393555	
-0.393433	
-0.393066	
-0.393127	
-0.393616	
-0.391968	
-0.392944	
-0.391357	
-0.391541	
-0.390869	
-0.391907	
-0.391418	
-0.391235	
-0.391296	
-0.392212	
-0.393433	
-0.391235	
-0.392212	
-0.390503	
-0.391846	
-0.391296	
-0.391541	
-0.391785	
-0.391663	
-0.391724	
-0.3927	
-0.392517	
-0.391479	
-0.392029	
-0.390686	
-0.390991	
-0.390381	
-0.390991	
-0.390564	
-0.390625	
-0.390442	
-0.391113	
-0.391785	
-0.39032	
-0.391296	
-0.389526	
-0.390747	
-0.390747	
-0.390381	
-0.391174	
-0.391052	
-0.391357	
-0.392395	
-0.392334	
-0.391785	
-0.392761	
-0.39093	
-0.392456	
-0.392639	
-0.392334	
-0.39325	
-0.39386	
-0.393616	
-0.394104	
-0.394104	
-0.393555	
-0.394043	
-0.392944	
-0.39386	
-0.39386	
-0.3927	
-0.39386	
-0.393677	
-0.393555	
-0.394531	
-0.393677	
-0.393494	
-0.393677	
-0.393005	
-0.392029	
-0.392334	
-0.391785	
-0.393066	
-0.393555	
-0.393494	
-0.394714	
-0.393921	
-0.39325	
-0.393921	
-0.393982	
-0.39325	
-0.393433	
-0.392944	
-0.393677	
-0.393616	
-0.393921	
-0.395203	
-0.394653	
-0.39447	
-0.395142	
-0.395447	
-0.39563	
-0.395508	
-0.39502	
-0.395386	
-0.395752	
-0.395569	
-0.396851	
-0.39563	
-0.395325	
-0.395569	
-0.395569	
-0.394714	
-0.394775	
-0.394653	
-0.394836	
-0.394653	
-0.39447	
-0.39563	
-0.394104	
-0.394165	
-0.393738	
-0.394592	
-0.3927	
-0.39386	
-0.393799	
-0.394043	
-0.394287	
-0.394226	
-0.39502	
-0.39502	
-0.394897	
-0.394714	
-0.395142	
-0.394653	
-0.39563	
-0.395447	
-0.396484	
-0.396484	
-0.39679	
-0.397339	
-0.397339	
-0.397949	
-0.397461	
-0.396301	
-0.396912	
-0.397217	
-0.395569	
-0.396362	
-0.396301	
-0.395935	
-0.395813	
-0.396301	
-0.395569	
-0.394958	
-0.393921	
-0.393982	
-0.394104	
-0.393066	
-0.3927	
-0.393066	
-0.392761	
-0.392883	
-0.394043	
-0.393311	
-0.392151	
-0.391785	
-0.391968	
-0.392029	
-0.391846	
-0.391357	
-0.392151	
-0.392029	
-0.392517	
-0.393188	
-0.392273	
-0.39209	
-0.391541	
-0.392212	
-0.391541	
-0.391296	
-0.391174	
-0.391174	
-0.391479	
-0.391724	
-0.392334	
-0.392151	
-0.391785	
-0.391541	
-0.390991	
-0.390991	
-0.391663	
-0.390442	
-0.391724	
-0.391479	
-0.391724	
-0.392273	
-0.392761	
-0.391907	
-0.391785	
-0.390808	
-0.390686	
-0.39209	
-0.390747	
-0.391968	
-0.392395	
-0.392639	
-0.392883	
-0.394104	
-0.392639	
-0.392517	
-0.392395	
-0.391724	
-0.392456	
-0.391602	
-0.391602	
-0.392517	
-0.392761	
-0.393188	
-0.393616	
-0.392883	
-0.392395	
-0.393005	
-0.391724	
-0.392273	
-0.392273	
-0.392334	
-0.39325	
-0.393005	
-0.393311	
-0.39386	
-0.393494	
-0.392578	
-0.393494	
-0.391968	
-0.39325	
-0.392639	
-0.392761	
-0.393066	
-0.392883	
-0.393127	
-0.393433	
-0.395142	
-0.393799	
-0.394104	
-0.392151	
-0.393616	
-0.393677	
-0.393311	
-0.393738	
-0.39386	
-0.394043	
-0.394653	
-0.396545	
-0.394287	
-0.394226	
-0.393433	
-0.393921	
-0.393921	
-0.394043	
-0.394348	
-0.394043	
-0.394653	
-0.394531	
-0.396118	
-0.394165	
-0.39447	
-0.394104	
-0.394104	
-0.394226	
-0.393433	
-0.393738	
-0.394165	
-0.394348	
-0.394958	
-0.395813	
-0.394836	
-0.394592	
-0.395081	
-0.394043	
-0.394531	
-0.394592	
-0.394104	
-0.395325	
-0.395142	
-0.395325	
-0.396057	
-0.396606	
-0.395752	
-0.396362	
-0.395142	
-0.396057	
-0.395935	
-0.396179	
-0.396118	
-0.395935	
-0.396179	
-0.396545	
-0.397461	
-0.39624	
-0.39624	
-0.39502	
-0.396301	
-0.395813	
-0.395386	
-0.395752	
-0.39563	
-0.395874	
-0.395935	
-0.396667	
-0.395691	
-0.394958	
-0.394409	
-0.39447	
-0.394897	
-0.393616	
-0.394348	
-0.394775	
-0.394409	
-0.394226	
-0.39502	
-0.39386	
-0.393005	
-0.392456	
-0.391296	
-0.391357	
-0.390381	
-0.39032	
-0.390747	
-0.390625	
-0.390869	
-0.391296	
-0.391052	
-0.390564	
-0.391541	
-0.389954	
-0.390625	
-0.391174	
-0.390991	
-0.391418	
-0.392395	
-0.392761	
-0.393616	
-0.394531	
-0.394043	
-0.394775	
-0.393005	
-0.395142	
-0.394653	
-0.395264	
-0.395752	
-0.396362	
-0.396362	
-0.396484	
-0.398926	
-0.397522	
-0.397278	
-0.396729	
-0.396545	
-0.397705	
-0.39679	
-0.397156	
-0.398193	
-0.39856	
-0.399048	
-0.400208	
-0.39978	
-0.399414	
-0.399658	
-0.399536	
-0.399475	
-0.398865	
-0.398804	
-0.400269	
-0.400269	
-0.400879	
-0.401611	
-0.401306	
-0.400391	
-0.401062	
-0.400818	
-0.400146	
-0.399292	
-0.398438	
-0.399719	
-0.398499	
-0.399475	
-0.399414	
-0.398682	
-0.398132	
-0.398315	
-0.396729	
-0.39624	
-0.396301	
-0.395569	
-0.395935	
-0.395996	
-0.39624	
-0.396912	
-0.396179	
-0.39624	
-0.39624	
-0.395142	
-0.395386	
-0.395813	
-0.394775	
-0.396423	
-0.396179	
-0.395996	
-0.396362	
-0.398499	
-0.397705	
-0.39624	
-0.397339	
-0.396667	
-0.396484	
-0.395935	
-0.39624	
-0.396362	
-0.396545	
-0.396423	
-0.397705	
-0.39624	
-0.395935	
-0.396118	
-0.395508	
-0.395386	
-0.395447	
-0.39563	
-0.395447	
-0.39563	
-0.395142	
-0.39563	
-0.39447	
-0.394226	
-0.394104	
-0.393066	
-0.3927	
-0.393555	
-0.391418	
-0.393311	
-0.393677	
-0.394043	
-0.394287	
-0.394592	
-0.395325	
-0.394287	
-0.394226	
-0.394043	
-0.394592	
-0.393677	
-0.395081	
-0.39563	
-0.395203	
-0.395691	
-0.396423	
-0.39563	
-0.395325	
-0.395325	
-0.39447	
-0.394836	
-0.394287	
-0.39447	
-0.39447	
-0.394104	
-0.394104	
-0.394897	
-0.393494	
-0.392944	
-0.393066	
-0.392029	
-0.390991	
-0.390991	
-0.391479	
-0.391296	
-0.390808	
-0.390686	
-0.391907	
-0.391113	
-0.391479	
-0.391113	
-0.391113	
-0.390625	
-0.391418	
-0.39093	
-0.392517	
-0.392273	
-0.3927	
-0.39386	
-0.39325	
-0.394165	
-0.393738	
-0.393127	
-0.393799	
-0.394104	
-0.393005	
-0.394897	
-0.394531	
-0.394836	
-0.395447	
-0.396118	
-0.396057	
-0.395264	
-0.394836	
-0.395264	
-0.395203	
-0.394043	
-0.394836	
-0.394836	
-0.394836	
-0.394653	
-0.396484	
-0.394714	
-0.394897	
-0.395264	
-0.394531	
-0.393555	
-0.394043	
-0.39386	
-0.394165	
-0.395081	
-0.393921	
-0.395203	
-0.39447	
-0.394714	
-0.394897	
-0.394348	
-0.393372	
-0.394043	
-0.393066	
-0.393921	
-0.394104	
-0.394409	
-0.394531	
-0.394836	
-0.394958	
-0.394409	
-0.393677	
-0.393311	
-0.393433	
-0.39386	
-0.394653	
-0.394043	
-0.394043	
-0.394043	
-0.395508	
-0.394958	
-0.394775	
-0.393799	
-0.39447	
-0.394043	
-0.393372	
-0.394043	
-0.394836	
-0.394409	
-0.39502	
-0.396545	
-0.395569	
-0.395386	
-0.395508	
-0.394958	
-0.395447	
-0.394714	
-0.394409	
-0.395996	
-0.395203	
-0.395081	
-0.395264	
-0.395569	
-0.395142	
-0.395447	
-0.394409	
-0.393555	
-0.393982	
-0.393982	
-0.393982	
-0.394287	
-0.394165	
-0.394531	
-0.395081	
-0.39447	
-0.394775	
-0.3927	
-0.392883	
-0.393188	
-0.393555	
-0.393433	
-0.39325	
-0.394043	
-0.393799	
-0.394714	
-0.394104	
-0.393677	
-0.392944	
-0.392944	
-0.393494	
-0.392883	
-0.393188	
-0.393433	
-0.393433	
-0.393616	
-0.394531	
-0.393494	
-0.393005	
-0.392578	
-0.392029	
-0.392151	
-0.392273	
-0.391418	
-0.392578	
-0.392639	
-0.391907	
-0.392822	
-0.392517	
-0.392029	
-0.391235	
-0.391296	
-0.390076	
-0.389832	
-0.39032	
-0.39032	
-0.390503	
-0.390381	
-0.390503	
-0.391052	
-0.390869	
-0.390076	
-0.390015	
-0.389465	
-0.388916	
-0.389526	
-0.389893	
-0.389709	
-0.389709	
-0.389832	
-0.39032	
-0.390198	
-0.390625	
-0.389343	
-0.388916	
-0.389465	
-0.389893	
-0.389832	
-0.390137	
-0.390137	
-0.390137	
-0.391174	
-0.390808	
-0.390564	
-0.390015	
-0.389038	
-0.389282	
-0.390747	
-0.391296	
-0.392029	
-0.392395	
-0.393188	
-0.394043	
-0.394409	
-0.39502	
-0.394287	
-0.39386	
-0.394043	
-0.393188	
-0.394165	
-0.395142	
-0.394531	
-0.394897	
-0.395264	
-0.395752	
-0.395264	
-0.395569	
-0.393311	
-0.393555	
-0.392517	
-0.392273	
-0.392273	
-0.392212	
-0.391785	
-0.391296	
-0.392151	
-0.391235	
-0.391235	
-0.390686	
-0.390442	
-0.389099	
-0.389648	
-0.389526	
-0.390015	
-0.390015	
-0.389465	
-0.390381	
-0.389282	
-0.389832	
-0.389526	
-0.387939	
-0.387573	
-0.388184	
-0.388428	
-0.388367	
-0.388245	
-0.388367	
-0.388428	
-0.388184	
-0.38855	
-0.388306	
-0.385498	
-0.387085	
-0.38623	
-0.387146	
-0.387695	
-0.388062	
-0.387878	
-0.388123	
-0.389526	
-0.389038	
-0.389282	
-0.387756	
-0.388489	
-0.388245	
-0.388367	
-0.389343	
-0.390015	
-0.390503	
-0.390686	
-0.392212	
-0.391296	
-0.391968	
-0.391174	
-0.391052	
-0.390381	
-0.391235	
-0.392273	
-0.391541	
-0.391418	
-0.391663	
-0.39209	
-0.39209	
-0.392456	
-0.392517	
-0.390625	
-0.391235	
-0.390381	
-0.390991	
-0.391113	
-0.391052	
-0.39093	
-0.391296	
-0.391907	
-0.391785	
-0.391846	
-0.389587	
-0.390991	
-0.389893	
-0.391174	
-0.391174	
-0.391113	
-0.390991	
-0.391541	
-0.3927	
-0.391724	
-0.392212	
-0.390625	
-0.391235	
-0.391418	
-0.391235	
-0.392578	
-0.392639	
-0.392456	
-0.392639	
-0.39386	
-0.393005	
-0.393127	
-0.393127	
-0.391663	
-0.391663	
-0.391968	
-0.3927	
-0.393005	
-0.3927	
-0.392395	
-0.39325	
-0.392578	
-0.393311	
-0.392578	
-0.390625	
-0.391174	
-0.390564	
-0.390991	
-0.391052	
-0.391357	
-0.391479	
-0.391724	
-0.392517	
-0.3927	
-0.392334	
-0.390686	
-0.392151	
-0.391541	
-0.392578	
-0.393066	
-0.393311	
-0.393555	
-0.393738	
-0.395447	
-0.394714	
-0.395569	
-0.394775	
-0.394531	
-0.394043	
-0.394165	
-0.39502	
-0.395203	
-0.395203	
-0.394592	
-0.395264	
-0.394958	
-0.39563	
-0.394287	
-0.392273	
-0.392456	
-0.392639	
-0.3927	
-0.392578	
-0.392151	
-0.392029	
-0.392456	
-0.393188	
-0.392273	
-0.391541	
-0.389893	
-0.390686	
-0.390564	
-0.390991	
-0.391296	
-0.391113	
-0.39093	
-0.391418	
-0.392578	
-0.391418	
-0.391541	
-0.390503	
-0.390869	
-0.388306	
-0.390686	
-0.391235	
-0.391052	
-0.391174	
-0.391418	
-0.392029	
-0.391602	
-0.3927	
-0.391052	
-0.391235	
-0.390259	
-0.390381	
-0.391479	
-0.391479	
-0.391724	
-0.391602	
-0.391785	
-0.391785	
-0.393188	
-0.392151	
-0.390564	
-0.391602	
-0.391174	
-0.39209	
-0.392334	
-0.391968	
-0.392029	
-0.392456	
-0.392212	
-0.392273	
-0.393005	
-0.39032	
-0.391479	
-0.390381	
-0.391968	
-0.391846	
-0.391724	
-0.391663	
-0.391663	
-0.392883	
-0.391785	
-0.392944	
-0.390686	
-0.391235	
-0.389954	
-0.390991	
-0.390991	
-0.390991	
-0.391296	
-0.391113	
-0.3927	
-0.391479	
-0.393066	
-0.390869	
-0.391113	
-0.390747	
-0.390442	
-0.391907	
-0.391052	
-0.390869	
-0.390869	
-0.392517	
-0.391602	
-0.39209	
-0.391785	
-0.391174	
-0.391113	
-0.389954	
-0.391785	
-0.392334	
-0.392029	
-0.392212	
-0.392761	
-0.392151	
-0.392578	
-0.39325	
-0.390686	
-0.391846	
-0.389648	
-0.392517	
-0.392822	
-0.392578	
-0.392456	
-0.393005	
-0.393188	
-0.392273	
-0.394714	
-0.391663	
-0.392151	
-0.391418	
-0.392761	
-0.3927	
-0.392883	
-0.393005	
-0.393005	
-0.394348	
-0.393799	
-0.394409	
-0.392151	
-0.393311	
-0.393127	
-0.393372	
-0.393555	
-0.393799	
-0.394409	
-0.39447	
-0.395325	
-0.394592	
-0.395142	
-0.394592	
-0.39502	
-0.395081	
-0.392944	
-0.395264	
-0.395935	
-0.395752	
-0.395447	
-0.397095	
-0.395691	
-0.395752	
-0.397461	
-0.39502	
-0.395447	
-0.39447	
-0.395874	
-0.395569	
-0.395752	
-0.395752	
-0.395935	
-0.39679	
-0.395691	
-0.397522	
-0.395447	
-0.395691	
-0.395386	
-0.395447	
-0.395325	
-0.395508	
-0.395569	
-0.395874	
-0.395569	
-0.395142	
-0.395203	
-0.393066	
-0.393188	
-0.392822	
-0.391418	
-0.39209	
-0.392029	
-0.391785	
-0.39093	
-0.391968	
-0.39093	
-0.39093	
-0.391541	
-0.389893	
-0.390259	
-0.388245	
-0.391052	
-0.391052	
-0.390869	
-0.391663	
-0.3927	
-0.393188	
-0.393005	
-0.395325	
-0.393433	
-0.393982	
-0.393127	
-0.39447	
-0.395142	
-0.394897	
-0.395142	
-0.39563	
-0.395752	
-0.395874	
-0.397156	
-0.395874	
-0.396057	
-0.395569	
-0.39563	
-0.396667	
-0.396729	
-0.396606	
-0.397644	
-0.397339	
-0.396729	
-0.3974	
-0.396729	
-0.396729	
-0.39679	
-0.396118	
-0.397705	
-0.397827	
-0.39801	
-0.398315	
-0.399048	
-0.399292	
-0.398438	
-0.399109	
-0.397949	
-0.398438	
-0.396301	
-0.398193	
-0.398132	
-0.398193	
-0.397827	
-0.399048	
-0.398132	
-0.397461	
-0.397705	
-0.395752	
-0.395691	
-0.395142	
-0.395142	
-0.395203	
-0.394897	
-0.394714	
-0.394592	
-0.39447	
-0.394287	
-0.395264	
-0.39447	
-0.393616	
-0.394287	
-0.392273	
-0.394104	
-0.393982	
-0.393982	
-0.393982	
-0.394775	
-0.395264	
-0.395325	
-0.394897	
-0.393738	
-0.394287	
-0.393921	
-0.394714	
-0.394592	
-0.395081	
-0.394592	
-0.39502	
-0.394958	
-0.394714	
-0.39502	
-0.394287	
-0.394165	
-0.393921	
-0.394653	
-0.394287	
-0.394226	
-0.394409	
-0.395081	
-0.394043	
-0.393921	
-0.39447	
-0.39386	
-0.39209	
-0.39209	
-0.391785	
-0.393372	
-0.393005	
-0.393066	
-0.393372	
-0.393127	
-0.393738	
-0.393738	
-0.393372	
-0.3927	
-0.39209	
-0.391968	
-0.393127	
-0.393616	
-0.394104	
-0.394287	
-0.394531	
-0.394958	
-0.395325	
-0.39386	
-0.393982	
-0.393799	
-0.393188	
-0.393799	
-0.393738	
-0.393616	
-0.393555	
-0.393738	
-0.39325	
-0.393433	
-0.393127	
-0.392334	
-0.390747	
-0.391113	
-0.390503	
-0.391296	
-0.390564	
-0.390259	
-0.391235	
-0.390137	
-0.39093	
-0.390381	
-0.390564	
-0.389404	
-0.389221	
-0.39032	
-0.39093	
-0.391174	
-0.391479	
-0.391785	
-0.391907	
-0.393005	
-0.392639	
-0.3927	
-0.392395	
-0.392639	
-0.39209	
-0.393372	
-0.393677	
-0.394043	
-0.393921	
-0.395142	
-0.394836	
-0.395447	
-0.395203	
-0.394897	
-0.39447	
-0.394287	
-0.393311	
-0.394409	
-0.394775	
-0.394165	
-0.395081	
-0.394165	
-0.394714	
-0.394714	
-0.394775	
-0.392944	
-0.393982	
-0.393799	
-0.394043	
-0.394165	
-0.394226	
-0.394348	
-0.39386	
-0.394653	
-0.39447	
-0.394043	
-0.393311	
-0.392944	
-0.392822	
-0.39386	
-0.393433	
-0.393738	
-0.393677	
-0.393677	
-0.394409	
-0.39447	
-0.393188	
-0.393372	
-0.393616	
-0.393066	
-0.393433	
-0.394104	
-0.393494	
-0.393616	
-0.394714	
-0.394104	
-0.393921	
-0.394531	
-0.394409	
-0.392456	
-0.393311	
-0.393433	
-0.394531	
-0.394165	
-0.394409	
-0.394714	
-0.39447	
-0.39563	
-0.394836	
-0.39563	
-0.394592	
-0.393799	
-0.394775	
-0.395386	
-0.395325	
-0.395142	
-0.395264	
-0.394958	
-0.394958	
-0.395264	
-0.394897	
-0.394653	
-0.393982	
-0.392944	
-0.394226	
-0.394165	
-0.394104	
-0.394348	
-0.394714	
-0.394165	
-0.394897	
-0.394104	
-0.394104	
-0.392517	
-0.392761	
-0.392883	
-0.39386	
-0.39386	
-0.393311	
-0.394226	
-0.393188	
-0.394958	
-0.393799	
-0.393494	
-0.392639	
-0.392944	
-0.392151	
-0.393372	
-0.393372	
-0.393127	
-0.393616	
-0.393311	
-0.393555	
-0.392822	
-0.392456	
-0.392761	
-0.392151	
-0.391357	
-0.392395	
-0.392578	
-0.392212	
-0.391663	
-0.392944	
-0.392334	
-0.392822	
-0.391968	
-0.391296	
-0.388977	
-0.390015	
-0.390747	
-0.390625	
-0.390747	
-0.390198	
-0.390747	
-0.389893	
-0.391418	
-0.390808	
-0.389099	
-0.388733	
-0.389587	
-0.389893	
-0.389587	
-0.389282	
-0.389526	
-0.389771	
-0.389282	
-0.390259	
-0.389709	
-0.388611	
-0.388733	
-0.388489	
-0.388367	
-0.389587	
-0.389587	
-0.389771	
-0.390015	
-0.39032	
-0.390015	
-0.390259	
-0.390076	
-0.389709	
-0.388306	
-0.389038	
-0.390747	
-0.391052	
-0.391418	
-0.392273	
-0.393433	
-0.393494	
-0.394775	
-0.394226	
-0.394104	
-0.393005	
-0.393799	
-0.394592	
-0.394592	
-0.394653	
-0.394836	
-0.395081	
-0.394653	
-0.395935	
-0.395264	
-0.394653	
-0.393616	
-0.393127	
-0.392151	
-0.3927	
-0.39209	
-0.391785	
-0.391846	
-0.391541	
-0.391418	
-0.391052	
-0.390015	
-0.390076	
-0.38916	
-0.389221	
-0.389038	
-0.389282	
-0.388977	
-0.388916	
-0.389465	
	
