E:\DOCUMENTS AND SETTINGS\JPOTAS\MEUS DOCUMENTOS\UFRJ\RSCI-BM 12 WK SERIES\070719-RSCI-BM-02\RSCI-BM-02-LEMG\070719-RSCI-BM-02-LEMG-0004.ACQ
0.025000 msec/sample
1 channel
Analog input
Volts
CH1	
2000	
-0.392639	
-0.392151	
-0.39325	
-0.392517	
-0.392273	
-0.392212	
-0.392395	
-0.391785	
-0.392944	
-0.39386	
-0.393433	
-0.393127	
-0.393372	
-0.393799	
-0.394226	
-0.394714	
-0.392578	
-0.392395	
-0.393677	
-0.393982	
-0.394409	
-0.395203	
-0.394592	
-0.394287	
-0.395447	
-0.396301	
-0.395935	
-0.396057	
-0.395996	
-0.396362	
-0.39624	
-0.396729	
-0.397705	
-0.397278	
-0.397705	
-0.396973	
-0.397705	
-0.397461	
-0.396851	
-0.395691	
-0.395752	
-0.396362	
-0.396912	
-0.397095	
-0.396973	
-0.39624	
-0.39679	
-0.396423	
-0.39801	
-0.397461	
-0.395996	
-0.395691	
-0.395813	
-0.395752	
-0.395752	
-0.396606	
-0.395691	
-0.395691	
-0.396057	
-0.396545	
-0.396667	
-0.395874	
-0.394531	
-0.394043	
-0.394958	
-0.395996	
-0.396057	
-0.39679	
-0.396423	
-0.39624	
-0.396606	
-0.39801	
-0.397217	
-0.396423	
-0.396301	
-0.396729	
-0.396973	
-0.396912	
-0.397034	
-0.396484	
-0.396606	
-0.396362	
-0.396484	
-0.396667	
-0.396057	
-0.395874	
-0.394104	
-0.39502	
-0.396179	
-0.396179	
-0.396545	
-0.396118	
-0.39624	
-0.395874	
-0.397644	
-0.397766	
-0.396179	
-0.39679	
-0.396423	
-0.396667	
-0.396973	
-0.397522	
-0.397095	
-0.396851	
-0.397095	
-0.396729	
-0.397034	
-0.395874	
-0.395386	
-0.393555	
-0.393982	
-0.394348	
-0.394348	
-0.393372	
-0.393311	
-0.392822	
-0.391663	
-0.393311	
-0.392517	
-0.390747	
-0.391174	
-0.391296	
-0.391174	
-0.391235	
-0.391907	
-0.390991	
-0.391113	
-0.391541	
-0.391541	
-0.391541	
-0.391113	
-0.391357	
-0.389526	
-0.390747	
-0.392029	
-0.392273	
-0.392334	
-0.392273	
-0.392822	
-0.392029	
-0.394592	
-0.393555	
-0.392151	
-0.392822	
-0.393066	
-0.39325	
-0.393799	
-0.394592	
-0.393921	
-0.394104	
-0.394409	
-0.394714	
-0.393921	
-0.393982	
-0.393555	
-0.392517	
-0.393677	
-0.393982	
-0.394958	
-0.394714	
-0.394897	
-0.395813	
-0.394958	
-0.397705	
-0.396851	
-0.397156	
-0.396912	
-0.397339	
-0.397339	
-0.397827	
-0.398987	
-0.398071	
-0.398254	
-0.39856	
-0.399048	
-0.398438	
-0.398438	
-0.398438	
-0.397461	
-0.398132	
-0.398682	
-0.39856	
-0.397949	
-0.397827	
-0.398499	
-0.397217	
-0.398499	
-0.397766	
-0.397156	
-0.396057	
-0.397034	
-0.395508	
-0.396912	
-0.397461	
-0.396484	
-0.396851	
-0.396667	
-0.386047	
-0.384155	
-0.385254	
-0.385132	
-0.384521	
-0.385376	
-0.398376	
-0.397766	
-0.396606	
-0.396179	
-0.396423	
-0.39502	
-0.383728	
-0.383423	
-0.383545	
-0.383911	
-0.384094	
-0.384277	
-0.395691	
-0.397461	
-0.395874	
-0.395935	
-0.395142	
-0.395691	
-0.394958	
-0.394165	
-0.393555	
-0.395203	
-0.393799	
-0.394897	
-0.395081	
-0.394836	
-0.395325	
-0.396301	
-0.395874	
-0.396179	
-0.396362	
-0.395935	
-0.39563	
-0.396667	
-0.397461	
-0.396973	
-0.397949	
-0.397156	
-0.397766	
-0.3974	
-0.398926	
-0.398071	
-0.397522	
-0.396362	
-0.396729	
-0.395569	
-0.395569	
-0.395142	
-0.394958	
-0.394592	
-0.39502	
-0.394897	
-0.394897	
-0.395752	
-0.394958	
-0.395325	
-0.398193	
-0.401306	
-0.40509	
-0.408264	
-0.411804	
-0.41687	
-0.41925	
-0.423889	
-0.429749	
-0.43396	
-0.438721	
-0.444946	
-0.449951	
-0.454712	
-0.459229	
-0.463989	
-0.469116	
-0.471558	
-0.476624	
-0.480652	
-0.483276	
-0.484619	
-0.487915	
-0.490234	
-0.492188	
-0.492859	
-0.492188	
-0.492615	
-0.492371	
-0.49353	
-0.492859	
-0.493286	
-0.491821	
-0.493835	
-0.493896	
-0.495728	
-0.497253	
-0.498047	
-0.500549	
-0.503052	
-0.506897	
-0.507935	
-0.509949	
-0.513062	
-0.516235	
-0.518127	
-0.520508	
-0.522339	
-0.523499	
-0.524231	
-0.524719	
-0.524292	
-0.522522	
-0.52124	
-0.517761	
-0.515137	
-0.511108	
-0.507141	
-0.502686	
-0.497864	
-0.492981	
-0.488281	
-0.482117	
-0.477234	
-0.472229	
-0.466064	
-0.459839	
-0.457336	
-0.45343	
-0.448608	
-0.445129	
-0.43988	
-0.434937	
-0.430176	
-0.426697	
-0.419556	
-0.412903	
-0.407715	
-0.402649	
-0.395142	
-0.388916	
-0.38208	
-0.37439	
-0.365479	
-0.357239	
-0.34729	
-0.337097	
-0.327332	
-0.316284	
-0.304138	
-0.295471	
-0.286011	
-0.2771	
-0.268799	
-0.260193	
-0.253418	
-0.24762	
-0.244385	
-0.239685	
-0.236206	
-0.234497	
-0.235229	
-0.234497	
-0.23584	
-0.237671	
-0.238953	
-0.240906	
-0.243408	
-0.247559	
-0.250061	
-0.252502	
-0.256165	
-0.26123	
-0.264709	
-0.271484	
-0.275818	
-0.279968	
-0.285095	
-0.289368	
-0.294434	
-0.2995	
-0.304199	
-0.308533	
-0.313782	
-0.318909	
-0.322144	
-0.32605	
-0.329285	
-0.333313	
-0.336548	
-0.337341	
-0.340454	
-0.341064	
-0.343384	
-0.34491	
-0.346191	
-0.348816	
-0.349243	
-0.35083	
-0.352417	
-0.354065	
-0.354126	
-0.35498	
-0.355164	
-0.357727	
-0.35791	
-0.359924	
-0.361572	
-0.362	
-0.363098	
-0.364197	
-0.365845	
-0.36676	
-0.367065	
-0.368408	
-0.370972	
-0.372864	
-0.374268	
-0.376587	
-0.377441	
-0.379089	
-0.380188	
-0.38208	
-0.38269	
-0.38208	
-0.38385	
-0.384949	
-0.38562	
-0.386414	
-0.386658	
-0.387207	
-0.387817	
-0.387512	
-0.388794	
-0.389343	
-0.387817	
-0.388062	
-0.389038	
-0.389954	
-0.390564	
-0.39093	
-0.391541	
-0.392151	
-0.392639	
-0.393616	
-0.393311	
-0.392029	
-0.3927	
-0.393494	
-0.393555	
-0.393555	
-0.393311	
-0.393921	
-0.393372	
-0.394409	
-0.394714	
-0.393799	
-0.393433	
-0.392944	
-0.39386	
-0.39325	
-0.39502	
-0.394348	
-0.394653	
-0.395203	
-0.39624	
-0.395996	
-0.39563	
-0.395325	
-0.395447	
-0.39563	
-0.39502	
-0.395386	
-0.395569	
-0.395569	
-0.39502	
-0.39679	
-0.394653	
-0.394043	
-0.393066	
-0.393127	
-0.39386	
-0.394165	
-0.393188	
-0.392822	
-0.392151	
-0.3927	
-0.392212	
-0.39093	
-0.391113	
-0.388977	
-0.389465	
-0.389099	
-0.38916	
-0.388306	
-0.387817	
-0.386597	
-0.387878	
-0.386963	
-0.385559	
-0.385803	
-0.385132	
-0.384949	
-0.384399	
-0.384399	
-0.384094	
-0.384399	
-0.384277	
-0.385315	
-0.384216	
-0.383545	
-0.383362	
-0.383301	
-0.383484	
-0.383423	
-0.382751	
-0.383118	
-0.383362	
-0.384094	
-0.384644	
-0.384399	
-0.383972	
-0.383179	
-0.384094	
-0.384644	
-0.384521	
-0.385437	
-0.385315	
-0.385193	
-0.386292	
-0.38623	
-0.386475	
-0.38623	
-0.38501	
-0.385681	
-0.386475	
-0.386475	
-0.386597	
-0.38678	
-0.387207	
-0.387817	
-0.387268	
-0.388428	
-0.387512	
-0.386902	
-0.387756	
-0.387878	
-0.388123	
-0.388062	
-0.388123	
-0.388794	
-0.388123	
-0.389893	
-0.389954	
-0.389221	
-0.389709	
-0.389465	
-0.389832	
-0.389893	
-0.391113	
-0.389954	
-0.390259	
-0.390442	
-0.390686	
-0.39032	
-0.390015	
-0.389221	
-0.389893	
-0.388672	
-0.389832	
-0.389404	
-0.389343	
-0.388977	
-0.389404	
-0.388733	
-0.389099	
-0.389526	
-0.388672	
-0.388367	
-0.388306	
-0.388672	
-0.38855	
-0.390503	
-0.389465	
-0.389648	
-0.390808	
-0.391418	
-0.392151	
-0.391357	
-0.39209	
-0.392273	
-0.393005	
-0.393433	
-0.394226	
-0.394531	
-0.395081	
-0.396179	
-0.396606	
-0.397095	
-0.396484	
-0.396973	
-0.397095	
-0.396973	
-0.39679	
-0.397095	
-0.396606	
-0.396545	
-0.397278	
-0.396606	
-0.396851	
-0.395691	
-0.395935	
-0.395264	
-0.39563	
-0.395386	
-0.395447	
-0.395569	
-0.395142	
-0.39563	
-0.395813	
-0.395569	
-0.394653	
-0.394409	
-0.394531	
-0.394592	
-0.394714	
-0.394104	
-0.394348	
-0.394653	
-0.394775	
-0.39447	
-0.394653	
-0.393372	
-0.392761	
-0.391907	
-0.39209	
-0.391602	
-0.390381	
-0.390808	
-0.390259	
-0.39093	
-0.390076	
-0.389709	
-0.388306	
-0.389038	
-0.388489	
-0.388611	
-0.388245	
-0.387451	
-0.388245	
-0.387756	
-0.387878	
-0.387634	
-0.388123	
-0.387207	
-0.388306	
-0.387451	
-0.388489	
-0.389038	
-0.388184	
-0.389587	
-0.389343	
-0.389343	
-0.389526	
-0.390442	
-0.388245	
-0.390076	
-0.390625	
-0.39032	
-0.390076	
-0.389099	
-0.391113	
-0.390442	
-0.390564	
-0.390442	
-0.391113	
-0.389771	
-0.391357	
-0.391785	
-0.391357	
-0.390991	
-0.390808	
-0.392334	
-0.391357	
-0.392212	
-0.391174	
-0.391907	
-0.39209	
-0.392273	
-0.393066	
-0.391907	
-0.392578	
-0.392578	
-0.393433	
-0.393494	
-0.39447	
-0.393982	
-0.393555	
-0.394958	
-0.394836	
-0.39447	
-0.394958	
-0.395142	
-0.394836	
-0.394775	
-0.395569	
-0.395447	
-0.395325	
-0.395447	
-0.39502	
-0.394287	
-0.394287	
-0.394409	
-0.393494	
-0.394409	
-0.392883	
-0.394287	
-0.394104	
-0.393738	
-0.394348	
-0.393433	
-0.393738	
-0.393799	
-0.394043	
-0.393188	
-0.393982	
-0.393433	
-0.393616	
-0.394287	
-0.394043	
-0.394226	
-0.3927	
-0.393127	
-0.393921	
-0.394531	
-0.394043	
-0.394165	
-0.394409	
-0.394714	
-0.395386	
-0.395386	
-0.395325	
-0.394409	
-0.394592	
-0.394958	
-0.395691	
-0.394836	
-0.394226	
-0.394287	
-0.394104	
-0.395142	
-0.394775	
-0.39447	
-0.393677	
-0.393799	
-0.394043	
-0.394043	
-0.394104	
-0.393311	
-0.39386	
-0.394348	
-0.394897	
-0.394958	
-0.394836	
-0.394958	
-0.394714	
-0.395569	
-0.394409	
-0.39502	
-0.39447	
-0.394165	
-0.39325	
-0.394531	
-0.394409	
-0.394165	
-0.393982	
-0.392273	
-0.393311	
-0.391541	
-0.3927	
-0.391052	
-0.391235	
-0.390503	
-0.390686	
-0.391418	
-0.389954	
-0.390076	
-0.388611	
-0.388733	
-0.388916	
-0.389587	
-0.388733	
-0.388977	
-0.388916	
-0.38916	
-0.390076	
-0.389771	
-0.389648	
-0.388794	
-0.388672	
-0.389343	
-0.390076	
-0.389771	
-0.388733	
-0.389893	
-0.389587	
-0.391357	
-0.391602	
-0.391052	
-0.390747	
-0.390747	
-0.392212	
-0.390808	
-0.392212	
-0.391357	
-0.391724	
-0.391479	
-0.392212	
-0.3927	
-0.391907	
-0.39209	
-0.390747	
-0.392761	
-0.391113	
-0.392578	
-0.392334	
-0.392395	
-0.392334	
-0.392944	
-0.394897	
-0.394043	
-0.395325	
-0.39447	
-0.39502	
-0.395142	
-0.396057	
-0.395874	
-0.394775	
-0.395874	
-0.395447	
-0.397095	
-0.396606	
-0.396729	
-0.396729	
-0.396118	
-0.397034	
-0.396484	
-0.397278	
-0.395996	
-0.395996	
-0.396606	
-0.397156	
-0.396606	
-0.396179	
-0.396301	
-0.393982	
-0.396362	
-0.39447	
-0.395752	
-0.395142	
-0.395691	
-0.39563	
-0.39502	
-0.39624	
-0.395142	
-0.395508	
-0.393799	
-0.394836	
-0.39502	
-0.395081	
-0.395996	
-0.393921	
-0.394409	
-0.394409	
-0.395813	
-0.394043	
-0.394287	
-0.393799	
-0.393677	
-0.394409	
-0.394104	
-0.39386	
-0.393311	
-0.393555	
-0.393921	
-0.394714	
-0.393616	
-0.393921	
-0.393127	
-0.393372	
-0.394104	
-0.393005	
-0.39386	
-0.393555	
-0.393372	
-0.393494	
-0.393066	
-0.394287	
-0.39447	
-0.395142	
-0.393311	
-0.395386	
-0.394165	
-0.394897	
-0.395935	
-0.39447	
-0.395569	
-0.39563	
-0.396484	
-0.395996	
-0.396729	
-0.394287	
-0.39563	
-0.395935	
-0.395447	
-0.395447	
-0.395142	
-0.395325	
-0.395264	
-0.396606	
-0.394653	
-0.394592	
-0.393311	
-0.392883	
-0.392761	
-0.391846	
-0.39209	
-0.391602	
-0.391174	
-0.390564	
-0.390503	
-0.390442	
-0.389893	
-0.389648	
-0.388794	
-0.389648	
-0.389038	
-0.389893	
-0.390198	
-0.388916	
-0.39032	
-0.390259	
-0.390991	
-0.39093	
-0.391113	
-0.389709	
-0.390808	
-0.391418	
-0.391846	
-0.392395	
-0.39093	
-0.391785	
-0.392334	
-0.393494	
-0.392395	
-0.393188	
-0.391785	
-0.3927	
-0.393005	
-0.393372	
-0.39386	
-0.393005	
-0.393188	
-0.393433	
-0.394714	
-0.393677	
-0.394775	
-0.39447	
-0.395264	
-0.396057	
-0.396423	
-0.396729	
-0.397522	
-0.397644	
-0.398193	
-0.398865	
-0.398987	
-0.399963	
-0.399048	
-0.397888	
-0.400146	
-0.40033	
-0.400574	
-0.401184	
-0.400635	
-0.40094	
-0.40094	
-0.401917	
-0.400818	
-0.400146	
-0.399414	
-0.399597	
-0.399475	
-0.39917	
-0.398804	
-0.397888	
-0.398987	
-0.398682	
-0.399048	
-0.399231	
-0.39856	
-0.398254	
-0.398254	
-0.397644	
-0.397949	
-0.39801	
-0.39801	
-0.398438	
-0.397827	
-0.398132	
-0.398682	
-0.398376	
-0.397522	
-0.396729	
-0.398193	
-0.397522	
-0.397339	
-0.397339	
-0.397034	
-0.396973	
-0.396912	
-0.39801	
-0.397156	
-0.396606	
-0.395691	
-0.39679	
-0.396301	
-0.395935	
-0.395508	
-0.395569	
-0.395264	
-0.394958	
-0.394836	
-0.394714	
-0.394104	
-0.393799	
-0.394104	
-0.392822	
-0.394043	
-0.394104	
-0.395386	
-0.394775	
-0.394104	
-0.394165	
-0.394836	
-0.395386	
-0.39447	
-0.392944	
-0.394836	
-0.394897	
-0.394775	
-0.394226	
-0.395264	
-0.395447	
-0.395752	
-0.396362	
-0.396057	
-0.39563	
-0.395081	
-0.395935	
-0.395142	
-0.395691	
-0.395203	
-0.395874	
-0.395264	
-0.395447	
-0.395874	
-0.395325	
-0.394836	
-0.39447	
-0.395203	
-0.393921	
-0.394775	
-0.394775	
-0.39502	
-0.394165	
-0.393982	
-0.394226	
-0.394714	
-0.395081	
-0.39447	
-0.392761	
-0.394897	
-0.395325	
-0.395203	
-0.395203	
-0.39563	
-0.395569	
-0.396179	
-0.39679	
-0.395935	
-0.395325	
-0.394714	
-0.395325	
-0.395386	
-0.395325	
-0.393921	
-0.395569	
-0.394226	
-0.394165	
-0.394836	
-0.394409	
-0.394531	
-0.394165	
-0.395325	
-0.393494	
-0.394714	
-0.394775	
-0.396179	
-0.396057	
-0.396606	
-0.397034	
-0.397644	
-0.398499	
-0.397827	
-0.397339	
-0.398376	
-0.39856	
-0.398682	
-0.399597	
-0.399536	
-0.400146	
-0.400269	
-0.400452	
-0.400452	
-0.400452	
-0.399597	
-0.399719	
-0.399841	
-0.399902	
-0.398438	
-0.400757	
-0.399597	
-0.399597	
-0.40033	
-0.399658	
-0.399597	
-0.398987	
-0.39917	
-0.397949	
-0.398438	
-0.397888	
-0.398315	
-0.39801	
-0.398193	
-0.398071	
-0.398254	
-0.397705	
-0.397278	
-0.397278	
-0.39679	
-0.3974	
-0.39679	
-0.397095	
-0.397217	
-0.396729	
-0.396973	
-0.396973	
-0.396973	
-0.396606	
-0.395325	
-0.396179	
-0.395264	
-0.395691	
-0.394165	
-0.394958	
-0.394287	
-0.393982	
-0.394592	
-0.394592	
-0.394836	
-0.393494	
-0.394287	
-0.392944	
-0.39325	
-0.393188	
-0.394043	
-0.393005	
-0.392944	
-0.393066	
-0.393982	
-0.393555	
-0.3927	
-0.392639	
-0.393127	
-0.393677	
-0.393433	
-0.393738	
-0.393738	
-0.393738	
-0.394104	
-0.394897	
-0.394653	
-0.394348	
-0.394531	
-0.39386	
-0.393494	
-0.39447	
-0.393372	
-0.394958	
-0.394775	
-0.395142	
-0.394775	
-0.396057	
-0.395752	
-0.395691	
-0.395752	
-0.395081	
-0.395264	
-0.395264	
-0.396729	
-0.395996	
-0.396057	
-0.39624	
-0.39679	
-0.396973	
-0.39624	
-0.396118	
-0.395691	
-0.395935	
-0.396484	
-0.397339	
-0.39679	
-0.39679	
-0.396912	
-0.397949	
-0.397705	
-0.396667	
-0.396423	
-0.395996	
-0.395996	
-0.396118	
-0.395386	
-0.39563	
-0.395508	
-0.395142	
-0.39502	
-0.39563	
-0.395569	
-0.394531	
-0.394836	
-0.394531	
-0.39447	
-0.393494	
-0.394958	
-0.393982	
-0.394165	
-0.394409	
-0.395142	
-0.395691	
-0.395081	
-0.394775	
-0.394104	
-0.395569	
-0.395874	
-0.397156	
-0.396973	
-0.3974	
-0.397949	
-0.398621	
-0.399658	
-0.399048	
-0.399231	
-0.399231	
-0.398743	
-0.39978	
-0.400085	
-0.400757	
-0.40094	
-0.400391	
-0.400085	
-0.400513	
-0.401001	
-0.399719	
-0.399719	
-0.399231	
-0.399536	
-0.398193	
-0.399597	
-0.398926	
-0.398987	
-0.399109	
-0.398621	
-0.398926	
-0.398499	
-0.399109	
-0.397278	
-0.397461	
-0.397461	
-0.398071	
-0.39801	
-0.397766	
-0.3974	
-0.396667	
-0.39801	
-0.397949	
-0.396118	
-0.396606	
-0.395935	
-0.395874	
-0.395996	
-0.395935	
-0.394409	
-0.394348	
-0.394165	
-0.393616	
-0.393494	
-0.392334	
-0.391785	
-0.390564	
-0.391296	
-0.389893	
-0.391357	
-0.391052	
-0.390686	
-0.391357	
-0.390625	
-0.391479	
-0.391052	
-0.391296	
-0.39032	
-0.390076	
-0.390259	
-0.391113	
-0.391357	
-0.391418	
-0.391724	
-0.39032	
-0.391968	
-0.392273	
-0.391907	
-0.391907	
-0.391846	
-0.391907	
-0.391479	
-0.392822	
-0.392151	
-0.392395	
-0.392273	
-0.392578	
-0.392822	
-0.391602	
-0.393188	
-0.391846	
-0.391602	
-0.392151	
-0.39325	
-0.393005	
-0.393127	
-0.394043	
-0.393005	
-0.394226	
-0.393982	
-0.394409	
-0.393921	
-0.393433	
-0.393677	
-0.394226	
-0.394409	
-0.394592	
-0.395508	
-0.394531	
-0.396118	
-0.396606	
-0.396362	
-0.396667	
-0.395325	
-0.396973	
-0.396057	
-0.397827	
-0.396423	
-0.396973	
-0.396545	
-0.397278	
-0.3974	
-0.395752	
-0.397339	
-0.395874	
-0.396301	
-0.396301	
-0.39679	
-0.396057	
-0.395996	
-0.396545	
-0.39563	
-0.396118	
-0.395691	
-0.395691	
-0.395264	
-0.394287	
-0.395203	
-0.394958	
-0.395325	
-0.395325	
-0.395569	
-0.394287	
-0.39563	
-0.396606	
-0.395386	
-0.396301	
-0.394958	
-0.395508	
-0.395325	
-0.396851	
-0.395874	
-0.396057	
-0.395874	
-0.396301	
-0.397522	
-0.396484	
-0.397644	
-0.396057	
-0.396118	
-0.395996	
-0.396851	
-0.395813	
-0.395874	
-0.395996	
-0.396057	
-0.39563	
-0.395081	
-0.39624	
-0.395691	
-0.39386	
-0.395752	
-0.395569	
-0.396118	
-0.395813	
-0.396423	
-0.395264	
-0.396301	
-0.397766	
-0.396301	
-0.396973	
-0.395874	
-0.396301	
-0.395996	
-0.396973	
-0.396057	
-0.396057	
-0.396057	
-0.395813	
-0.39624	
-0.394409	
-0.395691	
-0.393738	
-0.392456	
-0.392822	
-0.392883	
-0.392639	
-0.392395	
-0.392578	
-0.390564	
-0.391785	
-0.392273	
-0.391418	
-0.390808	
-0.39032	
-0.390503	
-0.390137	
-0.391479	
-0.390564	
-0.391052	
-0.390808	
-0.391296	
-0.391907	
-0.391174	
-0.392029	
-0.390564	
-0.390686	
-0.391235	
-0.392639	
-0.392334	
-0.392395	
-0.392456	
-0.392517	
-0.393555	
-0.392517	
-0.393616	
-0.393005	
-0.392273	
-0.3927	
-0.393188	
-0.393799	
-0.393677	
-0.39447	
-0.392822	
-0.394165	
-0.394409	
-0.393982	
-0.394043	
-0.393555	
-0.393921	
-0.393127	
-0.395325	
-0.394897	
-0.395691	
-0.395325	
-0.39624	
-0.396667	
-0.396729	
-0.397888	
-0.396423	
-0.396545	
-0.397339	
-0.398254	
-0.397949	
-0.39801	
-0.397888	
-0.397217	
-0.399109	
-0.39801	
-0.398193	
-0.397827	
-0.398193	
-0.398132	
-0.397949	
-0.398682	
-0.398132	
-0.397949	
-0.397034	
-0.397522	
-0.396179	
-0.397095	
-0.397095	
-0.396484	
-0.396423	
-0.395508	
-0.396484	
-0.396179	
-0.396606	
-0.395386	
-0.395081	
-0.396362	
-0.397095	
-0.396301	
-0.394775	
-0.395203	
-0.395264	
-0.395325	
-0.395874	
-0.395386	
-0.39502	
-0.394409	
-0.395203	
-0.395142	
-0.395142	
-0.394226	
-0.39386	
-0.394348	
-0.39325	
-0.394653	
-0.394409	
-0.394653	
-0.394226	
-0.394958	
-0.393372	
-0.394409	
-0.394836	
-0.393921	
-0.393127	
-0.394226	
-0.394226	
-0.39502	
-0.395508	
-0.394592	
-0.394653	
-0.395508	
-0.396301	
-0.39624	
-0.394897	
-0.395142	
-0.395447	
-0.394653	
-0.396606	
-0.396179	
-0.395874	
-0.396057	
-0.397034	
-0.395752	
-0.395996	
-0.396362	
-0.395264	
-0.395569	
-0.395386	
-0.395447	
-0.39502	
-0.395142	
-0.394592	
-0.393494	
-0.393311	
-0.3927	
-0.393127	
-0.391846	
-0.390564	
-0.391052	
-0.391235	
-0.391113	
-0.391052	
-0.390198	
-0.389832	
-0.389893	
-0.390808	
-0.390076	
-0.389221	
-0.390137	
-0.390625	
-0.390076	
-0.391785	
-0.391602	
-0.391479	
-0.391724	
-0.392517	
-0.391113	
-0.391541	
-0.392517	
-0.391968	
-0.392456	
-0.392151	
-0.392578	
-0.3927	
-0.393982	
-0.392944	
-0.392334	
-0.393188	
-0.393433	
-0.393738	
-0.393555	
-0.392334	
-0.393372	
-0.393799	
-0.394775	
-0.394714	
-0.394775	
-0.395142	
-0.39624	
-0.39679	
-0.3974	
-0.396912	
-0.397461	
-0.398315	
-0.398071	
-0.399292	
-0.399292	
-0.400208	
-0.399353	
-0.400391	
-0.400085	
-0.400818	
-0.401611	
-0.401367	
-0.400635	
-0.400635	
-0.401184	
-0.401184	
-0.401001	
-0.400513	
-0.400208	
-0.39978	
-0.400085	
-0.399536	
-0.398376	
-0.398804	
-0.39917	
-0.398376	
-0.399658	
-0.398987	
-0.398804	
-0.398499	
-0.399353	
-0.398193	
-0.398621	
-0.398987	
-0.398193	
-0.398621	
-0.397949	
-0.397949	
-0.398132	
-0.39856	
-0.39801	
-0.397766	
-0.397949	
-0.397705	
-0.397827	
-0.397339	
-0.396484	
-0.396851	
-0.396851	
-0.397095	
-0.396667	
-0.396973	
-0.396423	
-0.396912	
-0.395752	
-0.396545	
-0.394836	
-0.395203	
-0.395386	
-0.393799	
-0.394714	
-0.394409	
-0.395142	
-0.393738	
-0.394531	
-0.394897	
-0.394348	
-0.394592	
-0.393921	
-0.394043	
-0.394043	
-0.394348	
-0.395203	
-0.39502	
-0.394714	
-0.395203	
-0.394714	
-0.394714	
-0.395203	
-0.394836	
-0.394226	
-0.395081	
-0.395264	
-0.395569	
-0.395752	
-0.395935	
-0.395752	
-0.39502	
-0.395508	
-0.395203	
-0.394409	
-0.395142	
-0.394958	
-0.393799	
-0.39502	
-0.395813	
-0.395447	
-0.39502	
-0.395264	
-0.394531	
-0.394409	
-0.395081	
-0.394104	
-0.393555	
-0.393799	
-0.393799	
-0.39447	
-0.394226	
-0.39447	
-0.394958	
-0.394714	
-0.394165	
-0.395264	
-0.394775	
-0.394836	
-0.395325	
-0.394897	
-0.395935	
-0.395935	
-0.396301	
-0.395203	
-0.395447	
-0.395752	
-0.394836	
-0.394653	
-0.394714	
-0.394775	
-0.393982	
-0.394409	
-0.394836	
-0.394958	
-0.394348	
-0.394714	
-0.394775	
-0.394836	
-0.395081	
-0.394775	
-0.395081	
-0.395935	
-0.396484	
-0.396973	
-0.397827	
-0.398193	
-0.398682	
-0.397583	
-0.398743	
-0.399231	
-0.397827	
-0.398804	
-0.398926	
-0.39856	
-0.399597	
-0.400574	
-0.400452	
-0.399902	
-0.400574	
-0.40033	
-0.399719	
-0.400024	
-0.399292	
-0.399597	
-0.399475	
-0.399353	
-0.39917	
-0.399048	
-0.398804	
-0.398865	
-0.397583	
-0.396851	
-0.398071	
-0.397766	
-0.396362	
-0.3974	
-0.396362	
-0.3974	
-0.398193	
-0.397827	
-0.397583	
-0.397156	
-0.39801	
-0.397217	
-0.396912	
-0.396362	
-0.396545	
-0.396912	
-0.396973	
-0.397156	
-0.396667	
-0.39624	
-0.396301	
-0.395447	
-0.394653	
-0.394531	
-0.394287	
-0.393799	
-0.393555	
-0.392822	
-0.394043	
-0.393494	
-0.393677	
-0.393738	
-0.392151	
-0.39325	
-0.393005	
-0.392517	
-0.391968	
-0.392761	
-0.392578	
-0.393127	
-0.394165	
-0.393555	
-0.392944	
-0.393066	
-0.392761	
-0.393311	
-0.392822	
-0.39325	
-0.393555	
-0.393799	
-0.393921	
-0.394287	
-0.394165	
-0.394531	
-0.39502	
-0.393982	
-0.393738	
-0.394714	
-0.39502	
-0.394287	
-0.394775	
-0.393738	
-0.395264	
-0.395508	
-0.395813	
-0.395264	
-0.39502	
-0.395874	
-0.395508	
-0.395325	
-0.395386	
-0.395935	
-0.39563	
-0.396057	
-0.396912	
-0.396301	
-0.395813	
-0.396912	
-0.396423	
-0.395508	
-0.396973	
-0.396729	
-0.396057	
-0.396973	
-0.396606	
-0.39679	
-0.396851	
-0.397827	
-0.396729	
-0.39563	
-0.396729	
-0.396179	
-0.395447	
-0.395142	
-0.395508	
-0.394409	
-0.395447	
-0.395813	
-0.395386	
-0.394897	
-0.395569	
-0.394836	
-0.394592	
-0.394897	
-0.394897	
-0.393555	
-0.394226	
-0.394531	
-0.395142	
-0.395447	
-0.395508	
-0.396179	
-0.395203	
-0.396423	
-0.397217	
-0.397461	
-0.397278	
-0.398071	
-0.398682	
-0.399109	
-0.400146	
-0.400696	
-0.399841	
-0.39978	
-0.400391	
-0.400757	
-0.399658	
-0.400391	
-0.400391	
-0.399719	
-0.400391	
-0.400146	
-0.400574	
-0.399963	
-0.40033	
-0.399353	
-0.399597	
-0.399597	
-0.399231	
-0.398438	
-0.398621	
-0.39856	
-0.399109	
-0.399414	
-0.39917	
-0.39856	
-0.397766	
-0.397583	
-0.398071	
-0.396606	
-0.397583	
-0.397461	
-0.396484	
-0.397461	
-0.397583	
-0.397888	
-0.396912	
-0.397217	
-0.39624	
-0.396362	
-0.396118	
-0.394958	
-0.39386	
-0.393555	
-0.393311	
-0.393188	
-0.392944	
-0.392456	
-0.391846	
-0.390869	
-0.391357	
-0.391296	
-0.389893	
-0.390991	
-0.390564	
-0.390869	
-0.390747	
-0.391479	
-0.391357	
-0.390381	
-0.391235	
-0.390503	
-0.391113	
-0.391479	
-0.391602	
-0.390747	
-0.391663	
-0.391846	
-0.391663	
-0.392334	
-0.391418	
-0.392395	
-0.391296	
	
