E:\DOCUMENTS AND SETTINGS\JPOTAS\MEUS DOCUMENTOS\UFRJ\RSCI-BM 12 WK SERIES\070719-RSCI-BM-02\RSCI-BM-02-LEMG\070719-RSCI-BM-02-LEMG-0009.ACQ
0.025000 msec/sample
1 channel
Analog input
Volts
CH1	
2000	
-0.393433	
-0.394348	
-0.395508	
-0.394287	
-0.395081	
-0.39386	
-0.394409	
-0.393372	
-0.39502	
-0.394653	
-0.394897	
-0.39447	
-0.394653	
-0.396057	
-0.394897	
-0.396301	
-0.394775	
-0.394531	
-0.394714	
-0.394287	
-0.395081	
-0.39502	
-0.394958	
-0.395081	
-0.396057	
-0.396484	
-0.396912	
-0.397461	
-0.395569	
-0.397156	
-0.397644	
-0.397705	
-0.398193	
-0.398254	
-0.397705	
-0.39856	
-0.399719	
-0.398926	
-0.399475	
-0.398132	
-0.39917	
-0.39801	
-0.399841	
-0.398865	
-0.398682	
-0.398071	
-0.39801	
-0.398987	
-0.397827	
-0.397644	
-0.396667	
-0.395569	
-0.395691	
-0.395935	
-0.396484	
-0.396057	
-0.395508	
-0.395691	
-0.396362	
-0.396729	
-0.39624	
-0.396118	
-0.394043	
-0.395142	
-0.394897	
-0.395264	
-0.395264	
-0.395325	
-0.394287	
-0.39502	
-0.396057	
-0.395996	
-0.395752	
-0.394104	
-0.394104	
-0.394897	
-0.395264	
-0.395203	
-0.394836	
-0.393799	
-0.394958	
-0.395569	
-0.396179	
-0.395325	
-0.395081	
-0.394897	
-0.395447	
-0.396362	
-0.396057	
-0.395813	
-0.39563	
-0.396545	
-0.396973	
-0.398193	
-0.3974	
-0.3974	
-0.395813	
-0.397156	
-0.397461	
-0.397705	
-0.397827	
-0.397949	
-0.398743	
-0.398376	
-0.399231	
-0.398193	
-0.398743	
-0.397644	
-0.395996	
-0.39801	
-0.39801	
-0.398376	
-0.397705	
-0.397156	
-0.397217	
-0.397705	
-0.398621	
-0.397278	
-0.396912	
-0.395752	
-0.396973	
-0.397095	
-0.397034	
-0.397095	
-0.395874	
-0.396362	
-0.396729	
-0.398682	
-0.397156	
-0.396423	
-0.395386	
-0.39679	
-0.395752	
-0.396545	
-0.39679	
-0.39624	
-0.3974	
-0.397522	
-0.398743	
-0.397156	
-0.397766	
-0.397156	
-0.397278	
-0.398132	
-0.398071	
-0.39801	
-0.397034	
-0.397339	
-0.397827	
-0.398193	
-0.397766	
-0.397644	
-0.396851	
-0.395569	
-0.397095	
-0.396423	
-0.396301	
-0.396484	
-0.396118	
-0.39624	
-0.397095	
-0.397949	
-0.396545	
-0.396179	
-0.394714	
-0.396362	
-0.395569	
-0.39679	
-0.397034	
-0.39563	
-0.397034	
-0.397583	
-0.399048	
-0.397583	
-0.398438	
-0.397156	
-0.3974	
-0.398438	
-0.398621	
-0.398376	
-0.398926	
-0.399475	
-0.399048	
-0.399963	
-0.399719	
-0.400024	
-0.398682	
-0.397034	
-0.399475	
-0.398804	
-0.398132	
-0.398254	
-0.398315	
-0.398193	
-0.398254	
-0.399719	
-0.397827	
-0.386169	
-0.38385	
-0.384766	
-0.38501	
-0.385742	
-0.385132	
-0.39801	
-0.399658	
-0.399231	
-0.399658	
-0.399048	
-0.398804	
-0.397034	
-0.397766	
-0.398071	
-0.398438	
-0.39801	
-0.397949	
-0.398499	
-0.398865	
-0.399414	
-0.398865	
-0.397766	
-0.398193	
-0.39679	
-0.397583	
-0.397644	
-0.397278	
-0.396301	
-0.396729	
-0.396545	
-0.397278	
-0.398132	
-0.396912	
-0.396118	
-0.395874	
-0.397217	
-0.396667	
-0.397156	
-0.396606	
-0.396851	
-0.396606	
-0.396912	
-0.398315	
-0.398193	
-0.396729	
-0.395996	
-0.397583	
-0.397522	
-0.396973	
-0.396362	
-0.396423	
-0.395447	
-0.395569	
-0.395569	
-0.394836	
-0.39386	
-0.392944	
-0.391541	
-0.393616	
-0.382813	
-0.381104	
-0.383057	
-0.385742	
-0.388855	
-0.393555	
-0.408691	
-0.412048	
-0.413452	
-0.416443	
-0.420227	
-0.424744	
-0.429443	
-0.434814	
-0.440063	
-0.445129	
-0.450989	
-0.455017	
-0.458862	
-0.462219	
-0.465637	
-0.469299	
-0.473633	
-0.475403	
-0.477295	
-0.478699	
-0.480286	
-0.481323	
-0.481201	
-0.479675	
-0.478943	
-0.478943	
-0.479736	
-0.480774	
-0.481445	
-0.482483	
-0.483948	
-0.485718	
-0.488464	
-0.491089	
-0.492737	
-0.494446	
-0.497253	
-0.500732	
-0.503845	
-0.506897	
-0.509705	
-0.51239	
-0.514404	
-0.516724	
-0.51825	
-0.517273	
-0.515076	
-0.513855	
-0.511536	
-0.509644	
-0.506042	
-0.502625	
-0.49762	
-0.493347	
-0.489502	
-0.484924	
-0.478638	
-0.472412	
-0.46814	
-0.463867	
-0.460266	
-0.457275	
-0.454407	
-0.452332	
-0.450317	
-0.449524	
-0.446777	
-0.444214	
-0.441956	
-0.439941	
-0.43573	
-0.434143	
-0.431213	
-0.426636	
-0.424255	
-0.420715	
-0.416626	
-0.412109	
-0.408569	
-0.402283	
-0.397339	
-0.391785	
-0.385315	
-0.380737	
-0.374268	
-0.368408	
-0.361511	
-0.355042	
-0.348511	
-0.343384	
-0.337097	
-0.329773	
-0.326355	
-0.321411	
-0.316406	
-0.312012	
-0.308533	
-0.306152	
-0.303894	
-0.303345	
-0.304749	
-0.305176	
-0.305298	
-0.30896	
-0.312195	
-0.316223	
-0.319824	
-0.324463	
-0.329285	
-0.3349	
-0.340759	
-0.348206	
-0.353882	
-0.359497	
-0.365601	
-0.370972	
-0.37738	
-0.382629	
-0.387817	
-0.392761	
-0.398315	
-0.401733	
-0.406189	
-0.408875	
-0.413147	
-0.4151	
-0.419495	
-0.422607	
-0.423767	
-0.426086	
-0.426819	
-0.42804	
-0.427979	
-0.42926	
-0.42804	
-0.428467	
-0.427673	
-0.427185	
-0.428345	
-0.428101	
-0.429199	
-0.429626	
-0.430237	
-0.429749	
-0.431396	
-0.428711	
-0.428101	
-0.42749	
-0.425659	
-0.425598	
-0.424561	
-0.423523	
-0.422119	
-0.420227	
-0.417786	
-0.415771	
-0.413452	
-0.408875	
-0.406433	
-0.402527	
-0.399414	
-0.395325	
-0.391846	
-0.387207	
-0.382935	
-0.378052	
-0.372986	
-0.36792	
-0.360352	
-0.356018	
-0.348633	
-0.345032	
-0.339172	
-0.33313	
-0.329041	
-0.324707	
-0.320374	
-0.31665	
-0.313782	
-0.30896	
-0.306519	
-0.302002	
-0.30188	
-0.300293	
-0.298279	
-0.298645	
-0.298279	
-0.298645	
-0.300232	
-0.301575	
-0.302002	
-0.305237	
-0.307434	
-0.310852	
-0.314026	
-0.317383	
-0.321106	
-0.324402	
-0.32782	
-0.332947	
-0.334839	
-0.337585	
-0.340759	
-0.342285	
-0.346069	
-0.348267	
-0.351196	
-0.353149	
-0.356628	
-0.358337	
-0.361145	
-0.362	
-0.36438	
-0.364075	
-0.367493	
-0.369141	
-0.36969	
-0.372681	
-0.374084	
-0.375427	
-0.376648	
-0.378418	
-0.377808	
-0.380615	
-0.379944	
-0.383484	
-0.384277	
-0.384399	
-0.387085	
-0.388245	
-0.388489	
-0.390015	
-0.391724	
-0.390869	
-0.391724	
-0.390808	
-0.392944	
-0.393066	
-0.392456	
-0.393433	
-0.393372	
-0.393005	
-0.392944	
-0.39386	
-0.390991	
-0.390259	
-0.38916	
-0.388428	
-0.387939	
-0.386292	
-0.38678	
-0.386292	
-0.385498	
-0.385315	
-0.387085	
-0.38446	
-0.384338	
-0.38324	
-0.383545	
-0.383118	
-0.382202	
-0.383118	
-0.383789	
-0.384033	
-0.38501	
-0.387756	
-0.386353	
-0.386841	
-0.388	
-0.388062	
-0.38855	
-0.388977	
-0.389648	
-0.390137	
-0.389893	
-0.390503	
-0.391235	
-0.389954	
-0.390869	
-0.39093	
-0.390869	
-0.39093	
-0.390564	
-0.390625	
-0.390991	
-0.390198	
-0.390137	
-0.390869	
-0.389404	
-0.390198	
-0.389648	
-0.389832	
-0.390198	
-0.390442	
-0.390747	
-0.391418	
-0.391724	
-0.391663	
-0.393738	
-0.391113	
-0.391968	
-0.391907	
-0.391724	
-0.391541	
-0.391479	
-0.391602	
-0.391724	
-0.391785	
-0.391296	
-0.393127	
-0.391418	
-0.391174	
-0.390686	
-0.391174	
-0.391235	
-0.390869	
-0.391357	
-0.391968	
-0.390503	
-0.390808	
-0.391907	
-0.390686	
-0.390686	
-0.38916	
-0.390442	
-0.390198	
-0.389099	
-0.390503	
-0.390869	
-0.389648	
-0.389832	
-0.389648	
-0.38855	
-0.388306	
-0.386719	
-0.388306	
-0.387024	
-0.386902	
-0.386475	
-0.385498	
-0.384827	
-0.385376	
-0.384705	
-0.384521	
-0.384644	
-0.38269	
-0.384583	
-0.384338	
-0.384033	
-0.384155	
-0.384277	
-0.384766	
-0.385742	
-0.384094	
-0.384827	
-0.385498	
-0.383911	
-0.385071	
-0.385132	
-0.385925	
-0.386108	
-0.386475	
-0.386658	
-0.387939	
-0.387512	
-0.387634	
-0.388	
-0.386597	
-0.388855	
-0.388428	
-0.388855	
-0.389343	
-0.389221	
-0.389648	
-0.390259	
-0.390808	
-0.390503	
-0.391174	
-0.389832	
-0.391541	
-0.391357	
-0.391418	
-0.391968	
-0.391846	
-0.392761	
-0.392822	
-0.393494	
-0.392944	
-0.393311	
-0.392212	
-0.393677	
-0.393555	
-0.393433	
-0.393677	
-0.393494	
-0.393677	
-0.393494	
-0.394409	
-0.393616	
-0.393921	
-0.392578	
-0.394104	
-0.394226	
-0.394287	
-0.39502	
-0.395264	
-0.394897	
-0.39563	
-0.396179	
-0.395813	
-0.395874	
-0.394592	
-0.396118	
-0.396301	
-0.395874	
-0.396118	
-0.396484	
-0.395935	
-0.396301	
-0.396912	
-0.396545	
-0.396179	
-0.394775	
-0.395996	
-0.395996	
-0.396423	
-0.39679	
-0.397766	
-0.3974	
-0.397949	
-0.399536	
-0.398499	
-0.398926	
-0.397339	
-0.399048	
-0.399292	
-0.399658	
-0.399841	
-0.400024	
-0.400146	
-0.400085	
-0.401489	
-0.400208	
-0.400757	
-0.398621	
-0.400452	
-0.400024	
-0.399902	
-0.400024	
-0.40033	
-0.399353	
-0.399841	
-0.39978	
-0.398621	
-0.399048	
-0.396301	
-0.398682	
-0.397827	
-0.397644	
-0.398132	
-0.398132	
-0.397705	
-0.398254	
-0.39801	
-0.397644	
-0.398193	
-0.39502	
-0.397339	
-0.39679	
-0.397095	
-0.397217	
-0.397217	
-0.396423	
-0.39679	
-0.397034	
-0.396484	
-0.396851	
-0.393738	
-0.396301	
-0.395386	
-0.396545	
-0.396362	
-0.39563	
-0.395691	
-0.395813	
-0.396729	
-0.396118	
-0.395813	
-0.393188	
-0.396057	
-0.395081	
-0.39624	
-0.396179	
-0.395813	
-0.396545	
-0.396851	
-0.398071	
-0.396973	
-0.396973	
-0.395264	
-0.397339	
-0.39624	
-0.397339	
-0.397888	
-0.397705	
-0.397644	
-0.398193	
-0.400269	
-0.397949	
-0.397705	
-0.397278	
-0.397278	
-0.396423	
-0.397766	
-0.398193	
-0.397766	
-0.397095	
-0.396973	
-0.397949	
-0.397156	
-0.3974	
-0.396667	
-0.396606	
-0.39563	
-0.396912	
-0.397095	
-0.397522	
-0.397278	
-0.396912	
-0.397156	
-0.397705	
-0.39801	
-0.397095	
-0.39447	
-0.396851	
-0.3974	
-0.3974	
-0.3974	
-0.397522	
-0.397583	
-0.397766	
-0.399353	
-0.398926	
-0.398193	
-0.396423	
-0.398315	
-0.398132	
-0.398865	
-0.39856	
-0.398499	
-0.398438	
-0.397461	
-0.401062	
-0.399841	
-0.398804	
-0.397339	
-0.398376	
-0.398499	
-0.398315	
-0.398254	
-0.398193	
-0.398132	
-0.397156	
-0.400513	
-0.398926	
-0.397705	
-0.397278	
-0.397766	
-0.397949	
-0.397949	
-0.398743	
-0.398743	
-0.398438	
-0.397644	
-0.401245	
-0.399414	
-0.399109	
-0.398926	
-0.398438	
-0.399841	
-0.399841	
-0.40033	
-0.399963	
-0.400269	
-0.400208	
-0.402161	
-0.400635	
-0.400513	
-0.399353	
-0.398743	
-0.400208	
-0.400269	
-0.399963	
-0.399841	
-0.399841	
-0.398804	
-0.401245	
-0.399963	
-0.399109	
-0.398071	
-0.398438	
-0.398987	
-0.398621	
-0.399109	
-0.398926	
-0.398376	
-0.397949	
-0.400085	
-0.400085	
-0.398865	
-0.398743	
-0.3974	
-0.399231	
-0.399048	
-0.400024	
-0.399353	
-0.399475	
-0.398254	
-0.400146	
-0.401001	
-0.39917	
-0.398682	
-0.396851	
-0.39917	
-0.399353	
-0.399902	
-0.399048	
-0.398926	
-0.397888	
-0.398621	
-0.400208	
-0.398071	
-0.397217	
-0.395264	
-0.397339	
-0.397217	
-0.398315	
-0.397156	
-0.397156	
-0.397278	
-0.397705	
-0.399597	
-0.397522	
-0.397034	
-0.39563	
-0.397034	
-0.397522	
-0.39801	
-0.397583	
-0.397034	
-0.397339	
-0.39801	
-0.39978	
-0.397705	
-0.397644	
-0.396179	
-0.397644	
-0.397827	
-0.398254	
-0.397522	
-0.397888	
-0.397461	
-0.397583	
-0.398438	
-0.396912	
-0.397034	
-0.396301	
-0.395874	
-0.396606	
-0.397461	
-0.397217	
-0.397156	
-0.397217	
-0.397766	
-0.39978	
-0.398987	
-0.397705	
-0.397583	
-0.39563	
-0.398682	
-0.399109	
-0.399475	
-0.399109	
-0.399048	
-0.398682	
-0.400085	
-0.401611	
-0.399658	
-0.399231	
-0.397827	
-0.399597	
-0.399048	
-0.399597	
-0.399231	
-0.399109	
-0.397583	
-0.39856	
-0.399658	
-0.397949	
-0.397461	
-0.396606	
-0.397522	
-0.398193	
-0.398071	
-0.397583	
-0.3974	
-0.39679	
-0.397705	
-0.398743	
-0.397644	
-0.397278	
-0.395813	
-0.396545	
-0.397461	
-0.39856	
-0.397949	
-0.397705	
-0.3974	
-0.397705	
-0.399048	
-0.398987	
-0.397888	
-0.396973	
-0.396912	
-0.397766	
-0.39856	
-0.397583	
-0.398071	
-0.397949	
-0.39856	
-0.399231	
-0.398682	
-0.398071	
-0.397583	
-0.396301	
-0.397827	
-0.398193	
-0.397644	
-0.397461	
-0.397278	
-0.397522	
-0.398682	
-0.398193	
-0.397095	
-0.396667	
-0.394958	
-0.395813	
-0.396973	
-0.396729	
-0.396545	
-0.39679	
-0.395691	
-0.397705	
-0.398987	
-0.3974	
-0.396606	
-0.396606	
-0.396912	
-0.3974	
-0.397766	
-0.397217	
-0.397217	
-0.396118	
-0.396423	
-0.397217	
-0.396484	
-0.395142	
-0.393616	
-0.394226	
-0.394287	
-0.395081	
-0.394104	
-0.393677	
-0.393677	
-0.393799	
-0.395142	
-0.393799	
-0.393433	
-0.392578	
-0.392456	
-0.393738	
-0.394775	
-0.394165	
-0.394043	
-0.394287	
-0.394836	
-0.396057	
-0.395691	
-0.395874	
-0.394653	
-0.394226	
-0.395752	
-0.396301	
-0.395935	
-0.396545	
-0.396362	
-0.396729	
-0.397156	
-0.397583	
-0.39679	
-0.396057	
-0.394897	
-0.395447	
-0.396851	
-0.396912	
-0.397156	
-0.396973	
-0.396301	
-0.397278	
-0.398621	
-0.397583	
-0.396851	
-0.395325	
-0.396545	
-0.396851	
-0.397217	
-0.397217	
-0.397156	
-0.396057	
-0.397156	
-0.398376	
-0.397461	
-0.396484	
-0.395142	
-0.396362	
-0.396545	
-0.397217	
-0.395813	
-0.395508	
-0.395142	
-0.395081	
-0.396118	
-0.395264	
-0.394531	
-0.39386	
-0.392883	
-0.394348	
-0.394775	
-0.394165	
-0.393921	
-0.393982	
-0.394409	
-0.395508	
-0.39502	
-0.394043	
-0.394226	
-0.393433	
-0.393433	
-0.395081	
-0.395081	
-0.395142	
-0.395325	
-0.395203	
-0.396179	
-0.396667	
-0.396729	
-0.395447	
-0.39447	
-0.395142	
-0.395752	
-0.39563	
-0.395569	
-0.395935	
-0.395447	
-0.396423	
-0.396423	
-0.396912	
-0.39563	
-0.394409	
-0.395996	
-0.39624	
-0.396301	
-0.395752	
-0.395264	
-0.39502	
-0.395752	
-0.396362	
-0.395325	
-0.395264	
-0.393921	
-0.394958	
-0.394775	
-0.396179	
-0.395447	
-0.395386	
-0.39447	
-0.395142	
-0.396729	
-0.395447	
-0.39563	
-0.394348	
-0.394348	
-0.394531	
-0.396362	
-0.395935	
-0.395935	
-0.395386	
-0.395874	
-0.397278	
-0.396362	
-0.396667	
-0.395142	
-0.394897	
-0.395142	
-0.395874	
-0.395447	
-0.395264	
-0.394836	
-0.395081	
-0.395691	
-0.395203	
-0.394714	
-0.39386	
-0.392517	
-0.393555	
-0.393494	
-0.393494	
-0.392883	
-0.392822	
-0.391724	
-0.393188	
-0.393921	
-0.393372	
-0.393433	
-0.39209	
-0.393372	
-0.393005	
-0.393555	
-0.393677	
-0.393311	
-0.39325	
-0.394714	
-0.396423	
-0.395508	
-0.395203	
-0.393982	
-0.394043	
-0.394592	
-0.395935	
-0.39502	
-0.394775	
-0.394348	
-0.394409	
-0.395447	
-0.394775	
-0.394836	
-0.393311	
-0.393372	
-0.39325	
-0.39447	
-0.394043	
-0.39386	
-0.393738	
-0.394043	
-0.395325	
-0.395264	
-0.394653	
-0.393494	
-0.392883	
-0.393738	
-0.394897	
-0.394958	
-0.395325	
-0.394897	
-0.395874	
-0.396301	
-0.396423	
-0.396973	
-0.395691	
-0.394348	
-0.395508	
-0.396057	
-0.395935	
-0.395813	
-0.39563	
-0.395752	
-0.39624	
-0.397034	
-0.396179	
-0.395447	
-0.393738	
-0.394226	
-0.39563	
-0.395508	
-0.395264	
-0.395325	
-0.395081	
-0.396057	
-0.397461	
-0.39679	
-0.395874	
-0.394592	
-0.39502	
-0.395081	
-0.395813	
-0.395325	
-0.395325	
-0.394287	
-0.395447	
-0.397217	
-0.396179	
-0.396057	
-0.394592	
-0.394775	
-0.393799	
-0.394287	
-0.393799	
-0.393372	
-0.392883	
-0.393616	
-0.393921	
-0.393372	
-0.393372	
-0.3927	
-0.392151	
-0.392334	
-0.393127	
-0.392578	
-0.392639	
-0.392151	
-0.392456	
-0.392639	
-0.392517	
-0.392761	
-0.391846	
-0.39032	
-0.391052	
-0.393188	
-0.392639	
-0.393005	
-0.393188	
-0.393555	
-0.393555	
-0.394775	
-0.394165	
-0.393311	
-0.392944	
-0.392883	
-0.392639	
-0.392883	
-0.393433	
-0.393433	
-0.393433	
-0.393616	
-0.39502	
-0.394287	
-0.393616	
-0.392578	
-0.392944	
-0.392578	
-0.393555	
-0.393066	
-0.393311	
-0.393188	
-0.393311	
-0.39386	
-0.393555	
-0.393494	
-0.39209	
-0.3927	
-0.392517	
-0.392517	
-0.392822	
-0.392639	
-0.392395	
-0.392578	
-0.392944	
-0.392944	
-0.393738	
-0.392761	
-0.391907	
-0.392029	
-0.39325	
-0.39325	
-0.393433	
-0.392212	
-0.393616	
-0.394226	
-0.394409	
-0.39447	
-0.393738	
-0.392639	
-0.392517	
-0.39386	
-0.394104	
-0.393677	
-0.393738	
-0.394592	
-0.394348	
-0.395264	
-0.39502	
-0.394043	
-0.393188	
-0.394104	
-0.394348	
-0.394653	
-0.395203	
-0.39563	
-0.396118	
-0.396484	
-0.398254	
-0.397888	
-0.398132	
-0.3974	
-0.397461	
-0.397644	
-0.397827	
-0.397766	
-0.397705	
-0.397705	
-0.398193	
-0.398804	
-0.398743	
-0.398438	
-0.397278	
-0.396667	
-0.397339	
-0.397217	
-0.396667	
-0.396118	
-0.395752	
-0.396057	
-0.395996	
-0.396118	
-0.395386	
-0.394043	
-0.392944	
-0.393433	
-0.393982	
-0.394592	
-0.393921	
-0.393433	
-0.394348	
-0.395081	
-0.395813	
-0.395203	
-0.394714	
-0.392212	
-0.3927	
-0.393494	
-0.394043	
-0.393311	
-0.393066	
-0.39386	
-0.394043	
-0.395447	
-0.39447	
-0.39447	
-0.392578	
-0.392944	
-0.394226	
-0.393555	
-0.393555	
-0.39386	
-0.394165	
-0.394348	
-0.395142	
-0.394958	
-0.394958	
-0.394287	
-0.393372	
-0.395264	
-0.39447	
-0.395386	
-0.395142	
-0.395813	
-0.395996	
-0.396301	
-0.3974	
-0.395996	
-0.39679	
-0.394165	
-0.396362	
-0.395142	
-0.395874	
-0.396057	
-0.396423	
-0.396606	
-0.396362	
-0.398132	
-0.39624	
-0.396423	
-0.394287	
-0.395386	
-0.394958	
-0.39502	
-0.394531	
-0.394531	
-0.394775	
-0.395142	
-0.396179	
-0.394714	
-0.395081	
-0.393982	
-0.393799	
-0.393982	
-0.394592	
-0.394226	
-0.393982	
-0.394287	
-0.394287	
-0.394897	
-0.394958	
-0.394531	
-0.393982	
-0.393799	
-0.394653	
-0.393372	
-0.39447	
-0.39386	
-0.395081	
-0.395081	
-0.394775	
-0.396179	
-0.395264	
-0.395264	
-0.392639	
-0.395752	
-0.394104	
-0.394714	
-0.394043	
-0.39502	
-0.394531	
-0.394714	
-0.39624	
-0.39386	
-0.394897	
-0.393005	
-0.394592	
-0.393799	
-0.394104	
-0.393677	
-0.394104	
-0.39447	
-0.393982	
-0.395935	
-0.394287	
-0.394897	
-0.393982	
-0.394958	
-0.394897	
-0.394653	
-0.395081	
-0.395264	
-0.39563	
-0.395752	
-0.396912	
-0.396484	
-0.396545	
-0.396545	
-0.395874	
-0.396484	
-0.395935	
-0.397278	
-0.396301	
-0.396667	
-0.396912	
-0.397339	
-0.397705	
-0.396484	
-0.397095	
-0.394714	
-0.396301	
-0.396057	
-0.395813	
-0.394348	
-0.395569	
-0.395508	
-0.395569	
-0.396851	
-0.395264	
-0.395325	
-0.394043	
-0.396118	
-0.395569	
-0.395081	
-0.395569	
-0.395691	
-0.395813	
-0.395691	
-0.3974	
-0.395874	
-0.395691	
-0.395874	
-0.395203	
-0.395874	
-0.395569	
-0.39563	
-0.395569	
-0.395935	
-0.395935	
-0.396667	
-0.396057	
-0.395508	
-0.395569	
-0.394043	
-0.394348	
-0.394104	
-0.393921	
-0.392883	
-0.394043	
-0.393677	
-0.394226	
-0.395081	
-0.39386	
-0.394043	
-0.391785	
-0.394775	
-0.393372	
-0.393005	
-0.393494	
-0.394043	
-0.394165	
-0.394714	
-0.396118	
-0.39386	
-0.394165	
-0.393555	
-0.394958	
-0.394409	
-0.393982	
-0.394043	
-0.394836	
-0.394775	
-0.395142	
-0.397156	
-0.395203	
-0.394897	
-0.395325	
-0.395508	
-0.395325	
-0.394653	
-0.395081	
-0.394897	
-0.394958	
-0.394897	
-0.396729	
-0.395569	
-0.395935	
-0.395569	
-0.395569	
-0.396118	
-0.395996	
-0.394897	
-0.39502	
-0.396851	
-0.396851	
-0.397461	
-0.397217	
-0.396729	
-0.39679	
-0.396912	
-0.397644	
-0.397156	
-0.396545	
-0.396851	
-0.397583	
-0.397461	
-0.397461	
-0.39801	
-0.39679	
-0.397034	
-0.395325	
-0.396606	
-0.395874	
-0.395569	
-0.395996	
-0.396362	
-0.396057	
-0.395996	
-0.397217	
-0.395996	
-0.395508	
-0.394653	
-0.395203	
-0.395935	
-0.395691	
-0.395447	
-0.395386	
-0.395569	
-0.39563	
-0.397278	
-0.396362	
-0.39563	
-0.395447	
-0.395996	
-0.395935	
-0.395996	
-0.39502	
-0.395081	
-0.395935	
-0.396118	
-0.396423	
-0.396667	
-0.395996	
-0.395508	
-0.396484	
-0.396851	
-0.395813	
-0.39563	
-0.39563	
-0.395996	
-0.395752	
-0.396057	
-0.395874	
-0.395752	
-0.394836	
-0.393188	
-0.395508	
-0.394775	
-0.394348	
-0.393921	
-0.394287	
-0.394226	
-0.394714	
-0.39563	
-0.39447	
-0.394165	
-0.3927	
-0.394043	
-0.393921	
-0.393555	
-0.39325	
-0.393921	
-0.394409	
-0.394287	
-0.39563	
-0.394226	
-0.393372	
-0.392883	
-0.393066	
-0.392273	
-0.39209	
-0.391479	
-0.390869	
-0.391174	
-0.39093	
-0.391296	
-0.391785	
-0.390869	
-0.390259	
-0.390625	
-0.391052	
-0.390259	
-0.389709	
-0.389221	
-0.390808	
-0.390808	
-0.391052	
-0.391846	
-0.391052	
-0.391785	
-0.389771	
-0.393127	
-0.392578	
-0.392334	
-0.391907	
-0.393127	
-0.39325	
-0.393433	
-0.395691	
-0.39325	
-0.393311	
-0.392944	
-0.393433	
-0.393494	
-0.393555	
-0.392944	
-0.393982	
-0.394165	
-0.394043	
-0.395447	
-0.395203	
-0.394714	
-0.39386	
-0.395081	
-0.394287	
-0.39447	
-0.394104	
-0.394226	
-0.394592	
-0.39502	
-0.395264	
-0.395203	
-0.394348	
-0.394531	
-0.394348	
-0.395081	
-0.394531	
-0.39502	
-0.39386	
-0.394592	
-0.393982	
-0.394287	
-0.394165	
-0.393433	
-0.39325	
-0.391846	
-0.393677	
-0.3927	
-0.392151	
-0.391052	
-0.392029	
-0.39209	
-0.392517	
-0.393677	
-0.392456	
-0.39209	
-0.390625	
-0.392456	
-0.392029	
-0.392151	
-0.391113	
-0.392334	
-0.392334	
-0.393005	
-0.394897	
-0.393372	
-0.393127	
-0.3927	
-0.393372	
-0.393311	
-0.39325	
-0.392761	
-0.393311	
-0.393677	
-0.393677	
-0.394653	
-0.394043	
-0.393433	
-0.392883	
-0.39386	
-0.394043	
-0.393616	
-0.393005	
-0.392578	
-0.393982	
-0.39386	
-0.393982	
-0.393799	
-0.393372	
-0.393188	
-0.392883	
-0.393555	
-0.393188	
-0.393188	
-0.392639	
-0.392761	
-0.393005	
-0.393738	
-0.39325	
-0.392822	
-0.392944	
-0.39093	
-0.393066	
-0.3927	
-0.393066	
-0.392273	
-0.393555	
-0.393677	
-0.393921	
-0.395386	
-0.394409	
-0.393433	
-0.393494	
-0.39447	
-0.393616	
-0.393555	
-0.393188	
-0.393677	
-0.393127	
-0.393555	
-0.394592	
-0.393677	
-0.392578	
-0.391907	
-0.392944	
-0.391907	
-0.391602	
-0.391479	
-0.390381	
-0.391479	
-0.391174	
-0.391418	
-0.390991	
-0.390625	
-0.390442	
-0.390381	
-0.390442	
-0.391235	
-0.391052	
-0.389526	
-0.391235	
-0.391418	
-0.391785	
-0.391846	
-0.392395	
-0.392029	
-0.390686	
-0.393066	
-0.393188	
-0.393005	
-0.391968	
-0.392761	
-0.392639	
-0.392639	
-0.393921	
-0.39325	
-0.392578	
-0.391541	
-0.392944	
-0.392212	
-0.39209	
-0.391479	
-0.391541	
-0.391907	
-0.391907	
-0.392883	
-0.392029	
-0.391724	
-0.391663	
-0.391663	
-0.391418	
-0.391785	
-0.391235	
-0.39209	
-0.392334	
-0.393127	
-0.393311	
-0.393433	
-0.393555	
-0.393372	
-0.392517	
-0.3927	
-0.393921	
-0.393616	
-0.392151	
-0.393433	
-0.394409	
-0.394043	
-0.39502	
-0.394531	
-0.393494	
-0.392822	
-0.39386	
-0.39386	
-0.393372	
-0.391479	
-0.393616	
-0.393494	
-0.393799	
-0.394287	
-0.39325	
-0.3927	
-0.393433	
-0.394226	
-0.392517	
-0.392883	
-0.3927	
-0.393433	
-0.393311	
-0.393494	
-0.393799	
-0.39325	
-0.393188	
-0.3927	
-0.393372	
-0.392151	
-0.392578	
-0.391785	
-0.391724	
-0.391846	
-0.391846	
-0.391785	
-0.392395	
-0.3927	
-0.39093	
-0.39093	
-0.390442	
-0.390808	
-0.390442	
-0.390381	
-0.390686	
-0.390503	
-0.39093	
-0.391663	
-0.39093	
-0.39032	
-0.389526	
-0.390503	
-0.390503	
-0.390137	
-0.389099	
-0.390808	
-0.391113	
-0.391174	
-0.392517	
-0.391663	
-0.391541	
-0.391113	
-0.391602	
-0.391418	
-0.391357	
-0.390137	
-0.391296	
-0.391479	
-0.391846	
-0.392639	
-0.392212	
-0.391968	
-0.391968	
-0.392578	
-0.390259	
-0.391663	
-0.390442	
-0.391235	
-0.391357	
-0.391602	
-0.39209	
-0.392517	
-0.391968	
-0.391418	
-0.392212	
-0.390564	
-0.391235	
-0.391113	
-0.391235	
-0.390808	
-0.391113	
-0.391174	
-0.391479	
-0.391541	
-0.390625	
-0.390747	
-0.39093	
-0.391052	
-0.390747	
	
