E:\DOCUMENTS AND SETTINGS\JPOTAS\MEUS DOCUMENTOS\UFRJ\RSCI-BM 12 WK SERIES\070719-RSCI-BM-02\RSCI-BM-02-LEMG\070719-RSCI-BM-02-LEMG-0012.ACQ
0.025000 msec/sample
1 channel
Analog input
Volts
CH1	
2000	
-0.396545	
-0.396179	
-0.394958	
-0.395691	
-0.394775	
-0.394409	
-0.393555	
-0.393188	
-0.391907	
-0.392883	
-0.392822	
-0.391968	
-0.391663	
-0.390686	
-0.391418	
-0.391479	
-0.39093	
-0.390503	
-0.389404	
-0.389526	
-0.390808	
-0.390442	
-0.390259	
-0.39032	
-0.390686	
-0.389893	
-0.391479	
-0.391113	
-0.391907	
-0.391724	
-0.392517	
-0.392944	
-0.393616	
-0.39386	
-0.393738	
-0.392944	
-0.392944	
-0.394897	
-0.394348	
-0.394653	
-0.394287	
-0.394714	
-0.394897	
-0.395874	
-0.395874	
-0.395447	
-0.395752	
-0.394653	
-0.395935	
-0.39563	
-0.396301	
-0.395203	
-0.395142	
-0.395508	
-0.396545	
-0.396057	
-0.395203	
-0.395996	
-0.394409	
-0.395508	
-0.395081	
-0.395691	
-0.395386	
-0.395264	
-0.394592	
-0.395996	
-0.395935	
-0.394958	
-0.395325	
-0.394531	
-0.39502	
-0.394958	
-0.395081	
-0.394592	
-0.394043	
-0.392883	
-0.394775	
-0.39447	
-0.393372	
-0.393188	
-0.392517	
-0.393188	
-0.393799	
-0.393616	
-0.39325	
-0.393677	
-0.393494	
-0.39447	
-0.39502	
-0.394592	
-0.394165	
-0.394409	
-0.39502	
-0.394409	
-0.393982	
-0.394592	
-0.394348	
-0.394897	
-0.394897	
-0.395203	
-0.394714	
-0.394714	
-0.394775	
-0.394836	
-0.394653	
-0.394775	
-0.394653	
-0.394226	
-0.394653	
-0.394714	
-0.395386	
-0.394958	
-0.394897	
-0.394897	
-0.395386	
-0.395752	
-0.395752	
-0.395691	
-0.394897	
-0.395752	
-0.396118	
-0.395813	
-0.39624	
-0.396484	
-0.396179	
-0.396057	
-0.397461	
-0.396851	
-0.396973	
-0.396729	
-0.396973	
-0.396484	
-0.397278	
-0.397766	
-0.396729	
-0.396179	
-0.396667	
-0.398376	
-0.396912	
-0.397583	
-0.397095	
-0.397095	
-0.396484	
-0.397827	
-0.398132	
-0.397217	
-0.396301	
-0.396912	
-0.397522	
-0.396545	
-0.396118	
-0.395508	
-0.395752	
-0.394836	
-0.394958	
-0.395142	
-0.394226	
-0.392761	
-0.393433	
-0.392822	
-0.392273	
-0.391418	
-0.391296	
-0.390808	
-0.390442	
-0.391174	
-0.390625	
-0.390747	
-0.390198	
-0.391113	
-0.389771	
-0.390869	
-0.390869	
-0.391846	
-0.391174	
-0.391541	
-0.393127	
-0.392334	
-0.393127	
-0.392456	
-0.393433	
-0.392761	
-0.393921	
-0.393555	
-0.394348	
-0.393677	
-0.395325	
-0.39624	
-0.39563	
-0.396667	
-0.395813	
-0.397156	
-0.396057	
-0.397461	
-0.396301	
-0.396423	
-0.396362	
-0.385742	
-0.385193	
-0.38562	
-0.386719	
-0.385986	
-0.386963	
-0.397522	
-0.398682	
-0.397461	
-0.397522	
-0.396667	
-0.396545	
-0.396423	
-0.396667	
-0.397522	
-0.395996	
-0.396423	
-0.395935	
-0.396545	
-0.396118	
-0.395935	
-0.395691	
-0.395447	
-0.395325	
-0.395569	
-0.395813	
-0.39502	
-0.395203	
-0.394653	
-0.394958	
-0.394958	
-0.393799	
-0.394043	
-0.393066	
-0.394043	
-0.393799	
-0.394043	
-0.392944	
-0.39325	
-0.393433	
-0.393494	
-0.393738	
-0.392578	
-0.393311	
-0.392151	
-0.393921	
-0.393066	
-0.393005	
-0.392578	
-0.392456	
-0.39209	
-0.390198	
-0.390381	
-0.38855	
-0.387756	
-0.386169	
-0.386108	
-0.385559	
-0.385315	
-0.384644	
-0.383301	
-0.385376	
-0.384766	
-0.38855	
-0.390015	
-0.393433	
-0.395752	
-0.400146	
-0.403137	
-0.406006	
-0.409546	
-0.413757	
-0.420349	
-0.424561	
-0.431091	
-0.436768	
-0.4422	
-0.446411	
-0.452393	
-0.457153	
-0.461914	
-0.465149	
-0.46936	
-0.472717	
-0.47467	
-0.47644	
-0.477722	
-0.478088	
-0.477905	
-0.478699	
-0.477722	
-0.478943	
-0.478088	
-0.478699	
-0.479309	
-0.480408	
-0.481262	
-0.482849	
-0.484802	
-0.486816	
-0.479065	
-0.479126	
-0.483582	
-0.486023	
-0.48938	
-0.49231	
-0.506958	
-0.509399	
-0.509766	
-0.510376	
-0.509888	
-0.510559	
-0.508362	
-0.507385	
-0.503906	
-0.501709	
-0.497925	
-0.493958	
-0.489136	
-0.48407	
-0.479614	
-0.473633	
-0.469177	
-0.464233	
-0.4599	
-0.454895	
-0.452515	
-0.449158	
-0.446899	
-0.444946	
-0.442688	
-0.441467	
-0.43866	
-0.437988	
-0.436523	
-0.435364	
-0.432373	
-0.430664	
-0.427979	
-0.424683	
-0.420898	
-0.416687	
-0.412415	
-0.407776	
-0.403748	
-0.398132	
-0.392334	
-0.386108	
-0.379456	
-0.373291	
-0.364014	
-0.356995	
-0.348022	
-0.339355	
-0.329407	
-0.320801	
-0.311279	
-0.303528	
-0.295471	
-0.286316	
-0.281494	
-0.273682	
-0.269836	
-0.26532	
-0.262329	
-0.260864	
-0.26123	
-0.262451	
-0.266052	
-0.27002	
-0.275635	
-0.28125	
-0.286987	
-0.293457	
-0.300781	
-0.30835	
-0.316101	
-0.32489	
-0.333252	
-0.342163	
-0.349792	
-0.35907	
-0.366882	
-0.377075	
-0.383667	
-0.391602	
-0.398132	
-0.404785	
-0.409851	
-0.414185	
-0.418762	
-0.421814	
-0.42572	
-0.427673	
-0.429504	
-0.431213	
-0.433228	
-0.434631	
-0.437622	
-0.439697	
-0.441711	
-0.443665	
-0.446655	
-0.450134	
-0.453857	
-0.457275	
-0.46051	
-0.463501	
-0.466431	
-0.468872	
-0.470886	
-0.473083	
-0.472473	
-0.472412	
-0.470947	
-0.470581	
-0.468201	
-0.466003	
-0.463562	
-0.461487	
-0.459106	
-0.456421	
-0.454895	
-0.451599	
-0.450684	
-0.448303	
-0.447205	
-0.443604	
-0.441101	
-0.439209	
-0.437073	
-0.435425	
-0.432617	
-0.430908	
-0.427429	
-0.424133	
-0.421326	
-0.417542	
-0.413147	
-0.409302	
-0.404419	
-0.400085	
-0.395569	
-0.39032	
-0.384827	
-0.378479	
-0.373169	
-0.367676	
-0.361084	
-0.354126	
-0.347717	
-0.34021	
-0.333618	
-0.326599	
-0.320618	
-0.315125	
-0.309448	
-0.30365	
-0.300598	
-0.296631	
-0.292908	
-0.290527	
-0.288452	
-0.287231	
-0.286926	
-0.286865	
-0.288269	
-0.288818	
-0.291565	
-0.294189	
-0.297913	
-0.300293	
-0.303833	
-0.306396	
-0.30957	
-0.312256	
-0.315491	
-0.318542	
-0.320801	
-0.324707	
-0.32605	
-0.329529	
-0.332825	
-0.335571	
-0.337952	
-0.341492	
-0.344238	
-0.347473	
-0.350098	
-0.352539	
-0.354858	
-0.357605	
-0.360107	
-0.362488	
-0.364319	
-0.367188	
-0.369568	
-0.371887	
-0.375	
-0.376465	
-0.379883	
-0.380737	
-0.383911	
-0.384216	
-0.385986	
-0.387817	
-0.389221	
-0.390625	
-0.391785	
-0.393311	
-0.393188	
-0.394592	
-0.394348	
-0.396484	
-0.395752	
-0.396423	
-0.39624	
-0.396973	
-0.397461	
-0.397156	
-0.397949	
-0.396729	
-0.397217	
-0.395813	
-0.3974	
-0.396301	
-0.396484	
-0.39563	
-0.395935	
-0.39624	
-0.395874	
-0.396118	
-0.39447	
-0.394775	
-0.394165	
-0.395569	
-0.395386	
-0.394531	
-0.394226	
-0.394592	
-0.394348	
-0.394287	
-0.393677	
-0.392029	
-0.39325	
-0.392029	
-0.393677	
-0.3927	
-0.39209	
-0.391724	
-0.391724	
-0.391724	
-0.391724	
-0.391541	
-0.390259	
-0.391235	
-0.390015	
-0.391785	
-0.391541	
-0.390259	
-0.391052	
-0.391296	
-0.391724	
-0.391846	
-0.391907	
-0.391541	
-0.392456	
-0.391602	
-0.393433	
-0.393188	
-0.3927	
-0.392517	
-0.393127	
-0.393738	
-0.393433	
-0.393555	
-0.392883	
-0.393494	
-0.393921	
-0.39447	
-0.39447	
-0.394287	
-0.393738	
-0.39386	
-0.394836	
-0.39502	
-0.394287	
-0.394165	
-0.393921	
-0.394226	
-0.39386	
-0.394043	
-0.393921	
-0.393066	
-0.393921	
-0.39386	
-0.393433	
-0.393616	
-0.393677	
-0.393494	
-0.394104	
-0.394043	
-0.393555	
-0.39325	
-0.393188	
-0.394226	
-0.394104	
-0.392944	
-0.392761	
-0.392456	
-0.393005	
-0.39325	
-0.392517	
-0.392334	
-0.390991	
-0.392944	
-0.392395	
-0.392151	
-0.391846	
-0.392334	
-0.391296	
-0.391479	
-0.390808	
-0.391113	
-0.390747	
-0.390137	
-0.391907	
-0.391724	
-0.390747	
-0.390869	
-0.389954	
-0.390869	
-0.391541	
-0.389587	
-0.390381	
-0.390442	
-0.391052	
-0.391541	
-0.391052	
-0.391724	
-0.391602	
-0.392578	
-0.393677	
-0.39563	
-0.394348	
-0.395081	
-0.395508	
-0.396301	
-0.397583	
-0.396912	
-0.396912	
-0.39679	
-0.397522	
-0.397644	
-0.398926	
-0.397095	
-0.397766	
-0.396851	
-0.397095	
-0.398132	
-0.397461	
-0.39679	
-0.395752	
-0.396362	
-0.395996	
-0.397522	
-0.394226	
-0.394897	
-0.39447	
-0.394836	
-0.39502	
-0.393799	
-0.393433	
-0.392822	
-0.392456	
-0.392212	
-0.392578	
-0.390442	
-0.390442	
-0.389893	
-0.390137	
-0.390869	
-0.389404	
-0.389282	
-0.388489	
-0.387756	
-0.388428	
-0.389343	
-0.387695	
-0.388123	
-0.387817	
-0.387939	
-0.388916	
-0.388489	
-0.388428	
-0.388611	
-0.388611	
-0.389587	
-0.391174	
-0.390198	
-0.390747	
-0.390869	
-0.391541	
-0.393005	
-0.392151	
-0.392395	
-0.392273	
-0.392273	
-0.3927	
-0.39386	
-0.392212	
-0.393372	
-0.39325	
-0.393921	
-0.394226	
-0.393799	
-0.393616	
-0.393982	
-0.393738	
-0.393982	
-0.395752	
-0.392761	
-0.394043	
-0.393127	
-0.393982	
-0.395142	
-0.393799	
-0.394409	
-0.394226	
-0.394165	
-0.39447	
-0.395752	
-0.394592	
-0.394226	
-0.391785	
-0.39447	
-0.395569	
-0.394287	
-0.394043	
-0.393616	
-0.394226	
-0.394653	
-0.393433	
-0.393494	
-0.393433	
-0.392822	
-0.393311	
-0.393799	
-0.392761	
-0.392639	
-0.3927	
-0.392944	
-0.393616	
-0.392395	
-0.393311	
-0.392883	
-0.393616	
-0.394409	
-0.39447	
-0.394104	
-0.393921	
-0.393616	
-0.39447	
-0.395691	
-0.393433	
-0.394409	
-0.394104	
-0.394714	
-0.395691	
-0.395203	
-0.394653	
-0.39447	
-0.393982	
-0.39502	
-0.396301	
-0.393555	
-0.394836	
-0.393982	
-0.394836	
-0.395874	
-0.395142	
-0.395142	
-0.394836	
-0.395264	
-0.396301	
-0.39801	
-0.395142	
-0.39563	
-0.395508	
-0.395874	
-0.396729	
-0.39624	
-0.395996	
-0.396423	
-0.396423	
-0.396851	
-0.398132	
-0.396423	
-0.396973	
-0.396606	
-0.396484	
-0.397705	
-0.397034	
-0.396667	
-0.396057	
-0.396179	
-0.396484	
-0.397705	
-0.39679	
-0.39679	
-0.396729	
-0.396851	
-0.398132	
-0.397278	
-0.39679	
-0.395813	
-0.395874	
-0.396362	
-0.39679	
-0.395081	
-0.395203	
-0.394592	
-0.394592	
-0.394836	
-0.394531	
-0.393799	
-0.392395	
-0.392456	
-0.3927	
-0.39209	
-0.391174	
-0.39093	
-0.389832	
-0.388672	
-0.390198	
-0.390503	
-0.389771	
-0.388855	
-0.389526	
-0.390503	
-0.390686	
-0.390625	
-0.391052	
-0.39032	
-0.390198	
-0.391663	
-0.391785	
-0.391663	
-0.390869	
-0.391541	
-0.392761	
-0.393433	
-0.392639	
-0.393127	
-0.393921	
-0.393188	
-0.395447	
-0.395569	
-0.39502	
-0.394104	
-0.394653	
-0.395508	
-0.396606	
-0.395874	
-0.395447	
-0.395691	
-0.395386	
-0.396057	
-0.396729	
-0.395691	
-0.394287	
-0.395081	
-0.396118	
-0.396606	
-0.396179	
-0.395203	
-0.395203	
-0.394958	
-0.39502	
-0.395447	
-0.39502	
-0.394592	
-0.394104	
-0.394653	
-0.395203	
-0.395386	
-0.394226	
-0.393921	
-0.394592	
-0.394104	
-0.394409	
-0.393616	
-0.393127	
-0.392639	
-0.393188	
-0.393799	
-0.393311	
-0.392822	
-0.392334	
-0.391907	
-0.391907	
-0.39209	
-0.390991	
-0.391052	
-0.390747	
-0.391235	
-0.391174	
-0.391724	
-0.390686	
-0.390503	
-0.390381	
-0.39093	
-0.391479	
-0.390808	
-0.390808	
-0.390747	
-0.391296	
-0.391418	
-0.391846	
-0.390991	
-0.391479	
-0.39093	
-0.391052	
-0.39209	
-0.391602	
-0.391479	
-0.391663	
-0.39209	
-0.392639	
-0.392578	
-0.391968	
-0.39209	
-0.392273	
-0.392517	
-0.393311	
-0.392517	
-0.391785	
-0.392517	
-0.3927	
-0.392822	
-0.393311	
-0.391541	
-0.392761	
-0.392334	
-0.393005	
-0.393372	
-0.392761	
-0.39209	
-0.393127	
-0.39325	
-0.393555	
-0.393677	
-0.393066	
-0.393555	
-0.392761	
-0.39325	
-0.39447	
-0.394104	
-0.392761	
-0.394226	
-0.39447	
-0.394165	
-0.394165	
-0.393372	
-0.394226	
-0.393127	
-0.393677	
-0.394836	
-0.394348	
-0.393188	
-0.394226	
-0.394592	
-0.394104	
-0.394348	
-0.392883	
-0.392578	
-0.391541	
-0.391174	
-0.391357	
-0.390503	
-0.389343	
-0.390198	
-0.390442	
-0.389587	
-0.389954	
-0.388916	
-0.389465	
-0.388794	
-0.389404	
-0.389954	
-0.389648	
-0.389099	
-0.389832	
-0.390503	
-0.390686	
-0.391541	
-0.390747	
-0.391235	
-0.391663	
-0.391907	
-0.392273	
-0.392578	
-0.392517	
-0.392944	
-0.392578	
-0.39386	
-0.394897	
-0.394348	
-0.394897	
-0.394714	
-0.396912	
-0.39679	
-0.397339	
-0.3974	
-0.397827	
-0.396912	
-0.398376	
-0.398743	
-0.398193	
-0.398193	
-0.39801	
-0.398926	
-0.39856	
-0.399719	
-0.398254	
-0.399048	
-0.398926	
-0.39917	
-0.399597	
-0.398376	
-0.398132	
-0.397522	
-0.397888	
-0.397461	
-0.397644	
-0.396423	
-0.396667	
-0.39624	
-0.396301	
-0.396423	
-0.395569	
-0.394775	
-0.394836	
-0.394287	
-0.394592	
-0.394958	
-0.393433	
-0.393921	
-0.394348	
-0.39386	
-0.394653	
-0.394043	
-0.39386	
-0.393799	
-0.393921	
-0.393677	
-0.394592	
-0.393738	
-0.392944	
-0.394226	
-0.393555	
-0.394775	
-0.393982	
-0.39386	
-0.393616	
-0.393921	
-0.393494	
-0.394531	
-0.39386	
-0.39325	
-0.394714	
-0.394775	
-0.39563	
-0.395081	
-0.39502	
-0.394592	
-0.39502	
-0.395203	
-0.395874	
-0.395081	
-0.394836	
-0.396362	
-0.395996	
-0.39624	
-0.39624	
-0.395996	
-0.395752	
-0.395752	
-0.395386	
-0.396118	
-0.394714	
-0.394836	
-0.396301	
-0.394775	
-0.395081	
-0.39502	
-0.394775	
-0.394226	
-0.394165	
-0.394592	
-0.394836	
-0.394165	
-0.392883	
-0.394287	
-0.394287	
-0.394836	
-0.394714	
-0.394043	
-0.393921	
-0.394104	
-0.394531	
-0.394592	
-0.393738	
-0.392883	
-0.394165	
-0.393738	
-0.394043	
-0.393494	
-0.393372	
-0.393066	
-0.392822	
-0.392944	
-0.393127	
-0.393127	
-0.392151	
-0.392944	
-0.391968	
-0.392456	
-0.392212	
-0.391724	
-0.391418	
-0.390747	
-0.390747	
-0.391235	
-0.391541	
-0.391296	
-0.391663	
-0.391296	
-0.392212	
-0.391968	
-0.392029	
-0.391296	
-0.390259	
-0.391418	
-0.391357	
-0.391296	
-0.391113	
-0.391541	
-0.390503	
-0.391602	
-0.392212	
-0.391663	
-0.392029	
-0.391663	
-0.3927	
-0.393494	
-0.393311	
-0.393494	
-0.394287	
-0.393188	
-0.395142	
-0.396606	
-0.395752	
-0.396362	
-0.396484	
-0.397827	
-0.3974	
-0.39856	
-0.398132	
-0.397827	
-0.397583	
-0.397827	
-0.398743	
-0.397217	
-0.3974	
-0.396545	
-0.397644	
-0.396729	
-0.3974	
-0.396362	
-0.396118	
-0.396545	
-0.395447	
-0.396179	
-0.395325	
-0.39502	
-0.394165	
-0.395264	
-0.394165	
-0.394287	
-0.393127	
-0.393127	
-0.393372	
-0.392761	
-0.393127	
-0.392639	
-0.391846	
-0.392273	
-0.392029	
-0.391541	
-0.392578	
-0.391846	
-0.391907	
-0.391785	
-0.391479	
-0.392456	
-0.392029	
-0.391602	
-0.391174	
-0.391724	
-0.391602	
-0.392273	
-0.391602	
-0.392273	
-0.392517	
-0.391907	
-0.392395	
-0.393127	
-0.392395	
-0.392273	
-0.392212	
-0.392883	
-0.39325	
-0.392273	
-0.392578	
-0.39325	
-0.39325	
-0.39386	
-0.394104	
-0.393188	
-0.393799	
-0.39386	
-0.394104	
-0.395325	
-0.394226	
-0.394104	
-0.394775	
-0.394531	
-0.394958	
-0.395996	
-0.394592	
-0.394897	
-0.394592	
-0.394958	
-0.395447	
-0.395386	
-0.393982	
-0.394897	
-0.395325	
-0.395569	
-0.395752	
-0.393738	
-0.394287	
-0.394287	
-0.39447	
-0.395203	
-0.394226	
-0.392883	
-0.39386	
-0.394409	
-0.394775	
-0.394531	
-0.392395	
-0.393616	
-0.39325	
-0.393738	
-0.393555	
-0.39325	
-0.392517	
-0.393433	
-0.394226	
-0.393982	
-0.394409	
-0.392761	
-0.392883	
-0.392883	
-0.393921	
-0.393616	
-0.392822	
-0.392517	
-0.393127	
-0.394104	
-0.393372	
-0.393738	
-0.392456	
-0.392578	
-0.392212	
-0.393555	
-0.392334	
-0.392334	
-0.392029	
-0.391968	
-0.392761	
-0.39209	
-0.392578	
-0.391235	
-0.391479	
-0.391418	
-0.392395	
-0.39209	
-0.391418	
-0.390991	
-0.391174	
-0.392151	
-0.391479	
-0.392395	
-0.391846	
-0.391968	
-0.392212	
-0.393677	
-0.394287	
-0.394287	
-0.394531	
-0.394897	
-0.396057	
-0.395935	
-0.396545	
-0.395691	
-0.395691	
-0.394775	
-0.396301	
-0.395874	
-0.395569	
-0.395081	
-0.394714	
-0.39502	
-0.39502	
-0.395325	
-0.393738	
-0.393555	
-0.391907	
-0.393494	
-0.392883	
-0.392456	
-0.391846	
-0.391602	
-0.391907	
-0.391418	
-0.392212	
-0.390015	
-0.390198	
-0.388489	
-0.389221	
-0.389282	
-0.387756	
-0.387451	
-0.386169	
-0.387146	
-0.38678	
-0.38855	
-0.38623	
-0.384521	
-0.385132	
-0.386108	
-0.386353	
-0.385193	
-0.38501	
-0.383545	
-0.385559	
-0.385925	
-0.386475	
-0.385071	
-0.38446	
-0.385681	
-0.386841	
-0.388245	
-0.387756	
-0.38739	
-0.38678	
-0.388367	
-0.389404	
-0.389465	
-0.38916	
-0.388062	
-0.388428	
-0.389038	
-0.390564	
-0.389648	
-0.389832	
-0.38916	
-0.390076	
-0.390564	
-0.390808	
-0.39032	
-0.389282	
-0.389954	
-0.390381	
-0.391846	
-0.390259	
-0.390015	
-0.389099	
-0.390137	
-0.390686	
-0.390686	
-0.390259	
-0.389282	
-0.390015	
-0.389465	
-0.391724	
-0.390198	
-0.389832	
-0.388855	
-0.389954	
-0.390808	
-0.389893	
-0.389893	
-0.38916	
-0.389038	
-0.388733	
-0.390381	
-0.388855	
-0.388794	
-0.387756	
-0.388489	
-0.389099	
-0.388245	
-0.388489	
-0.387573	
-0.387695	
-0.387573	
-0.389771	
-0.38855	
-0.388306	
-0.387207	
-0.388672	
-0.389771	
-0.389648	
-0.389832	
-0.388245	
-0.388611	
-0.389282	
-0.390625	
-0.389221	
-0.38916	
-0.388367	
-0.389221	
-0.390015	
-0.389832	
-0.389893	
-0.389465	
-0.389526	
-0.388733	
-0.390869	
-0.389709	
-0.389282	
-0.388	
-0.389465	
-0.390015	
-0.390015	
-0.391296	
-0.390564	
-0.389954	
-0.390259	
-0.391846	
-0.390564	
-0.390503	
-0.389832	
-0.390564	
-0.390686	
-0.391541	
-0.391968	
-0.391052	
-0.39093	
-0.390808	
-0.393311	
-0.391968	
-0.391785	
-0.391174	
-0.391541	
-0.391724	
-0.392334	
-0.392578	
-0.391602	
-0.390686	
-0.391479	
-0.392883	
-0.392029	
-0.392151	
-0.391541	
-0.39209	
-0.392212	
-0.392883	
-0.392822	
-0.391907	
-0.390991	
-0.390442	
-0.391663	
-0.390686	
-0.390198	
-0.389465	
-0.389587	
-0.389648	
-0.389954	
-0.389709	
-0.387939	
-0.387268	
-0.386658	
-0.387024	
-0.386414	
-0.385498	
-0.384766	
-0.385315	
-0.385193	
-0.386108	
-0.386536	
-0.385315	
-0.385681	
-0.385681	
-0.386902	
-0.38623	
-0.386169	
-0.386108	
-0.386658	
-0.387207	
-0.388245	
-0.388184	
-0.387817	
-0.388123	
-0.388306	
-0.389038	
-0.389221	
-0.389832	
-0.389465	
-0.390442	
-0.390625	
-0.391479	
-0.391724	
-0.391174	
-0.391113	
-0.391113	
-0.391785	
-0.391357	
-0.391724	
-0.390869	
-0.391602	
-0.391663	
-0.39209	
-0.39209	
-0.392334	
-0.391785	
-0.391663	
-0.391479	
-0.391296	
-0.391846	
-0.390747	
-0.391296	
-0.391479	
-0.39209	
-0.391724	
-0.39209	
-0.39093	
-0.39093	
-0.391235	
-0.391296	
-0.390686	
-0.39032	
-0.390625	
-0.390808	
-0.39093	
-0.391052	
-0.391663	
-0.390503	
-0.389954	
-0.389221	
-0.389954	
-0.389404	
-0.388672	
-0.388367	
-0.388916	
-0.389038	
-0.389221	
-0.390381	
-0.388733	
-0.38855	
-0.388123	
-0.388855	
-0.38855	
-0.387512	
-0.387878	
-0.38855	
-0.389221	
-0.389038	
-0.390625	
-0.38916	
-0.388428	
-0.389465	
-0.38916	
-0.389099	
-0.388184	
-0.387512	
-0.389526	
-0.390015	
-0.389954	
-0.391357	
-0.389893	
-0.388977	
-0.390076	
-0.389832	
-0.389954	
-0.388916	
-0.388977	
-0.39032	
-0.390198	
-0.390747	
-0.391174	
-0.39032	
-0.389282	
-0.390747	
-0.390564	
-0.390442	
-0.389465	
-0.389465	
-0.390442	
-0.390503	
-0.391235	
-0.391785	
-0.390686	
-0.390259	
-0.391541	
-0.390991	
-0.391418	
-0.390564	
-0.390259	
-0.391785	
-0.392029	
-0.392639	
-0.392456	
-0.392212	
-0.391541	
-0.392456	
-0.390747	
-0.392456	
-0.391541	
-0.391479	
-0.392212	
-0.392273	
-0.393066	
-0.392273	
-0.392456	
-0.391724	
-0.392395	
-0.390198	
-0.390686	
-0.390015	
-0.38855	
-0.389038	
-0.388794	
-0.388855	
-0.388123	
-0.388977	
-0.387329	
-0.388733	
-0.386719	
-0.387573	
-0.387268	
-0.386658	
-0.388367	
-0.388367	
-0.388733	
-0.388916	
-0.390076	
-0.388977	
-0.390198	
-0.389221	
-0.389832	
-0.390564	
-0.389893	
-0.390991	
-0.391174	
-0.391846	
-0.392395	
-0.393188	
-0.392944	
-0.393433	
-0.393188	
-0.394226	
-0.394592	
-0.394653	
-0.39563	
-0.396545	
-0.397034	
-0.397095	
-0.398315	
-0.397644	
-0.396545	
-0.397705	
-0.397766	
-0.397705	
-0.396973	
-0.398132	
-0.398315	
-0.398499	
-0.39917	
-0.399536	
-0.398193	
-0.397705	
-0.398499	
-0.397034	
-0.397278	
-0.396667	
-0.396667	
-0.396667	
-0.395996	
-0.396973	
-0.397034	
-0.396301	
-0.395325	
-0.395691	
-0.393555	
-0.394653	
-0.393433	
-0.394104	
-0.394226	
-0.39386	
-0.394104	
-0.394836	
-0.394287	
-0.393738	
-0.394104	
-0.393127	
-0.393555	
-0.392273	
-0.393738	
-0.393555	
-0.393738	
-0.394226	
-0.394897	
-0.394287	
-0.393799	
-0.394653	
-0.393494	
-0.394043	
-0.3927	
-0.39386	
-0.393921	
-0.39447	
-0.394775	
-0.395203	
-0.395752	
-0.395142	
-0.395081	
-0.394897	
-0.395386	
-0.394104	
-0.394348	
-0.395142	
-0.39624	
-0.396057	
-0.396423	
-0.39679	
-0.396362	
-0.395996	
-0.396484	
-0.396057	
-0.395081	
-0.395142	
-0.396301	
-0.395752	
-0.395813	
-0.396606	
-0.396484	
-0.395386	
-0.395142	
-0.395752	
-0.395142	
-0.394104	
-0.394226	
-0.39502	
-0.394592	
-0.394775	
-0.395569	
-0.39563	
-0.395447	
-0.395203	
-0.394409	
-0.394836	
-0.394714	
-0.394836	
-0.394653	
-0.394592	
-0.394714	
-0.395508	
-0.394653	
-0.394592	
-0.394287	
-0.393616	
-0.393677	
-0.393372	
-0.393738	
-0.393555	
-0.39325	
-0.393677	
-0.394104	
-0.393494	
-0.392639	
-0.392883	
-0.391235	
-0.392151	
-0.392029	
-0.391846	
-0.39209	
-0.392334	
-0.392883	
-0.393311	
-0.393372	
-0.3927	
-0.392883	
-0.391785	
-0.392029	
-0.392151	
-0.391968	
-0.391663	
-0.391724	
-0.391907	
-0.392944	
-0.393127	
-0.392578	
-0.392212	
-0.392883	
-0.391541	
-0.392944	
-0.39325	
-0.393799	
-0.394104	
-0.394897	
-0.39563	
-0.396301	
-0.396423	
-0.396484	
-0.397034	
-0.396729	
-0.397583	
-0.398193	
-0.39856	
-0.398682	
-0.398743	
-0.398865	
-0.399292	
-0.399353	
-0.398438	
-0.397583	
-0.397522	
-0.397644	
-0.396484	
-0.396301	
-0.39679	
-0.396973	
-0.396667	
-0.396606	
-0.39679	
-0.395935	
-0.395508	
-0.394958	
-0.394836	
-0.393982	
-0.393494	
-0.393982	
-0.39386	
-0.393616	
-0.393616	
-0.39386	
-0.392883	
-0.391479	
-0.392273	
-0.392273	
-0.390808	
-0.391174	
-0.392029	
-0.392273	
-0.392273	
-0.392761	
-0.392822	
-0.391968	
-0.391785	
-0.391968	
-0.391785	
-0.390747	
-0.391113	
-0.391968	
-0.392395	
-0.3927	
-0.39325	
-0.392883	
-0.392578	
-0.392944	
-0.392517	
-0.392883	
-0.392151	
-0.392395	
-0.392883	
-0.392944	
-0.393311	
-0.394409	
-0.394409	
-0.393921	
-0.394287	
-0.393677	
-0.394104	
-0.394104	
-0.394348	
-0.394409	
-0.394287	
-0.394592	
-0.395142	
-0.395691	
-0.39502	
-0.396057	
-0.394592	
-0.39502	
-0.394592	
-0.39502	
-0.394775	
-0.394775	
-0.394897	
-0.39563	
-0.39624	
-0.395325	
-0.395752	
-0.39386	
-0.394531	
-0.394287	
-0.394653	
-0.394714	
-0.394653	
-0.394104	
-0.394409	
-0.395203	
-0.394226	
-0.394287	
-0.392822	
-0.393127	
-0.393555	
-0.393494	
-0.393494	
-0.393372	
-0.393494	
-0.393433	
-0.394531	
-0.39325	
-0.393677	
-0.392334	
-0.392212	
-0.393127	
-0.3927	
-0.393188	
-0.392822	
-0.392761	
-0.393005	
-0.394592	
-0.393555	
-0.392639	
-0.391785	
-0.391418	
-0.391968	
-0.391785	
-0.391724	
-0.391663	
-0.391357	
-0.391846	
-0.393372	
-0.391479	
-0.391846	
-0.391235	
-0.390625	
-0.391479	
-0.391296	
-0.391235	
-0.391052	
-0.391296	
-0.391235	
-0.392517	
-0.391785	
-0.391602	
-0.391541	
-0.391174	
-0.392517	
-0.39325	
-0.393555	
-0.39447	
-0.394775	
-0.395081	
-0.396606	
-0.396179	
-0.396057	
-0.395447	
-0.394531	
-0.395752	
-0.394958	
-0.394409	
-0.395203	
-0.395142	
-0.394714	
-0.395386	
-0.395508	
-0.393982	
-0.393555	
-0.3927	
-0.392883	
-0.392334	
-0.391663	
-0.392395	
-0.391724	
-0.391418	
	
