E:\DOCUMENTS AND SETTINGS\JPOTAS\MEUS DOCUMENTOS\UFRJ\RSCI-BM 12 WK SERIES\070719-RSCI-BM-02\RSCI-BM-02-LEMG\070719-RSCI-BM-02-LEMG-0019.ACQ
0.025000 msec/sample
1 channel
Analog input
Volts
CH1	
2000	
-0.395081	
-0.394836	
-0.394836	
-0.394714	
-0.394653	
-0.395508	
-0.395508	
-0.396729	
-0.396423	
-0.396729	
-0.396912	
-0.396362	
-0.396362	
-0.396545	
-0.396606	
-0.397034	
-0.396729	
-0.396606	
-0.397644	
-0.396851	
-0.396851	
-0.397583	
-0.397278	
-0.396851	
-0.397156	
-0.397217	
-0.397583	
-0.396729	
-0.396973	
-0.397522	
-0.396729	
-0.39679	
-0.397156	
-0.396423	
-0.396301	
-0.396423	
-0.395935	
-0.395691	
-0.395264	
-0.39447	
-0.395569	
-0.394653	
-0.394714	
-0.394897	
-0.395325	
-0.394592	
-0.394348	
-0.394165	
-0.394531	
-0.394043	
-0.394714	
-0.395569	
-0.394653	
-0.394653	
-0.394714	
-0.395203	
-0.394592	
-0.394531	
-0.394226	
-0.394043	
-0.393433	
-0.394165	
-0.395081	
-0.393982	
-0.394531	
-0.393799	
-0.394287	
-0.393799	
-0.394104	
-0.392639	
-0.393494	
-0.393127	
-0.394958	
-0.395813	
-0.395203	
-0.395691	
-0.395691	
-0.39624	
-0.395813	
-0.396667	
-0.395203	
-0.395813	
-0.39447	
-0.396118	
-0.39679	
-0.396118	
-0.396362	
-0.396118	
-0.396362	
-0.396301	
-0.396851	
-0.395874	
-0.396423	
-0.395691	
-0.396973	
-0.397583	
-0.396912	
-0.396729	
-0.396118	
-0.395752	
-0.395752	
-0.396057	
-0.395569	
-0.394653	
-0.393677	
-0.394348	
-0.395203	
-0.394348	
-0.394897	
-0.393616	
-0.39386	
-0.394165	
-0.393555	
-0.392761	
-0.392395	
-0.391907	
-0.391968	
-0.392334	
-0.391174	
-0.391663	
-0.39032	
-0.390198	
-0.389893	
-0.389893	
-0.389038	
-0.388489	
-0.387878	
-0.388245	
-0.388489	
-0.387451	
-0.388123	
-0.387146	
-0.387573	
-0.387695	
-0.388367	
-0.388428	
-0.388367	
-0.388611	
-0.389709	
-0.390015	
-0.390198	
-0.39093	
-0.389709	
-0.39093	
-0.391235	
-0.390564	
-0.390808	
-0.390869	
-0.391541	
-0.391907	
-0.392212	
-0.39209	
-0.393066	
-0.391174	
-0.391907	
-0.392761	
-0.3927	
-0.392456	
-0.39209	
-0.392334	
-0.392822	
-0.392639	
-0.392456	
-0.393066	
-0.391663	
-0.392456	
-0.393066	
-0.39325	
-0.392395	
-0.391846	
-0.392334	
-0.392334	
-0.392578	
-0.392822	
-0.39325	
-0.392212	
-0.3927	
-0.393066	
-0.393372	
-0.392517	
-0.391479	
-0.391968	
-0.393066	
-0.393188	
-0.393188	
-0.393799	
-0.393005	
-0.393066	
-0.392639	
-0.393005	
-0.392395	
-0.392578	
-0.391541	
-0.392883	
-0.392334	
-0.392578	
-0.39325	
-0.383606	
-0.381653	
-0.38092	
-0.38208	
-0.382019	
-0.381775	
-0.391235	
-0.394043	
-0.393677	
-0.393372	
-0.394287	
-0.39325	
-0.394104	
-0.392151	
-0.393738	
-0.393188	
-0.393066	
-0.393188	
-0.393921	
-0.394165	
-0.394165	
-0.394958	
-0.394531	
-0.395386	
-0.393372	
-0.394775	
-0.394531	
-0.39502	
-0.395508	
-0.39563	
-0.39563	
-0.395752	
-0.396484	
-0.396301	
-0.396667	
-0.394958	
-0.395691	
-0.394836	
-0.395874	
-0.39563	
-0.396057	
-0.395142	
-0.394714	
-0.394592	
-0.393677	
-0.393311	
-0.392212	
-0.391602	
-0.390503	
-0.390076	
-0.389404	
-0.389343	
-0.387573	
-0.386902	
-0.386475	
-0.385376	
-0.385132	
-0.385193	
-0.385376	
-0.384766	
-0.387329	
-0.389221	
-0.391785	
-0.393616	
-0.397766	
-0.400269	
-0.404175	
-0.408447	
-0.412537	
-0.417542	
-0.423401	
-0.427917	
-0.43457	
-0.440857	
-0.447388	
-0.454041	
-0.45929	
-0.465088	
-0.469727	
-0.473694	
-0.476807	
-0.480713	
-0.483887	
-0.486145	
-0.486633	
-0.487366	
-0.487183	
-0.486145	
-0.485535	
-0.485229	
-0.485596	
-0.485657	
-0.486328	
-0.488525	
-0.490845	
-0.492493	
-0.49585	
-0.497437	
-0.501953	
-0.504517	
-0.507996	
-0.512024	
-0.515259	
-0.517456	
-0.521362	
-0.523987	
-0.526001	
-0.528015	
-0.528015	
-0.528625	
-0.526611	
-0.524963	
-0.52124	
-0.518921	
-0.515015	
-0.510925	
-0.506409	
-0.501648	
-0.497437	
-0.492249	
-0.487305	
-0.482483	
-0.477539	
-0.47229	
-0.468811	
-0.465393	
-0.46228	
-0.458862	
-0.457214	
-0.454834	
-0.452148	
-0.449219	
-0.446838	
-0.443542	
-0.440491	
-0.436768	
-0.433594	
-0.429688	
-0.423523	
-0.41925	
-0.413147	
-0.406433	
-0.399597	
-0.392822	
-0.385925	
-0.378601	
-0.370972	
-0.362427	
-0.355408	
-0.346008	
-0.33844	
-0.328613	
-0.319397	
-0.310425	
-0.302246	
-0.294373	
-0.28595	
-0.280029	
-0.274414	
-0.269531	
-0.264648	
-0.263062	
-0.260315	
-0.259705	
-0.258606	
-0.260132	
-0.261597	
-0.264465	
-0.266541	
-0.271057	
-0.274719	
-0.27948	
-0.284485	
-0.287415	
-0.29303	
-0.297729	
-0.301941	
-0.305725	
-0.310547	
-0.314941	
-0.320007	
-0.322571	
-0.327087	
-0.330139	
-0.333801	
-0.337036	
-0.340027	
-0.342224	
-0.345032	
-0.347778	
-0.349976	
-0.351685	
-0.353271	
-0.354858	
-0.355896	
-0.357239	
-0.35907	
-0.360046	
-0.361755	
-0.362427	
-0.36499	
-0.367859	
-0.369324	
-0.37085	
-0.372009	
-0.374268	
-0.375854	
-0.376831	
-0.377686	
-0.379944	
-0.381714	
-0.383301	
-0.384766	
-0.386292	
-0.387573	
-0.389343	
-0.391357	
-0.392822	
-0.39386	
-0.39502	
-0.39563	
-0.396301	
-0.397827	
-0.397705	
-0.397278	
-0.396729	
-0.396729	
-0.396667	
-0.396301	
-0.395142	
-0.395447	
-0.395508	
-0.395264	
-0.395752	
-0.39624	
-0.395874	
-0.394287	
-0.394775	
-0.395752	
-0.395569	
-0.394775	
-0.395264	
-0.395874	
-0.39624	
-0.397095	
-0.396118	
-0.396362	
-0.396851	
-0.397888	
-0.397522	
-0.397156	
-0.396973	
-0.398193	
-0.398621	
-0.399475	
-0.400024	
-0.398743	
-0.398499	
-0.398987	
-0.399414	
-0.39917	
-0.399292	
-0.399353	
-0.400269	
-0.40033	
-0.401367	
-0.40033	
-0.399719	
-0.398865	
-0.398376	
-0.398193	
-0.397583	
-0.39624	
-0.39624	
-0.395447	
-0.395081	
-0.395081	
-0.393555	
-0.393066	
-0.393066	
-0.392944	
-0.392578	
-0.391663	
-0.391846	
-0.392273	
-0.392151	
-0.393921	
-0.392395	
-0.392151	
-0.390564	
-0.393005	
-0.392334	
-0.391846	
-0.391235	
-0.392212	
-0.392212	
-0.393616	
-0.393066	
-0.39209	
-0.39209	
-0.391846	
-0.392029	
-0.39209	
-0.391113	
-0.391907	
-0.392212	
-0.392822	
-0.392517	
-0.392029	
-0.391418	
-0.39209	
-0.391907	
-0.391785	
-0.391052	
-0.390686	
-0.391663	
-0.39209	
-0.392456	
-0.390991	
-0.391541	
-0.39032	
-0.391785	
-0.391663	
-0.391541	
-0.390991	
-0.391541	
-0.391724	
-0.392273	
-0.392639	
-0.39209	
-0.391724	
-0.392578	
-0.393188	
-0.392578	
-0.392212	
-0.391968	
-0.392334	
-0.392395	
-0.394348	
-0.392273	
-0.391968	
-0.390991	
-0.392029	
-0.391724	
-0.391174	
-0.390991	
-0.390442	
-0.390747	
-0.390869	
-0.392883	
-0.390991	
-0.390747	
-0.38916	
-0.391235	
-0.390137	
-0.389893	
-0.389282	
-0.388855	
-0.389343	
-0.389709	
-0.390564	
-0.388916	
-0.38855	
-0.386658	
-0.389099	
-0.388611	
-0.388672	
-0.387268	
-0.38855	
-0.389038	
-0.389099	
-0.389587	
-0.388916	
-0.388672	
-0.388123	
-0.389954	
-0.389404	
-0.389404	
-0.389404	
-0.389648	
-0.389832	
-0.390198	
-0.390198	
-0.389282	
-0.388977	
-0.389709	
-0.389648	
-0.388977	
-0.38916	
-0.389038	
-0.389221	
-0.38916	
-0.39093	
-0.389954	
-0.389221	
-0.388855	
-0.389099	
-0.389893	
-0.389404	
-0.389526	
-0.389526	
-0.390076	
-0.390808	
-0.391235	
-0.390747	
-0.390808	
-0.390198	
-0.392822	
-0.393127	
-0.392761	
-0.392395	
-0.3927	
-0.394043	
-0.395142	
-0.39502	
-0.394592	
-0.39447	
-0.394775	
-0.395142	
-0.395081	
-0.394958	
-0.394592	
-0.39447	
-0.394714	
-0.395203	
-0.393311	
-0.392822	
-0.39093	
-0.392578	
-0.393494	
-0.392761	
-0.39209	
-0.3927	
-0.392822	
-0.393311	
-0.393005	
-0.392456	
-0.391724	
-0.391907	
-0.391907	
-0.391541	
-0.390747	
-0.389526	
-0.389343	
-0.390259	
-0.391418	
-0.39032	
-0.389221	
-0.388489	
-0.389587	
-0.389648	
-0.388794	
-0.388367	
-0.388367	
-0.388733	
-0.388855	
-0.389282	
-0.388733	
-0.388184	
-0.38739	
-0.388611	
-0.389587	
-0.388428	
-0.387329	
-0.388672	
-0.388977	
-0.389465	
-0.389343	
-0.38916	
-0.388916	
-0.388977	
-0.389526	
-0.389954	
-0.389587	
-0.389526	
-0.388672	
-0.390137	
-0.390991	
-0.391235	
-0.390442	
-0.390808	
-0.390808	
-0.391174	
-0.390808	
-0.390381	
-0.39093	
-0.390808	
-0.391418	
-0.392456	
-0.391846	
-0.391357	
-0.390808	
-0.39093	
-0.391541	
-0.391174	
-0.390686	
-0.391296	
-0.391235	
-0.391663	
-0.393433	
-0.391479	
-0.390686	
-0.389893	
-0.390503	
-0.390564	
-0.390259	
-0.389832	
-0.389954	
-0.38916	
-0.389404	
-0.390442	
-0.388916	
-0.389221	
-0.387512	
-0.389587	
-0.388794	
-0.388794	
-0.388123	
-0.388428	
-0.389038	
-0.389099	
-0.390137	
-0.389404	
-0.388855	
-0.387512	
-0.389771	
-0.389404	
-0.388733	
-0.387939	
-0.388489	
-0.388733	
-0.389099	
-0.389648	
-0.388489	
-0.387756	
-0.387451	
-0.38855	
-0.388733	
-0.388	
-0.386719	
-0.387939	
-0.388611	
-0.390076	
-0.389893	
-0.389282	
-0.389099	
-0.389282	
-0.390198	
-0.390503	
-0.389709	
-0.389343	
-0.388489	
-0.389771	
-0.390442	
-0.389771	
-0.390015	
-0.388916	
-0.390015	
-0.390076	
-0.390259	
-0.39032	
-0.390686	
-0.390381	
-0.391296	
-0.391907	
-0.390503	
-0.390381	
-0.389343	
-0.390747	
-0.390076	
-0.389709	
-0.388794	
-0.388916	
-0.388977	
-0.389832	
-0.389099	
-0.388367	
-0.387634	
-0.387329	
-0.388855	
-0.388123	
-0.387329	
-0.386414	
-0.387085	
-0.386963	
-0.386719	
-0.386658	
-0.385315	
-0.384521	
-0.384583	
-0.385376	
-0.384521	
-0.384033	
-0.382629	
-0.38208	
-0.383423	
-0.383118	
-0.38269	
-0.381592	
-0.38147	
-0.381287	
-0.382385	
-0.381958	
-0.381836	
-0.381104	
-0.381775	
-0.383667	
-0.384277	
-0.384155	
-0.383484	
-0.383667	
-0.384216	
-0.384888	
-0.385315	
-0.385071	
-0.384888	
-0.385559	
-0.386536	
-0.386475	
-0.386536	
-0.385376	
-0.385071	
-0.385864	
-0.386902	
-0.386475	
-0.38623	
-0.386475	
-0.386719	
-0.386414	
-0.386597	
-0.387451	
-0.386353	
-0.386658	
-0.386292	
-0.387329	
-0.387146	
-0.386414	
-0.386292	
-0.387268	
-0.387024	
-0.387085	
-0.386963	
-0.386841	
-0.386902	
-0.387878	
-0.388123	
-0.386841	
-0.386047	
-0.386902	
-0.387756	
-0.387451	
-0.387451	
-0.386658	
-0.387146	
-0.387329	
-0.387939	
-0.387878	
-0.387817	
-0.386841	
-0.38678	
-0.387634	
-0.387878	
-0.387939	
-0.386597	
-0.38739	
-0.387146	
-0.387695	
-0.387512	
-0.387024	
-0.386902	
-0.387207	
-0.387085	
-0.388123	
-0.388245	
-0.388	
-0.387695	
-0.387939	
-0.388245	
-0.387817	
-0.388123	
-0.387939	
-0.389343	
-0.388428	
-0.38916	
-0.388977	
-0.38855	
-0.38855	
-0.389221	
-0.390076	
-0.389465	
-0.389343	
-0.389709	
-0.390808	
-0.390137	
-0.391418	
-0.390686	
-0.390564	
-0.39032	
-0.390625	
-0.391846	
-0.390686	
-0.389587	
-0.390442	
-0.391174	
-0.390869	
-0.391785	
-0.390564	
-0.390625	
-0.390015	
-0.390015	
-0.391052	
-0.390015	
-0.389038	
-0.389832	
-0.390503	
-0.390747	
-0.391663	
-0.390808	
-0.390686	
-0.390747	
-0.390015	
-0.39093	
-0.391113	
-0.390747	
-0.390076	
-0.390808	
-0.391357	
-0.391357	
-0.391357	
-0.391357	
-0.390076	
-0.390564	
-0.391235	
-0.390808	
-0.390015	
-0.389954	
-0.390137	
-0.389954	
-0.389832	
-0.389221	
-0.388672	
-0.388489	
-0.387756	
-0.387695	
-0.387207	
-0.386902	
-0.387512	
-0.38678	
-0.386902	
-0.385986	
-0.385803	
-0.385986	
-0.386108	
-0.386475	
-0.386414	
-0.386719	
-0.386902	
-0.387695	
-0.388062	
-0.388	
-0.387573	
-0.388062	
-0.388123	
-0.388733	
-0.388916	
-0.38855	
-0.388367	
-0.388428	
-0.388916	
-0.389221	
-0.389893	
-0.390198	
-0.389709	
-0.390137	
-0.391052	
-0.391663	
-0.391602	
-0.391479	
-0.391907	
-0.392334	
-0.392273	
-0.393066	
-0.393311	
-0.392517	
-0.392151	
-0.392883	
-0.393677	
-0.393311	
-0.392883	
-0.393982	
-0.393555	
-0.393555	
-0.394104	
-0.393921	
-0.393555	
-0.3927	
-0.393066	
-0.394165	
-0.393616	
-0.39325	
-0.393433	
-0.393433	
-0.393372	
-0.392822	
-0.393372	
-0.392944	
-0.392212	
-0.392883	
-0.393127	
-0.392334	
-0.391418	
-0.390686	
-0.391479	
-0.391663	
-0.390442	
-0.390808	
-0.391113	
-0.391357	
-0.390991	
-0.39093	
-0.390381	
-0.389587	
-0.390198	
-0.390625	
-0.391235	
-0.390808	
-0.390137	
-0.390381	
-0.39032	
-0.391357	
-0.390381	
-0.390259	
-0.390442	
-0.39093	
-0.390808	
-0.392029	
-0.391541	
-0.391052	
-0.391174	
-0.391174	
-0.392212	
-0.392395	
-0.392151	
-0.392456	
-0.392517	
-0.392639	
-0.393433	
-0.393433	
-0.392761	
-0.392761	
-0.393066	
-0.39386	
-0.392639	
-0.392395	
-0.391968	
-0.392578	
-0.392517	
-0.392517	
-0.393555	
-0.3927	
-0.392151	
-0.393188	
-0.39325	
-0.3927	
-0.393005	
-0.393066	
-0.393127	
-0.393616	
-0.392944	
-0.394165	
-0.393494	
-0.392578	
-0.39325	
-0.393921	
-0.393372	
-0.392456	
-0.392517	
-0.392395	
-0.39209	
-0.391602	
-0.391846	
-0.391541	
-0.391663	
-0.391541	
-0.391846	
-0.391479	
-0.391357	
-0.391418	
-0.391602	
-0.391357	
-0.391235	
-0.391113	
-0.390686	
-0.390869	
-0.391113	
-0.39032	
-0.390198	
-0.389526	
-0.390076	
-0.390259	
-0.391113	
-0.390686	
-0.391235	
-0.391479	
-0.391174	
-0.392639	
-0.391785	
-0.391968	
-0.391541	
-0.392517	
-0.392456	
-0.393311	
-0.393433	
-0.392883	
-0.392822	
-0.39386	
-0.395325	
-0.394165	
-0.394775	
-0.393921	
-0.395081	
-0.395508	
-0.39624	
-0.397034	
-0.396179	
-0.39563	
-0.397583	
-0.39801	
-0.39801	
-0.39856	
-0.398254	
-0.39917	
-0.399658	
-0.398804	
-0.400513	
-0.399658	
-0.398499	
-0.399414	
-0.398621	
-0.398193	
-0.398071	
-0.3974	
-0.397522	
-0.397217	
-0.396179	
-0.397095	
-0.396057	
-0.395447	
-0.396057	
-0.395691	
-0.395386	
-0.395203	
-0.394653	
-0.394775	
-0.394775	
-0.394653	
-0.395386	
-0.39447	
-0.39447	
-0.394714	
-0.393738	
-0.394165	
-0.393982	
-0.393982	
-0.393982	
-0.394226	
-0.393921	
-0.39386	
-0.39386	
-0.394409	
-0.394409	
-0.393799	
-0.393616	
-0.393188	
-0.39386	
-0.394043	
-0.394409	
-0.394043	
-0.393372	
-0.392944	
-0.393799	
-0.394653	
-0.393738	
-0.393982	
-0.393433	
-0.393494	
-0.393677	
-0.394165	
-0.393799	
-0.393127	
-0.392761	
-0.393799	
-0.39502	
-0.393738	
-0.393433	
-0.393188	
-0.394043	
-0.394043	
-0.393982	
-0.394348	
-0.394104	
-0.393433	
-0.393921	
-0.39502	
-0.394043	
-0.393738	
-0.393127	
-0.393433	
-0.393127	
-0.392517	
-0.393799	
-0.392944	
-0.391663	
-0.392822	
-0.3927	
-0.392456	
-0.392273	
-0.39093	
-0.392212	
-0.392029	
-0.391968	
-0.392456	
-0.391052	
-0.390625	
-0.391052	
-0.391235	
-0.390259	
-0.390503	
-0.389648	
-0.39032	
-0.390076	
-0.390015	
-0.390259	
-0.389465	
-0.389648	
-0.389648	
-0.390015	
-0.389709	
-0.389465	
-0.389526	
-0.390137	
-0.390381	
-0.390198	
-0.390198	
-0.390137	
-0.39032	
-0.391235	
-0.390198	
-0.389771	
-0.390503	
-0.389954	
-0.389832	
-0.390015	
-0.390076	
-0.389709	
-0.389343	
-0.389221	
-0.390686	
-0.389465	
-0.389587	
-0.389771	
-0.388916	
-0.38916	
-0.390015	
-0.389893	
-0.389526	
-0.389709	
-0.390198	
-0.391235	
-0.390259	
-0.390686	
-0.390564	
-0.391235	
-0.391724	
-0.391602	
-0.393311	
-0.392639	
-0.392517	
-0.393066	
-0.394165	
-0.394043	
-0.394104	
-0.393005	
-0.394409	
-0.394836	
-0.393494	
-0.394958	
-0.394592	
-0.393311	
-0.393433	
-0.39447	
-0.393433	
-0.393188	
-0.391541	
-0.392639	
-0.392578	
-0.392639	
-0.393127	
-0.392029	
-0.392029	
-0.391907	
-0.393433	
-0.392212	
-0.392578	
-0.391418	
-0.391541	
-0.390686	
-0.390381	
-0.390564	
-0.389404	
-0.389526	
-0.388977	
-0.389526	
-0.389099	
-0.389954	
-0.388	
-0.388733	
-0.388367	
-0.389099	
-0.388733	
-0.388123	
-0.388306	
-0.388	
-0.388306	
-0.388245	
-0.388062	
-0.387024	
-0.387756	
-0.387634	
-0.38855	
-0.388672	
-0.388062	
-0.388245	
-0.389404	
-0.388733	
-0.388916	
-0.387756	
-0.388123	
-0.389099	
-0.389099	
-0.389526	
-0.388977	
-0.388977	
-0.389893	
-0.390137	
-0.390381	
-0.390259	
-0.38916	
-0.39032	
-0.390747	
-0.391174	
-0.391357	
-0.390991	
-0.390015	
-0.391296	
-0.391357	
-0.390686	
-0.39093	
-0.390991	
-0.391113	
-0.391357	
-0.391357	
-0.391479	
-0.391418	
-0.390686	
-0.391541	
-0.391846	
-0.390991	
-0.391174	
-0.390442	
-0.390503	
-0.391113	
-0.390259	
-0.389648	
-0.389343	
-0.389099	
-0.389099	
-0.389526	
-0.389282	
-0.389404	
-0.388855	
-0.388672	
-0.388428	
-0.388916	
-0.389343	
-0.388855	
-0.388672	
-0.389038	
-0.389893	
-0.388794	
-0.388794	
-0.38855	
-0.388672	
-0.388123	
-0.389099	
-0.388733	
-0.388123	
-0.388306	
-0.389221	
-0.38916	
-0.388916	
-0.387634	
-0.387939	
-0.388367	
-0.388672	
-0.387939	
-0.387878	
-0.388184	
-0.388611	
-0.389099	
-0.390442	
-0.389893	
-0.388916	
-0.389771	
-0.390259	
-0.391052	
-0.391052	
-0.390137	
-0.390015	
-0.389832	
-0.389954	
-0.391052	
-0.390381	
-0.390259	
-0.390259	
-0.390381	
-0.391968	
-0.391968	
-0.390686	
-0.390381	
-0.391174	
-0.391418	
-0.392212	
-0.391541	
-0.390991	
-0.390015	
-0.390015	
-0.390259	
-0.390686	
-0.389832	
-0.388489	
-0.388916	
-0.38916	
-0.389526	
-0.389587	
-0.388184	
-0.387329	
-0.387573	
-0.388	
-0.388	
-0.387085	
-0.386963	
-0.386108	
-0.386353	
-0.386475	
-0.385742	
-0.385559	
-0.384216	
-0.384155	
-0.384338	
-0.384094	
-0.383545	
-0.38324	
-0.38269	
-0.383118	
-0.382813	
-0.382324	
-0.382568	
-0.381653	
-0.382874	
-0.382996	
-0.383423	
-0.383118	
-0.383972	
-0.384338	
-0.384644	
-0.384766	
-0.384521	
-0.385254	
-0.385376	
-0.386292	
-0.386475	
-0.386169	
-0.385864	
-0.386658	
-0.387268	
-0.387085	
-0.38739	
-0.385803	
-0.387146	
-0.387085	
-0.388	
-0.388062	
-0.387573	
-0.386902	
-0.387695	
-0.387939	
-0.388245	
-0.388733	
-0.387573	
-0.387573	
-0.387573	
-0.38855	
-0.388489	
-0.387634	
-0.386841	
-0.388123	
-0.388184	
-0.388794	
-0.388306	
-0.388184	
-0.388306	
-0.387756	
-0.38855	
-0.389099	
-0.388184	
-0.388184	
-0.388672	
-0.388245	
-0.389709	
-0.388672	
-0.388916	
-0.388672	
-0.389038	
-0.388855	
-0.389465	
-0.388245	
-0.388672	
-0.389343	
-0.388794	
-0.389648	
-0.387817	
-0.388489	
-0.387817	
-0.38916	
-0.388245	
-0.389526	
-0.387878	
-0.388245	
-0.388245	
-0.388855	
-0.390137	
-0.38855	
-0.388916	
-0.388	
-0.390381	
-0.389343	
-0.390259	
-0.389099	
-0.389526	
-0.388977	
-0.389771	
-0.390442	
-0.389526	
-0.390259	
-0.390076	
-0.391357	
-0.390808	
-0.391052	
-0.390686	
-0.392151	
-0.390808	
-0.392273	
-0.3927	
-0.392029	
-0.391968	
-0.391174	
-0.39325	
-0.392395	
-0.392273	
-0.391907	
-0.393005	
-0.391418	
-0.392944	
-0.391907	
-0.391785	
-0.391174	
-0.391602	
-0.392456	
-0.391968	
-0.391785	
-0.391235	
-0.392639	
-0.391968	
-0.393799	
-0.391846	
-0.392456	
-0.39209	
-0.392822	
-0.393311	
-0.392578	
-0.392578	
-0.391602	
-0.393188	
-0.392639	
-0.394226	
-0.391174	
-0.392578	
-0.391846	
-0.392334	
-0.392273	
-0.392029	
-0.391663	
-0.390259	
-0.391541	
-0.391235	
-0.39209	
-0.389282	
-0.389893	
-0.388123	
-0.389648	
-0.389221	
-0.389038	
-0.388184	
-0.387024	
-0.387756	
-0.388123	
-0.388245	
-0.387085	
-0.387146	
-0.386047	
-0.388245	
-0.387878	
-0.388977	
-0.388184	
-0.388977	
-0.388977	
-0.389648	
-0.390259	
-0.389709	
-0.389404	
-0.389038	
-0.390137	
-0.389587	
-0.39032	
-0.389771	
-0.390564	
-0.389954	
-0.391846	
-0.391846	
-0.391602	
-0.391785	
-0.391174	
-0.393188	
-0.392639	
-0.393494	
-0.393005	
-0.393677	
-0.39209	
-0.394348	
-0.393372	
-0.392944	
-0.3927	
-0.393738	
-0.394592	
-0.394348	
-0.394531	
-0.394287	
-0.394531	
-0.393494	
-0.394653	
-0.393921	
-0.393738	
-0.393555	
-0.393982	
-0.395447	
-0.394592	
-0.394653	
-0.393555	
-0.394409	
-0.393311	
-0.394043	
-0.393372	
-0.393311	
-0.39325	
-0.393677	
-0.393433	
-0.392761	
-0.392212	
-0.391174	
-0.392639	
-0.392883	
-0.392395	
-0.391663	
-0.391235	
-0.391663	
-0.391846	
-0.391724	
-0.392273	
-0.391479	
-0.390808	
-0.392578	
-0.392151	
-0.392212	
-0.391418	
-0.390808	
-0.391541	
-0.392517	
-0.391663	
-0.39209	
-0.391724	
-0.392456	
-0.393311	
-0.392334	
-0.393616	
-0.392334	
-0.3927	
-0.392761	
-0.393616	
-0.393799	
-0.394714	
-0.393616	
-0.393555	
-0.394836	
-0.394104	
-0.394897	
-0.393066	
-0.394226	
-0.393616	
-0.394836	
-0.393799	
-0.394409	
-0.393555	
-0.394104	
-0.394836	
-0.394043	
-0.394531	
-0.3927	
-0.394287	
-0.393921	
-0.394836	
-0.39447	
-0.395325	
-0.394226	
-0.394958	
-0.395142	
-0.395325	
-0.395508	
-0.39386	
-0.395081	
-0.393799	
-0.395142	
-0.394104	
-0.394409	
-0.392273	
-0.393433	
-0.39325	
-0.393188	
-0.393127	
-0.39209	
-0.392639	
-0.392517	
-0.393188	
-0.392822	
-0.393677	
-0.392334	
-0.393433	
-0.392334	
-0.392456	
-0.391541	
-0.390747	
-0.391418	
-0.391296	
-0.391785	
-0.391479	
-0.391968	
-0.391602	
-0.3927	
-0.391296	
-0.392517	
-0.391418	
-0.391968	
-0.392822	
-0.393555	
-0.393494	
-0.393982	
-0.39386	
-0.394226	
-0.394409	
-0.393555	
-0.394836	
-0.394958	
-0.393677	
-0.395081	
-0.395752	
-0.395935	
-0.396667	
-0.396606	
-0.397339	
-0.3974	
-0.398315	
-0.39801	
-0.398254	
-0.397644	
-0.399109	
-0.400208	
-0.400085	
-0.400757	
-0.40033	
-0.401245	
-0.400818	
-0.400818	
-0.401672	
-0.400818	
-0.399536	
-0.399902	
-0.399841	
-0.399109	
-0.399109	
-0.398743	
-0.399048	
-0.397583	
-0.397644	
-0.397644	
-0.396973	
-0.395874	
-0.395752	
-0.3974	
-0.396667	
-0.396912	
-0.396301	
-0.396973	
-0.39563	
-0.395935	
-0.395813	
-0.395691	
-0.394531	
-0.394958	
-0.396912	
-0.395935	
-0.396484	
-0.394592	
-0.396301	
-0.395447	
-0.395508	
-0.395325	
-0.395264	
-0.394775	
-0.394592	
-0.396118	
-0.395386	
-0.395142	
-0.394592	
-0.395752	
-0.395264	
-0.395203	
-0.39447	
-0.395081	
-0.39447	
-0.394531	
-0.395508	
-0.395447	
-0.395142	
-0.394592	
-0.395691	
-0.39563	
-0.395081	
-0.39502	
-0.395508	
-0.394714	
-0.395081	
-0.395508	
-0.396301	
-0.395447	
-0.396057	
-0.395752	
-0.395935	
-0.395935	
-0.395081	
-0.395203	
-0.395081	
-0.395447	
-0.395447	
-0.395996	
-0.394653	
-0.395142	
-0.394775	
-0.394653	
-0.394775	
-0.394592	
-0.39447	
-0.393799	
-0.393982	
-0.394287	
-0.395081	
-0.393616	
-0.393921	
-0.392456	
-0.393555	
-0.393799	
-0.392395	
-0.392822	
-0.391968	
-0.392151	
-0.391968	
-0.391724	
-0.391235	
-0.391907	
-0.391541	
-0.391968	
-0.391907	
-0.391602	
-0.391418	
-0.391418	
-0.391296	
-0.392395	
-0.391602	
-0.390808	
-0.391968	
-0.391602	
-0.392151	
-0.391968	
-0.392273	
-0.391907	
-0.391907	
-0.390869	
-0.39209	
-0.391418	
-0.390747	
-0.390869	
-0.391357	
-0.391479	
-0.390869	
-0.391296	
-0.390625	
-0.391174	
-0.390747	
-0.391052	
-0.391296	
-0.391296	
-0.390442	
-0.391357	
-0.391724	
-0.390625	
-0.391724	
-0.391296	
-0.392273	
-0.392395	
-0.392212	
-0.392822	
-0.393799	
-0.393799	
-0.39386	
-0.395508	
-0.394714	
-0.395264	
-0.395325	
-0.395813	
-0.396179	
-0.395813	
-0.395996	
-0.396362	
-0.396545	
-0.396179	
-0.396606	
-0.396179	
-0.395813	
-0.39502	
-0.394897	
-0.394897	
-0.394592	
-0.393982	
-0.39502	
-0.394043	
-0.394287	
-0.394897	
-0.394592	
-0.394043	
-0.394043	
-0.394104	
-0.39386	
-0.393005	
-0.392761	
-0.392883	
-0.391907	
-0.391541	
-0.391846	
-0.391846	
-0.390991	
-0.390747	
-0.391602	
-0.391541	
-0.390442	
-0.390198	
-0.390747	
-0.390137	
-0.390198	
-0.389893	
-0.390503	
-0.389709	
-0.389404	
-0.390198	
-0.390686	
-0.389587	
-0.388611	
-0.38916	
-0.389587	
-0.389648	
-0.390381	
-0.390808	
-0.390381	
-0.39032	
-0.390381	
	
