E:\DOCUMENTS AND SETTINGS\JPOTAS\MEUS DOCUMENTOS\UFRJ\RSCI-BM 12 WK SERIES\070723-RSCI-BM-06\RSCI-BM-06-LEMG\070723-RSCI-BM-LEMG-0006.ACQ
0.025000 msec/sample
1 channel
Analog input
Volts
CH1	
2000	
-0.396118	
-0.395996	
-0.397034	
-0.396851	
-0.395874	
-0.396179	
-0.395996	
-0.396545	
-0.395447	
-0.396667	
-0.396606	
-0.396667	
-0.396545	
-0.396362	
-0.397095	
-0.396667	
-0.397949	
-0.397034	
-0.397217	
-0.396362	
-0.397034	
-0.397339	
-0.397278	
-0.397766	
-0.397461	
-0.39679	
-0.396484	
-0.39801	
-0.39679	
-0.3974	
-0.397461	
-0.397766	
-0.398132	
-0.398865	
-0.398315	
-0.397583	
-0.396606	
-0.396118	
-0.396729	
-0.395569	
-0.395081	
-0.39624	
-0.395874	
-0.397095	
-0.397522	
-0.397156	
-0.396729	
-0.397156	
-0.396912	
-0.396912	
-0.396545	
-0.396057	
-0.396729	
-0.395142	
-0.396912	
-0.397766	
-0.398071	
-0.396912	
-0.3974	
-0.39801	
-0.397034	
-0.397217	
-0.396729	
-0.397644	
-0.396545	
-0.396118	
-0.396423	
-0.396667	
-0.396301	
-0.396179	
-0.39502	
-0.394836	
-0.39624	
-0.39502	
-0.39386	
-0.394409	
-0.394531	
-0.394836	
-0.39502	
-0.39447	
-0.394348	
-0.394287	
-0.39447	
-0.395142	
-0.393677	
-0.394104	
-0.395508	
-0.395447	
-0.395386	
-0.39563	
-0.39624	
-0.396057	
-0.395142	
-0.395996	
-0.396362	
-0.395325	
-0.39563	
-0.396484	
-0.395203	
-0.395813	
-0.396301	
-0.396973	
-0.395752	
-0.396118	
-0.393982	
-0.393738	
-0.394409	
-0.394226	
-0.393555	
-0.393921	
-0.394531	
-0.394653	
-0.395081	
-0.393738	
-0.394165	
-0.392639	
-0.392944	
-0.394165	
-0.393921	
-0.393311	
-0.393799	
-0.393555	
-0.393433	
-0.394836	
-0.39325	
-0.392822	
-0.3927	
-0.392883	
-0.39325	
-0.393188	
-0.39209	
-0.393188	
-0.392151	
-0.393066	
-0.393921	
-0.393066	
-0.393066	
-0.393677	
-0.392395	
-0.393127	
-0.392395	
-0.392517	
-0.393799	
-0.392822	
-0.394348	
-0.393921	
-0.395447	
-0.395325	
-0.395325	
-0.393372	
-0.395081	
-0.394714	
-0.394348	
-0.394653	
-0.394531	
-0.394897	
-0.395325	
-0.397217	
-0.395996	
-0.395508	
-0.395203	
-0.395813	
-0.39563	
-0.394714	
-0.394836	
-0.395081	
-0.395569	
-0.395752	
-0.395874	
-0.395142	
-0.395569	
-0.395996	
-0.395386	
-0.394714	
-0.394409	
-0.395081	
-0.395081	
-0.394409	
-0.394409	
-0.394836	
-0.395142	
-0.39447	
-0.394531	
-0.391541	
-0.393372	
-0.392944	
-0.393188	
-0.392883	
-0.391235	
-0.392578	
-0.392639	
-0.39386	
-0.392517	
-0.392822	
-0.391418	
-0.391663	
-0.391846	
-0.38739	
-0.386414	
-0.38623	
-0.387512	
-0.387695	
-0.390015	
-0.394165	
-0.39386	
-0.393005	
-0.392639	
-0.392334	
-0.391663	
-0.392883	
-0.392334	
-0.392883	
-0.393127	
-0.393677	
-0.393066	
-0.393921	
-0.393188	
-0.392944	
-0.393188	
-0.392151	
-0.392395	
-0.387085	
-0.386841	
-0.388306	
-0.38855	
-0.388855	
-0.388977	
-0.393738	
-0.390808	
-0.392822	
-0.392395	
-0.393188	
-0.392944	
-0.391296	
-0.392639	
-0.392883	
-0.393738	
-0.392639	
-0.391541	
-0.389587	
-0.39093	
-0.389771	
-0.390625	
-0.390686	
-0.390381	
-0.391785	
-0.392883	
-0.395264	
-0.396423	
-0.399719	
-0.401245	
-0.406067	
-0.409119	
-0.413391	
-0.419434	
-0.42334	
-0.429871	
-0.435608	
-0.441101	
-0.445313	
-0.450745	
-0.456299	
-0.464294	
-0.47052	
-0.480286	
-0.491699	
-0.503967	
-0.516418	
-0.528748	
-0.539551	
-0.548706	
-0.55719	
-0.562744	
-0.569824	
-0.575134	
-0.579346	
-0.582886	
-0.585022	
-0.58606	
-0.585388	
-0.585083	
-0.582642	
-0.580627	
-0.577026	
-0.575317	
-0.573486	
-0.572083	
-0.570251	
-0.569092	
-0.568054	
-0.566589	
-0.566589	
-0.564453	
-0.562561	
-0.559875	
-0.559143	
-0.557556	
-0.556213	
-0.554749	
-0.552063	
-0.551758	
-0.549683	
-0.548279	
-0.54541	
-0.543762	
-0.540527	
-0.537842	
-0.534546	
-0.531555	
-0.527222	
-0.521118	
-0.517883	
-0.513123	
-0.508301	
-0.502136	
-0.497131	
-0.491882	
-0.489502	
-0.48584	
-0.481934	
-0.479492	
-0.476196	
-0.47467	
-0.47345	
-0.472595	
-0.469421	
-0.466858	
-0.463684	
-0.461609	
-0.458618	
-0.456177	
-0.454224	
-0.452087	
-0.450439	
-0.449097	
-0.44873	
-0.447144	
-0.445618	
-0.443542	
-0.44342	
-0.442627	
-0.440308	
-0.440063	
-0.438171	
-0.436584	
-0.434753	
-0.433472	
-0.428894	
-0.426331	
-0.422607	
-0.417786	
-0.414978	
-0.411072	
-0.406311	
-0.401733	
-0.39563	
-0.389771	
-0.382996	
-0.375549	
-0.367065	
-0.357422	
-0.346375	
-0.336792	
-0.326782	
-0.317017	
-0.308594	
-0.300415	
-0.293884	
-0.289063	
-0.284546	
-0.281799	
-0.278931	
-0.277649	
-0.278015	
-0.278564	
-0.280029	
-0.28241	
-0.283691	
-0.286255	
-0.288757	
-0.291748	
-0.294495	
-0.29718	
-0.299133	
-0.303162	
-0.307007	
-0.31134	
-0.315063	
-0.319824	
-0.323792	
-0.327881	
-0.331604	
-0.334656	
-0.336975	
-0.341125	
-0.344727	
-0.346252	
-0.350037	
-0.350952	
-0.35437	
-0.35791	
-0.359985	
-0.362366	
-0.364075	
-0.365845	
-0.36853	
-0.371338	
-0.373901	
-0.375732	
-0.377441	
-0.379639	
-0.38208	
-0.383789	
-0.384399	
-0.385254	
-0.386658	
-0.388245	
-0.387207	
-0.389343	
-0.389709	
-0.390564	
-0.390747	
-0.390869	
-0.391357	
-0.390686	
-0.390442	
-0.388733	
-0.39093	
-0.388733	
-0.388	
-0.386963	
-0.387146	
-0.386536	
-0.384827	
-0.384094	
-0.38208	
-0.380493	
-0.377502	
-0.376831	
-0.373779	
-0.371155	
-0.368164	
-0.366028	
-0.363586	
-0.359985	
-0.356323	
-0.352722	
-0.349304	
-0.34436	
-0.343628	
-0.341797	
-0.340942	
-0.338501	
-0.339783	
-0.339844	
-0.339905	
-0.340576	
-0.340332	
-0.341614	
-0.342468	
-0.344543	
-0.346558	
-0.348877	
-0.350708	
-0.352844	
-0.35553	
-0.358398	
-0.359253	
-0.361206	
-0.36322	
-0.366699	
-0.367432	
-0.369751	
-0.371399	
-0.373779	
-0.376221	
-0.377747	
-0.379639	
-0.379028	
-0.380127	
-0.379883	
-0.383362	
-0.38269	
-0.384399	
-0.385559	
-0.387207	
-0.388977	
-0.389343	
-0.390503	
-0.39093	
-0.39209	
-0.391052	
-0.394104	
-0.39563	
-0.395935	
-0.396118	
-0.398193	
-0.398621	
-0.399414	
-0.399109	
-0.399475	
-0.399536	
-0.400635	
-0.399048	
-0.400513	
-0.400513	
-0.401001	
-0.401733	
-0.400757	
-0.401917	
-0.401611	
-0.400879	
-0.39978	
-0.402161	
-0.4021	
-0.401978	
-0.401428	
-0.40332	
-0.403442	
-0.40448	
-0.404358	
-0.404541	
-0.404602	
-0.40509	
-0.404846	
-0.405518	
-0.405273	
-0.405945	
-0.406128	
-0.405334	
-0.407471	
-0.406067	
-0.404907	
-0.404114	
-0.405334	
-0.404785	
-0.404358	
-0.403625	
-0.403687	
-0.404114	
-0.402954	
-0.402893	
-0.401306	
-0.40094	
-0.398743	
-0.398376	
-0.39801	
-0.39679	
-0.39624	
-0.395874	
-0.395508	
-0.395691	
-0.394592	
-0.393677	
-0.39325	
-0.39325	
-0.39447	
-0.39386	
-0.393799	
-0.393372	
-0.393555	
-0.392822	
-0.393494	
-0.391968	
-0.391907	
-0.39209	
-0.392334	
-0.393433	
-0.3927	
-0.392883	
-0.392334	
-0.392822	
-0.391907	
-0.393799	
-0.392334	
-0.392395	
-0.391541	
-0.391113	
-0.392029	
-0.391235	
-0.390564	
-0.389465	
-0.389832	
-0.38855	
-0.389587	
-0.387817	
-0.387024	
-0.38623	
-0.385864	
-0.386475	
-0.385803	
-0.385498	
-0.385559	
-0.386597	
-0.386169	
-0.387573	
-0.386963	
-0.385864	
-0.384888	
-0.385681	
-0.386963	
-0.386414	
-0.386353	
-0.386108	
-0.387634	
-0.387329	
-0.387329	
-0.387878	
-0.387207	
-0.38623	
-0.387451	
-0.388306	
-0.387268	
-0.387207	
-0.386841	
-0.387756	
-0.387329	
-0.386597	
-0.386536	
-0.386719	
-0.385498	
-0.384521	
-0.386414	
-0.385681	
-0.38562	
-0.386719	
-0.386719	
-0.385376	
-0.385925	
-0.386353	
-0.386963	
-0.385254	
-0.385681	
-0.387512	
-0.387512	
-0.387634	
-0.387878	
-0.38916	
-0.389099	
-0.389526	
-0.389404	
-0.389526	
-0.388184	
-0.388367	
-0.388855	
-0.389954	
-0.389893	
-0.389587	
-0.39032	
-0.389648	
-0.390991	
-0.389526	
-0.389893	
-0.388916	
-0.388977	
-0.389526	
-0.389648	
-0.389465	
-0.389404	
-0.389465	
-0.38916	
-0.390198	
-0.389343	
-0.390503	
-0.389099	
-0.38855	
-0.389709	
-0.391296	
-0.390564	
-0.39093	
-0.391418	
-0.391296	
-0.391968	
-0.391785	
-0.39209	
-0.390686	
-0.39093	
-0.392273	
-0.393494	
-0.3927	
-0.3927	
-0.393677	
-0.39325	
-0.393921	
-0.393799	
-0.393982	
-0.393127	
-0.393799	
-0.394226	
-0.393921	
-0.393921	
-0.394531	
-0.395203	
-0.394775	
-0.395691	
-0.395508	
-0.395508	
-0.394836	
-0.394897	
-0.395142	
-0.395996	
-0.395569	
-0.394836	
-0.39502	
-0.394714	
-0.395386	
-0.395081	
-0.394836	
-0.39386	
-0.394836	
-0.395142	
-0.395813	
-0.394836	
-0.394897	
-0.395569	
-0.395813	
-0.395874	
-0.394958	
-0.396667	
-0.394714	
-0.395447	
-0.395264	
-0.396484	
-0.396606	
-0.396545	
-0.396423	
-0.396423	
-0.396362	
-0.39563	
-0.397339	
-0.395264	
-0.395081	
-0.395142	
-0.396057	
-0.395813	
-0.395935	
-0.395447	
-0.395325	
-0.395142	
-0.394165	
-0.39447	
-0.394348	
-0.393127	
-0.393494	
-0.394409	
-0.394104	
-0.39447	
-0.394287	
-0.395203	
-0.394836	
-0.394287	
-0.394104	
-0.394897	
-0.394531	
-0.395325	
-0.395874	
-0.39563	
-0.395386	
-0.396057	
-0.396545	
-0.395935	
-0.395996	
-0.396118	
-0.396545	
-0.39563	
-0.396729	
-0.396667	
-0.396484	
-0.395752	
-0.396057	
-0.396667	
-0.395142	
-0.394165	
-0.394104	
-0.393921	
-0.393372	
-0.394592	
-0.394653	
-0.394714	
-0.394409	
-0.394409	
-0.395203	
-0.393921	
-0.394104	
-0.39325	
-0.394165	
-0.392761	
-0.394287	
-0.394409	
-0.393921	
-0.394653	
-0.39325	
-0.393738	
-0.393799	
-0.393372	
-0.392883	
-0.39325	
-0.39325	
-0.393433	
-0.393799	
-0.393799	
-0.394531	
-0.394226	
-0.394775	
-0.394226	
-0.393738	
-0.392883	
-0.393982	
-0.393555	
-0.393921	
-0.395203	
-0.394836	
-0.395203	
-0.395569	
-0.396301	
-0.395813	
-0.394775	
-0.394958	
-0.395813	
-0.394897	
-0.395691	
-0.396057	
-0.395691	
-0.39624	
-0.396729	
-0.396301	
-0.396484	
-0.395569	
-0.395081	
-0.395996	
-0.394836	
-0.396179	
-0.396606	
-0.395935	
-0.396362	
-0.397339	
-0.395813	
-0.395996	
-0.395996	
-0.395447	
-0.395508	
-0.395081	
-0.395508	
-0.395813	
-0.396179	
-0.395813	
-0.396423	
-0.395447	
-0.395569	
-0.395142	
-0.394714	
-0.39447	
-0.39386	
-0.393982	
-0.394165	
-0.394104	
-0.393616	
-0.394287	
-0.393127	
-0.393555	
-0.393616	
-0.393066	
-0.392761	
-0.393005	
-0.393616	
-0.393921	
-0.392822	
-0.392883	
-0.394165	
-0.393921	
-0.393372	
-0.393799	
-0.393677	
-0.393555	
-0.393372	
-0.393799	
-0.394104	
-0.39447	
-0.394958	
-0.395386	
-0.394287	
-0.394897	
-0.395142	
-0.394287	
-0.394226	
-0.393982	
-0.394226	
-0.393921	
-0.394348	
-0.394653	
-0.39447	
-0.394043	
-0.394958	
-0.394836	
-0.394043	
-0.393372	
-0.3927	
-0.393616	
-0.394104	
-0.393555	
-0.393921	
-0.394592	
-0.393677	
-0.394348	
-0.393677	
-0.392639	
-0.392395	
-0.390747	
-0.392212	
-0.39209	
-0.391418	
-0.391785	
-0.392822	
-0.390991	
-0.391052	
-0.392029	
-0.391724	
-0.391602	
-0.391052	
-0.391907	
-0.392639	
-0.392883	
-0.393066	
-0.393799	
-0.393311	
-0.394226	
-0.395142	
-0.393738	
-0.395386	
-0.394836	
-0.395081	
-0.395264	
-0.395752	
-0.395569	
-0.396057	
-0.395264	
-0.395996	
-0.396912	
-0.394836	
-0.396179	
-0.395569	
-0.395691	
-0.396179	
-0.396301	
-0.395752	
-0.395996	
-0.395325	
-0.396179	
-0.396667	
-0.39563	
-0.396851	
-0.395752	
-0.39563	
-0.397095	
-0.397644	
-0.397156	
-0.397278	
-0.397156	
-0.397766	
-0.398071	
-0.397278	
-0.397217	
-0.397339	
-0.397522	
-0.397827	
-0.398132	
-0.397644	
-0.397705	
-0.396729	
-0.396362	
-0.396729	
-0.396851	
-0.39563	
-0.395508	
-0.394958	
-0.395142	
-0.395874	
-0.395447	
-0.395447	
-0.394897	
-0.395569	
-0.395325	
-0.39563	
-0.395203	
-0.394592	
-0.394775	
-0.395264	
-0.396362	
-0.39563	
-0.395813	
-0.395874	
-0.395569	
-0.395508	
-0.395874	
-0.396057	
-0.39624	
-0.395935	
-0.395752	
-0.396851	
-0.395203	
-0.395569	
-0.39624	
-0.395447	
-0.395569	
-0.395447	
-0.395874	
-0.395203	
-0.395691	
-0.395508	
-0.396057	
-0.39563	
-0.395325	
-0.395569	
-0.395325	
-0.395386	
-0.394043	
-0.39447	
-0.394104	
-0.39447	
-0.39325	
-0.395508	
-0.394287	
-0.394714	
-0.394653	
-0.395081	
-0.394897	
-0.393372	
-0.394836	
-0.394165	
-0.39325	
-0.392944	
-0.393982	
-0.393555	
-0.393982	
-0.394348	
-0.394531	
-0.394836	
-0.394226	
-0.395813	
-0.395325	
-0.394531	
-0.394897	
-0.395447	
-0.395508	
-0.395508	
-0.39563	
-0.395264	
-0.395264	
-0.395386	
-0.395386	
-0.394653	
-0.394226	
-0.39563	
-0.39502	
-0.394714	
-0.39447	
-0.395569	
-0.39502	
-0.394775	
-0.394287	
-0.393555	
-0.39447	
-0.394409	
-0.394958	
-0.394836	
-0.394531	
-0.395142	
-0.395874	
-0.395508	
-0.395447	
-0.39624	
-0.395081	
-0.396057	
-0.395996	
-0.396423	
-0.396729	
-0.396545	
-0.3974	
-0.39679	
-0.397583	
-0.397034	
-0.396606	
-0.395874	
-0.396973	
-0.396362	
-0.395813	
-0.39624	
-0.396545	
-0.396912	
-0.396362	
-0.396851	
-0.396057	
-0.396362	
-0.395813	
-0.396851	
-0.395508	
-0.395142	
-0.394409	
-0.395569	
-0.395447	
-0.395874	
-0.396301	
-0.395935	
-0.396301	
-0.395508	
-0.397095	
-0.395935	
-0.396423	
-0.396667	
-0.396606	
-0.3974	
-0.397217	
-0.397583	
-0.397522	
-0.3974	
-0.396057	
-0.397766	
-0.397278	
-0.396545	
-0.3974	
-0.397949	
-0.397827	
-0.397644	
-0.397888	
-0.398071	
-0.397583	
-0.397583	
-0.398071	
-0.397949	
-0.397278	
-0.397644	
-0.398499	
-0.398132	
-0.398132	
-0.397766	
-0.398071	
-0.397827	
-0.398193	
-0.39801	
-0.397705	
-0.396423	
-0.397034	
-0.397888	
-0.397461	
-0.3974	
-0.3974	
-0.396667	
-0.396973	
-0.397278	
-0.395142	
-0.395996	
-0.395874	
-0.396118	
-0.396423	
-0.39563	
-0.395935	
-0.396484	
-0.395691	
-0.395447	
-0.396057	
-0.394653	
-0.395508	
-0.394958	
-0.39563	
-0.39502	
-0.395203	
-0.395752	
-0.39563	
-0.396301	
-0.395935	
-0.396362	
-0.39447	
-0.396423	
-0.395508	
-0.395447	
-0.395264	
-0.396118	
-0.396057	
-0.396423	
-0.396606	
-0.396179	
-0.397034	
-0.395081	
-0.397278	
-0.396301	
-0.397278	
-0.397644	
-0.397583	
-0.398132	
-0.39856	
-0.39801	
-0.398376	
-0.399231	
-0.397217	
-0.399353	
-0.398254	
-0.398621	
-0.398438	
-0.39917	
-0.398315	
-0.398376	
-0.397949	
-0.398315	
-0.398743	
-0.397095	
-0.39856	
-0.39801	
-0.39801	
-0.39801	
-0.398254	
-0.39856	
-0.398132	
-0.399048	
-0.39679	
-0.39679	
-0.396484	
-0.396851	
-0.396973	
-0.396118	
-0.396729	
-0.396851	
-0.397095	
-0.397034	
-0.39801	
-0.397156	
-0.397522	
-0.397522	
-0.397583	
-0.397583	
-0.396179	
-0.397095	
-0.39679	
-0.397156	
-0.397278	
-0.398682	
-0.397583	
-0.39801	
-0.398682	
-0.398132	
-0.399902	
-0.397644	
-0.398926	
-0.398254	
-0.399414	
-0.399292	
-0.400513	
-0.399597	
-0.399841	
-0.400085	
-0.399658	
-0.400757	
-0.398438	
-0.399048	
-0.39917	
-0.399292	
-0.398438	
-0.398315	
-0.39679	
-0.397156	
-0.397278	
-0.394897	
-0.396667	
-0.395813	
-0.396179	
-0.395691	
-0.396362	
-0.395508	
-0.396057	
-0.396301	
-0.394775	
-0.39563	
-0.393738	
-0.395264	
-0.394592	
-0.395081	
-0.395325	
-0.395508	
-0.395325	
-0.394897	
-0.396118	
-0.395386	
-0.395935	
-0.393738	
-0.394775	
-0.394104	
-0.394287	
-0.394531	
-0.394775	
-0.394226	
-0.394043	
-0.394409	
-0.394226	
-0.394531	
-0.392944	
-0.393372	
-0.393311	
-0.394165	
-0.394043	
-0.393188	
-0.393494	
-0.394104	
-0.394836	
-0.394775	
-0.394897	
-0.394165	
-0.394958	
-0.396057	
-0.395386	
-0.395325	
-0.395874	
-0.396545	
-0.39624	
-0.39679	
-0.396118	
-0.395996	
-0.39563	
-0.395142	
-0.396362	
-0.395813	
-0.396362	
-0.395874	
-0.39624	
-0.396118	
-0.395569	
-0.394653	
-0.394836	
-0.394409	
-0.394287	
-0.395569	
-0.394714	
-0.395264	
-0.395081	
-0.395569	
-0.395081	
-0.394348	
-0.394775	
-0.395325	
-0.394775	
-0.394226	
-0.396057	
-0.39447	
-0.39502	
-0.395386	
-0.395691	
-0.395447	
-0.395691	
-0.396118	
-0.395874	
-0.395996	
-0.394592	
-0.396484	
-0.394897	
-0.396179	
-0.395386	
-0.396484	
-0.395752	
-0.396118	
-0.397034	
-0.396179	
-0.396912	
-0.396057	
-0.397278	
-0.397095	
-0.397339	
-0.396973	
-0.397217	
-0.396973	
-0.397156	
-0.397522	
-0.396484	
-0.396667	
-0.395264	
-0.394653	
-0.395569	
-0.395325	
-0.395203	
-0.394653	
-0.395874	
-0.395386	
-0.396179	
-0.394775	
-0.395691	
-0.394897	
-0.39447	
-0.395935	
-0.395569	
-0.395569	
-0.395325	
-0.396118	
-0.395386	
-0.397034	
-0.39624	
-0.396423	
-0.395386	
-0.395508	
-0.397095	
-0.395447	
-0.395874	
-0.39563	
-0.396301	
-0.395203	
-0.39624	
-0.39563	
-0.394897	
-0.394531	
-0.394226	
-0.394714	
-0.393494	
-0.393921	
-0.393066	
-0.39447	
-0.393799	
-0.393555	
-0.393005	
-0.393311	
-0.393494	
-0.393616	
-0.394104	
-0.393066	
-0.394104	
-0.394226	
-0.395752	
-0.39447	
-0.394287	
-0.394104	
-0.394531	
-0.394226	
-0.394287	
-0.395386	
-0.39386	
-0.395081	
-0.395142	
-0.395569	
-0.395264	
-0.394958	
-0.39502	
-0.394531	
-0.39447	
-0.393311	
-0.393311	
-0.392761	
-0.393494	
-0.393127	
-0.391785	
-0.3927	
-0.393433	
-0.392578	
-0.392395	
-0.393738	
-0.392029	
-0.391663	
-0.392822	
-0.3927	
-0.392639	
-0.392029	
-0.3927	
-0.392761	
-0.392273	
-0.391724	
-0.392334	
-0.392029	
-0.391418	
-0.393005	
-0.391785	
-0.391968	
-0.392151	
-0.392212	
-0.391968	
-0.392517	
-0.392273	
-0.392639	
-0.392456	
-0.392273	
-0.393372	
-0.391602	
-0.3927	
-0.392578	
-0.393188	
-0.393005	
-0.393555	
-0.394165	
-0.393738	
-0.393433	
-0.393677	
-0.394958	
-0.393677	
-0.394104	
-0.393982	
-0.394714	
-0.394226	
-0.394531	
-0.394226	
-0.393921	
-0.394104	
-0.394165	
-0.394897	
-0.394287	
-0.394409	
-0.394043	
-0.394348	
-0.394531	
-0.394897	
-0.394714	
-0.394043	
-0.393188	
-0.394165	
-0.394958	
-0.394348	
-0.393616	
-0.393555	
-0.39447	
-0.394043	
-0.394287	
-0.393494	
-0.393372	
-0.392456	
-0.393127	
-0.392212	
-0.392273	
-0.392212	
-0.392151	
-0.392212	
-0.391479	
-0.392029	
-0.391296	
-0.390686	
-0.391174	
-0.391968	
-0.390442	
-0.391174	
-0.390747	
-0.391113	
-0.390991	
-0.391785	
-0.392456	
-0.391724	
-0.391663	
-0.392029	
-0.392456	
-0.391663	
-0.391968	
-0.391602	
-0.391663	
-0.390381	
-0.393311	
-0.393677	
-0.393127	
-0.392517	
-0.392639	
-0.393555	
-0.392883	
-0.392822	
-0.392029	
-0.392395	
-0.391663	
-0.393372	
-0.392761	
-0.392029	
-0.391968	
-0.391968	
-0.392822	
-0.392395	
-0.392944	
-0.391907	
-0.391296	
-0.391785	
-0.392761	
-0.392395	
-0.391663	
-0.391846	
-0.391357	
-0.391724	
-0.392151	
-0.390686	
-0.390076	
-0.389282	
-0.390137	
-0.390381	
-0.39032	
-0.38916	
-0.389587	
-0.389343	
-0.390198	
-0.390808	
-0.389648	
-0.389648	
-0.390015	
-0.390259	
-0.390625	
-0.391602	
-0.391785	
-0.392212	
-0.392151	
-0.392639	
-0.393433	
-0.3927	
-0.393738	
-0.392883	
-0.393494	
-0.392822	
-0.394287	
-0.394226	
-0.394531	
-0.393921	
-0.394348	
-0.394592	
-0.394226	
-0.39447	
-0.394287	
-0.394226	
-0.393494	
-0.394226	
-0.394165	
-0.394409	
-0.394043	
-0.394531	
-0.394958	
-0.394653	
-0.39563	
-0.395081	
-0.394348	
-0.394958	
-0.395508	
-0.395325	
-0.395569	
-0.395081	
-0.395996	
-0.395935	
-0.396118	
-0.396851	
-0.396606	
-0.395813	
-0.396118	
-0.39679	
-0.395569	
-0.395264	
-0.394409	
-0.394836	
-0.394775	
-0.395203	
-0.393738	
-0.393677	
-0.393188	
-0.393677	
-0.394836	
-0.393616	
-0.393433	
-0.393127	
-0.394043	
-0.393372	
-0.394836	
-0.393555	
-0.393982	
-0.393188	
-0.393677	
-0.394958	
-0.394043	
-0.394409	
-0.393921	
-0.394714	
-0.394409	
-0.395264	
-0.394592	
-0.394592	
-0.394897	
-0.394287	
-0.394165	
-0.394226	
-0.393616	
-0.39386	
-0.393616	
-0.394043	
-0.394897	
-0.394714	
-0.394836	
-0.394653	
-0.393188	
-0.393066	
-0.394348	
-0.393616	
-0.393311	
-0.39325	
-0.393921	
-0.393127	
-0.394348	
-0.394043	
-0.393494	
-0.392517	
-0.392883	
-0.394043	
-0.393372	
-0.392822	
-0.393494	
-0.393433	
-0.393127	
-0.394531	
-0.392578	
-0.392395	
-0.392151	
-0.3927	
-0.392639	
-0.392761	
-0.392944	
-0.393372	
-0.394836	
-0.394592	
-0.394531	
-0.394287	
-0.394104	
-0.394287	
-0.394958	
-0.394409	
-0.394226	
-0.393799	
-0.393982	
-0.394775	
-0.393982	
-0.394104	
-0.394287	
-0.394043	
-0.393738	
-0.393677	
-0.393677	
-0.393616	
-0.393555	
-0.393677	
-0.393372	
-0.393066	
-0.393494	
-0.394043	
-0.393555	
-0.393433	
-0.393005	
-0.393555	
-0.394775	
-0.394592	
-0.394409	
-0.394592	
-0.394897	
-0.395508	
-0.395813	
-0.395325	
-0.395813	
-0.395508	
-0.394897	
-0.396851	
-0.39624	
-0.395081	
-0.39563	
-0.396362	
-0.396057	
-0.396606	
-0.395264	
-0.395386	
-0.395264	
-0.394958	
-0.396179	
-0.395203	
-0.393799	
-0.395081	
-0.396301	
-0.395691	
-0.395813	
-0.394958	
-0.394897	
-0.394958	
-0.394348	
-0.394836	
-0.394775	
-0.395447	
-0.395569	
-0.395142	
-0.395874	
-0.39624	
-0.397095	
-0.397095	
-0.396729	
-0.396301	
-0.396851	
-0.396851	
-0.396301	
-0.396545	
-0.395569	
-0.396606	
-0.397278	
-0.397949	
-0.397217	
-0.396851	
-0.396973	
-0.3974	
-0.397461	
-0.396545	
-0.396667	
-0.396851	
-0.397766	
-0.397888	
-0.398682	
-0.396606	
-0.397705	
-0.397949	
-0.397888	
-0.397949	
-0.397278	
-0.396851	
-0.397461	
-0.398193	
-0.396912	
-0.398438	
-0.396851	
-0.397156	
-0.397095	
-0.396851	
-0.397095	
-0.395996	
-0.396118	
-0.396179	
-0.396912	
-0.395935	
-0.396301	
-0.39563	
-0.395752	
-0.395691	
-0.394653	
-0.395569	
-0.395569	
-0.395386	
-0.395264	
-0.394775	
-0.395691	
-0.395691	
-0.395874	
-0.395691	
-0.395264	
-0.394409	
-0.395996	
-0.396545	
-0.394836	
-0.395203	
-0.39563	
-0.395691	
-0.395691	
-0.396851	
-0.395386	
-0.39624	
-0.395264	
-0.396362	
-0.396912	
-0.394775	
-0.396301	
-0.396179	
-0.396851	
-0.396912	
-0.398193	
-0.395996	
-0.39801	
-0.39856	
-0.397827	
-0.398376	
-0.398193	
-0.398804	
-0.398438	
-0.398865	
-0.398743	
-0.399292	
-0.398621	
-0.398499	
-0.398132	
-0.397583	
-0.39856	
-0.397949	
-0.39801	
-0.39856	
-0.398132	
-0.398376	
-0.398621	
-0.39856	
-0.397827	
-0.397705	
-0.397583	
-0.398132	
-0.397583	
-0.395752	
-0.397522	
-0.397217	
-0.397339	
-0.397644	
-0.397888	
-0.397339	
-0.397217	
-0.396362	
-0.397034	
-0.398071	
-0.396912	
-0.397949	
-0.39801	
-0.397888	
-0.398376	
-0.398865	
-0.397888	
-0.39801	
-0.397339	
-0.397461	
-0.398499	
-0.398132	
-0.399109	
-0.399109	
-0.399353	
-0.399658	
-0.400635	
-0.398743	
-0.399841	
-0.400085	
-0.400024	
-0.400574	
-0.400757	
-0.400269	
-0.399902	
-0.39978	
-0.400635	
-0.400818	
-0.399902	
-0.399353	
-0.398865	
-0.397705	
-0.39856	
-0.398254	
-0.396545	
-0.397766	
-0.397766	
-0.397461	
-0.3974	
-0.396973	
-0.396484	
-0.396057	
-0.396057	
-0.396301	
-0.396362	
-0.394897	
-0.395813	
-0.395691	
-0.395935	
-0.396484	
-0.396057	
-0.395935	
-0.395386	
-0.396118	
-0.395691	
-0.396118	
-0.396118	
-0.395935	
-0.395813	
-0.394104	
-0.395691	
-0.395996	
-0.394653	
-0.394653	
-0.394836	
-0.394531	
-0.394897	
-0.395203	
-0.394287	
-0.39447	
-0.394348	
-0.395142	
-0.395447	
-0.394226	
-0.394592	
-0.393677	
-0.395386	
-0.395447	
-0.395569	
-0.395386	
-0.396362	
-0.396851	
-0.396362	
-0.396973	
-0.397095	
-0.397217	
-0.395935	
-0.397278	
-0.397156	
-0.396729	
-0.395508	
-0.397217	
-0.398315	
-0.397095	
-0.398254	
-0.396545	
-0.396851	
-0.396179	
-0.396729	
-0.395569	
-0.395813	
-0.395264	
-0.395996	
-0.396179	
-0.394958	
-0.396851	
-0.395935	
-0.395203	
	
