E:\DOCUMENTS AND SETTINGS\JPOTAS\MEUS DOCUMENTOS\UFRJ\RSCI-BM 12 WK SERIES\070723-RSCI-BM-06\RSCI-BM-06-LEMG\070723-RSCI-BM-LEMG-0013.ACQ
0.025000 msec/sample
1 channel
Analog input
Volts
CH1	
2000	
-0.39563	
-0.397034	
-0.397278	
-0.39624	
-0.396057	
-0.397095	
-0.395996	
-0.397034	
-0.398071	
-0.396729	
-0.396667	
-0.39563	
-0.396423	
-0.396362	
-0.395874	
-0.395264	
-0.396179	
-0.394775	
-0.396179	
-0.396484	
-0.395386	
-0.395447	
-0.394592	
-0.394897	
-0.395325	
-0.395142	
-0.395508	
-0.395325	
-0.394104	
-0.395447	
-0.396606	
-0.39502	
-0.394958	
-0.394958	
-0.39563	
-0.395813	
-0.39563	
-0.395752	
-0.395996	
-0.39502	
-0.396362	
-0.3974	
-0.395813	
-0.396057	
-0.395264	
-0.396179	
-0.396057	
-0.39386	
-0.394653	
-0.394714	
-0.394531	
-0.394531	
-0.394592	
-0.39386	
-0.393799	
-0.391907	
-0.393311	
-0.393127	
-0.392151	
-0.393066	
-0.392761	
-0.392273	
-0.392883	
-0.392578	
-0.392212	
-0.391968	
-0.390503	
-0.391907	
-0.392517	
-0.391907	
-0.392273	
-0.391846	
-0.391724	
-0.392944	
-0.392761	
-0.393127	
-0.39325	
-0.393005	
-0.39325	
-0.393311	
-0.392273	
-0.39325	
-0.393127	
-0.393127	
-0.394226	
-0.393494	
-0.393127	
-0.393616	
-0.393188	
-0.393127	
-0.394348	
-0.392822	
-0.394043	
-0.394287	
-0.39447	
-0.39447	
-0.394775	
-0.394836	
-0.394592	
-0.393799	
-0.394592	
-0.395508	
-0.39386	
-0.395264	
-0.395386	
-0.396118	
-0.396729	
-0.397156	
-0.397339	
-0.397705	
-0.397522	
-0.39801	
-0.398315	
-0.396912	
-0.398376	
-0.397705	
-0.3974	
-0.39917	
-0.399292	
-0.398438	
-0.398376	
-0.397461	
-0.397949	
-0.397888	
-0.3974	
-0.397949	
-0.397827	
-0.398315	
-0.398682	
-0.397766	
-0.397705	
-0.397278	
-0.395447	
-0.396545	
-0.398071	
-0.397461	
-0.397339	
-0.396484	
-0.396851	
-0.398071	
-0.397278	
-0.396729	
-0.397217	
-0.39624	
-0.396729	
-0.397095	
-0.396729	
-0.396484	
-0.396729	
-0.397156	
-0.397705	
-0.396851	
-0.39679	
-0.396667	
-0.39502	
-0.396057	
-0.395386	
-0.395386	
-0.395264	
-0.395081	
-0.395142	
-0.395386	
-0.395325	
-0.395264	
-0.395996	
-0.394287	
-0.395325	
-0.394836	
-0.394836	
-0.39502	
-0.394714	
-0.395874	
-0.395691	
-0.395813	
-0.395813	
-0.395996	
-0.395264	
-0.395996	
-0.395325	
-0.39624	
-0.396301	
-0.395447	
-0.39563	
-0.396057	
-0.39502	
-0.394897	
-0.394165	
-0.393738	
-0.393494	
-0.393066	
-0.393372	
-0.393433	
-0.393066	
-0.39325	
-0.393433	
-0.392761	
-0.392822	
-0.388367	
-0.388428	
-0.388733	
-0.388245	
-0.388672	
-0.389099	
-0.391724	
-0.392273	
-0.392334	
-0.391968	
-0.392273	
-0.390869	
-0.391968	
-0.392029	
-0.393127	
-0.392212	
-0.392334	
-0.393005	
-0.393066	
-0.393005	
-0.392944	
-0.393799	
-0.3927	
-0.393555	
-0.393066	
-0.393799	
-0.393738	
-0.394043	
-0.393494	
-0.394165	
-0.394592	
-0.394348	
-0.395386	
-0.393005	
-0.394714	
-0.394226	
-0.395508	
-0.395264	
-0.395264	
-0.394409	
-0.395203	
-0.39563	
-0.395386	
-0.396362	
-0.393433	
-0.395203	
-0.396118	
-0.398071	
-0.399048	
-0.399841	
-0.401428	
-0.405945	
-0.409607	
-0.411499	
-0.415955	
-0.41864	
-0.423767	
-0.429016	
-0.434692	
-0.439331	
-0.44458	
-0.449707	
-0.45636	
-0.461548	
-0.469238	
-0.475708	
-0.484924	
-0.495605	
-0.508179	
-0.520813	
-0.533142	
-0.544128	
-0.553772	
-0.562988	
-0.570068	
-0.577026	
-0.581665	
-0.586609	
-0.589783	
-0.593506	
-0.594299	
-0.594299	
-0.592102	
-0.592896	
-0.591431	
-0.589478	
-0.587219	
-0.584473	
-0.582458	
-0.581177	
-0.580322	
-0.579041	
-0.577271	
-0.575989	
-0.576416	
-0.574951	
-0.574158	
-0.571472	
-0.569214	
-0.568359	
-0.563782	
-0.561584	
-0.559326	
-0.558167	
-0.556152	
-0.554626	
-0.554443	
-0.553284	
-0.548462	
-0.545837	
-0.541626	
-0.538696	
-0.532898	
-0.5271	
-0.522156	
-0.515991	
-0.510193	
-0.503784	
-0.5	
-0.493103	
-0.489624	
-0.485046	
-0.483398	
-0.479858	
-0.476807	
-0.47467	
-0.472717	
-0.470703	
-0.468018	
-0.465576	
-0.461121	
-0.459351	
-0.456177	
-0.454529	
-0.450928	
-0.448914	
-0.445984	
-0.444336	
-0.442993	
-0.440552	
-0.43866	
-0.435486	
-0.433472	
-0.430481	
-0.429016	
-0.425354	
-0.422058	
-0.41748	
-0.414307	
-0.40918	
-0.404602	
-0.399841	
-0.394348	
-0.39032	
-0.385132	
-0.382813	
-0.377075	
-0.372131	
-0.366943	
-0.362183	
-0.356995	
-0.350586	
-0.343445	
-0.335815	
-0.330383	
-0.324402	
-0.321838	
-0.317627	
-0.315918	
-0.314453	
-0.317749	
-0.320251	
-0.324524	
-0.32782	
-0.334656	
-0.341614	
-0.350891	
-0.358704	
-0.36676	
-0.374695	
-0.383728	
-0.391052	
-0.398438	
-0.405212	
-0.409973	
-0.416199	
-0.421387	
-0.428406	
-0.433411	
-0.438354	
-0.442688	
-0.449158	
-0.45343	
-0.458618	
-0.461548	
-0.465393	
-0.467407	
-0.470947	
-0.471252	
-0.47113	
-0.470703	
-0.470459	
-0.469299	
-0.468201	
-0.467468	
-0.464783	
-0.463196	
-0.461548	
-0.46106	
-0.45813	
-0.455444	
-0.453491	
-0.452942	
-0.451843	
-0.451416	
-0.450684	
-0.449829	
-0.449646	
-0.449768	
-0.450134	
-0.449951	
-0.449829	
-0.44928	
-0.450256	
-0.448669	
-0.447937	
-0.444641	
-0.443054	
-0.439941	
-0.439148	
-0.436279	
-0.43396	
-0.431213	
-0.427856	
-0.426453	
-0.423157	
-0.420837	
-0.417175	
-0.415039	
-0.411499	
-0.411316	
-0.408875	
-0.405151	
-0.401001	
-0.397705	
-0.394348	
-0.387573	
-0.382751	
-0.374207	
-0.367249	
-0.358459	
-0.35083	
-0.340881	
-0.33075	
-0.320313	
-0.310791	
-0.302246	
-0.291016	
-0.282898	
-0.273743	
-0.266235	
-0.257813	
-0.253235	
-0.248413	
-0.244385	
-0.240234	
-0.238159	
-0.237488	
-0.236023	
-0.235718	
-0.235718	
-0.237671	
-0.240295	
-0.242859	
-0.244873	
-0.248047	
-0.251221	
-0.256104	
-0.259216	
-0.262939	
-0.265198	
-0.27002	
-0.273254	
-0.277954	
-0.281738	
-0.284729	
-0.287109	
-0.291748	
-0.294373	
-0.298462	
-0.2995	
-0.302734	
-0.30542	
-0.309387	
-0.310547	
-0.313171	
-0.31543	
-0.318481	
-0.322083	
-0.323608	
-0.32428	
-0.326172	
-0.327759	
-0.330627	
-0.331726	
-0.333557	
-0.334656	
-0.336243	
-0.338379	
-0.339294	
-0.339844	
-0.339661	
-0.341919	
-0.34375	
-0.345825	
-0.34668	
-0.348206	
-0.350098	
-0.353149	
-0.354797	
-0.355652	
-0.356628	
-0.358398	
-0.359497	
-0.361206	
-0.362549	
-0.363281	
-0.364685	
-0.365845	
-0.367554	
-0.367676	
-0.368164	
-0.367493	
-0.369934	
-0.370728	
-0.371338	
-0.372498	
-0.37207	
-0.373169	
-0.375305	
-0.375122	
-0.375427	
-0.374207	
-0.374329	
-0.374878	
-0.375244	
-0.375916	
-0.375366	
-0.376526	
-0.377136	
-0.377441	
-0.376526	
-0.376282	
-0.376221	
-0.37738	
-0.377075	
-0.377319	
-0.376099	
-0.376953	
-0.377686	
-0.378601	
-0.377075	
-0.377563	
-0.377014	
-0.377991	
-0.376465	
-0.377319	
-0.37738	
-0.377563	
-0.377747	
-0.377625	
-0.379639	
-0.377808	
-0.377747	
-0.375305	
-0.378784	
-0.378113	
-0.378235	
-0.378296	
-0.379028	
-0.378479	
-0.379456	
-0.378174	
-0.378174	
-0.376404	
-0.377502	
-0.376587	
-0.377747	
-0.37793	
-0.377808	
-0.378052	
-0.378967	
-0.37793	
-0.379272	
-0.377441	
-0.378113	
-0.378601	
-0.378601	
-0.37915	
-0.377319	
-0.37854	
-0.38031	
-0.380066	
-0.379822	
-0.37854	
-0.379883	
-0.381409	
-0.380737	
-0.380127	
-0.380127	
-0.381165	
-0.381836	
-0.382385	
-0.381775	
-0.380676	
-0.380554	
-0.38269	
-0.382141	
-0.381958	
-0.38208	
-0.382141	
-0.38324	
-0.384033	
-0.38269	
-0.382141	
-0.383057	
-0.384277	
-0.384399	
-0.384949	
-0.385315	
-0.38501	
-0.386414	
-0.387146	
-0.385986	
-0.386108	
-0.385742	
-0.387207	
-0.38739	
-0.388	
-0.388794	
-0.388794	
-0.389771	
-0.390991	
-0.389526	
-0.389771	
-0.388733	
-0.389404	
-0.388977	
-0.389404	
-0.388855	
-0.389221	
-0.388184	
-0.388977	
-0.388977	
-0.388123	
-0.387329	
-0.387512	
-0.387817	
-0.388	
-0.388489	
-0.387939	
-0.387939	
-0.389099	
-0.388916	
-0.388489	
-0.38916	
-0.388489	
-0.389099	
-0.38916	
-0.390137	
-0.389404	
-0.389587	
-0.389465	
-0.392273	
-0.390686	
-0.390747	
-0.390808	
-0.389771	
-0.390442	
-0.389954	
-0.389771	
-0.390076	
-0.390564	
-0.390869	
-0.390808	
-0.391296	
-0.389465	
-0.389587	
-0.389221	
-0.389404	
-0.388306	
-0.389221	
-0.389038	
-0.38855	
-0.39032	
-0.388977	
-0.389343	
-0.388245	
-0.389099	
-0.388184	
-0.388611	
-0.389709	
-0.389465	
-0.389221	
-0.388977	
-0.390259	
-0.390503	
-0.39032	
-0.390869	
-0.389893	
-0.390076	
-0.390503	
-0.390991	
-0.390869	
-0.39093	
-0.392761	
-0.39093	
-0.390564	
-0.389465	
-0.390076	
-0.388977	
-0.389404	
-0.390076	
-0.389282	
-0.389343	
-0.388672	
-0.388916	
-0.388977	
-0.388428	
-0.388977	
-0.388611	
-0.388184	
-0.387512	
-0.387695	
-0.388245	
-0.387085	
-0.388794	
-0.387756	
-0.387878	
-0.386658	
-0.38739	
-0.387268	
-0.387695	
-0.388977	
-0.388428	
-0.388672	
-0.388855	
-0.389587	
-0.390137	
-0.388489	
-0.389832	
-0.389038	
-0.389099	
-0.388489	
-0.389038	
-0.389282	
-0.389282	
-0.390747	
-0.389404	
-0.389709	
-0.38916	
-0.390076	
-0.390564	
-0.390076	
-0.390869	
-0.390137	
-0.390991	
-0.390381	
-0.391418	
-0.391541	
-0.390808	
-0.391235	
-0.390991	
-0.391968	
-0.391907	
-0.39209	
-0.392822	
-0.393127	
-0.395081	
-0.394348	
-0.394714	
-0.393738	
-0.394653	
-0.394653	
-0.39502	
-0.395508	
-0.394592	
-0.395203	
-0.394958	
-0.395508	
-0.39502	
-0.395081	
-0.393921	
-0.394653	
-0.394897	
-0.393738	
-0.395386	
-0.394287	
-0.393799	
-0.393799	
-0.395325	
-0.394653	
-0.394409	
-0.393066	
-0.393127	
-0.393921	
-0.39447	
-0.394165	
-0.393982	
-0.393921	
-0.394348	
-0.395142	
-0.394287	
-0.394409	
-0.393005	
-0.39386	
-0.393494	
-0.394104	
-0.393555	
-0.393677	
-0.393311	
-0.394348	
-0.39386	
-0.393494	
-0.392822	
-0.392639	
-0.392456	
-0.392761	
-0.393066	
-0.391663	
-0.391785	
-0.39093	
-0.392578	
-0.392578	
-0.392212	
-0.390503	
-0.391296	
-0.392212	
-0.391907	
-0.392639	
-0.391907	
-0.391602	
-0.39093	
-0.39386	
-0.3927	
-0.392456	
-0.39209	
-0.3927	
-0.39209	
-0.393066	
-0.3927	
-0.3927	
-0.391846	
-0.392822	
-0.392761	
-0.391724	
-0.391541	
-0.390076	
-0.390747	
-0.390686	
-0.391357	
-0.389954	
-0.390076	
-0.389709	
-0.391357	
-0.389587	
-0.390503	
-0.388733	
-0.38916	
-0.388489	
-0.388977	
-0.389832	
-0.389099	
-0.388855	
-0.388184	
-0.390076	
-0.389648	
-0.389587	
-0.38739	
-0.388733	
-0.38916	
-0.389832	
-0.389465	
-0.389709	
-0.39032	
-0.391052	
-0.391418	
-0.39032	
-0.390198	
-0.389771	
-0.390747	
-0.391296	
-0.391174	
-0.39093	
-0.391174	
-0.391174	
-0.392822	
-0.391602	
-0.391846	
-0.39093	
-0.391174	
-0.391724	
-0.391846	
-0.392822	
-0.392456	
-0.391968	
-0.392517	
-0.393433	
-0.391785	
-0.393005	
-0.391357	
-0.392578	
-0.392212	
-0.393616	
-0.394714	
-0.394104	
-0.394287	
-0.393921	
-0.395569	
-0.39502	
-0.394531	
-0.393066	
-0.394104	
-0.393799	
-0.395447	
-0.395203	
-0.394958	
-0.39563	
-0.395691	
-0.396362	
-0.395447	
-0.395569	
-0.394836	
-0.39563	
-0.396118	
-0.395508	
-0.395264	
-0.395935	
-0.395203	
-0.396606	
-0.396301	
-0.396057	
-0.394531	
-0.394531	
-0.395081	
-0.39502	
-0.39563	
-0.394287	
-0.394775	
-0.394897	
-0.396362	
-0.395508	
-0.395752	
-0.39325	
-0.393677	
-0.394043	
-0.394287	
-0.395508	
-0.393616	
-0.39325	
-0.392639	
-0.394226	
-0.392761	
-0.392883	
-0.391663	
-0.392273	
-0.391418	
-0.392334	
-0.391785	
-0.391968	
-0.391052	
-0.391663	
-0.392639	
-0.390869	
-0.389832	
-0.389709	
-0.390015	
-0.390442	
-0.390808	
-0.390381	
-0.390564	
-0.390442	
-0.391174	
-0.391418	
-0.391541	
-0.391052	
-0.389099	
-0.390503	
-0.390747	
-0.392334	
-0.391602	
-0.390991	
-0.390503	
-0.392761	
-0.391907	
-0.391968	
-0.389832	
-0.390442	
-0.390198	
-0.391479	
-0.391296	
-0.390991	
-0.391113	
-0.390869	
-0.391785	
-0.390869	
-0.390625	
-0.388916	
-0.389709	
-0.390869	
-0.391479	
-0.390625	
-0.39093	
-0.390808	
-0.391174	
-0.392456	
-0.391235	
-0.390137	
-0.390076	
-0.391357	
-0.391907	
-0.392151	
-0.391663	
-0.392517	
-0.391174	
-0.39325	
-0.392639	
-0.392761	
-0.392151	
-0.390991	
-0.391541	
-0.3927	
-0.3927	
-0.3927	
-0.392761	
-0.392273	
-0.393738	
-0.392883	
-0.392334	
-0.390808	
-0.390808	
-0.391296	
-0.392029	
-0.392029	
-0.390869	
-0.391113	
-0.391724	
-0.39325	
-0.392334	
-0.391846	
-0.390198	
-0.391785	
-0.3927	
-0.394043	
-0.393433	
-0.393555	
-0.392822	
-0.394165	
-0.39502	
-0.394409	
-0.393982	
-0.393311	
-0.393494	
-0.394714	
-0.395264	
-0.395325	
-0.395447	
-0.394287	
-0.395874	
-0.395996	
-0.394836	
-0.394775	
-0.394104	
-0.395081	
-0.395325	
-0.395203	
-0.394531	
-0.394653	
-0.394409	
-0.395874	
-0.394653	
-0.394043	
-0.393372	
-0.393372	
-0.393982	
-0.394409	
-0.394104	
-0.393433	
-0.393799	
-0.394165	
-0.395508	
-0.39447	
-0.393127	
-0.390625	
-0.392395	
-0.393616	
-0.39386	
-0.3927	
-0.392883	
-0.39209	
-0.392761	
-0.393921	
-0.392761	
-0.392273	
-0.390991	
-0.391235	
-0.39209	
-0.392456	
-0.39209	
-0.391724	
-0.390198	
-0.391052	
-0.391113	
-0.390442	
-0.389587	
-0.388977	
-0.389709	
-0.390015	
-0.389954	
-0.389709	
-0.389343	
-0.389709	
-0.391174	
-0.390198	
-0.389099	
-0.388123	
-0.38916	
-0.389343	
-0.390259	
-0.389282	
-0.389343	
-0.389832	
-0.389648	
-0.392456	
-0.39032	
-0.390076	
-0.388062	
-0.388794	
-0.390625	
-0.391174	
-0.390625	
-0.390137	
-0.389282	
-0.391357	
-0.391724	
-0.390198	
-0.389526	
-0.387512	
-0.390808	
-0.390747	
-0.390869	
-0.390442	
-0.390381	
-0.390564	
-0.391418	
-0.391052	
-0.390747	
-0.390625	
-0.390625	
-0.391113	
-0.392151	
-0.391968	
-0.392212	
-0.392212	
-0.392395	
-0.393494	
-0.393372	
-0.392273	
-0.391418	
-0.391541	
-0.392822	
-0.393433	
-0.392334	
-0.392456	
-0.392151	
-0.392456	
-0.394226	
-0.393066	
-0.391541	
-0.389526	
-0.390137	
-0.391113	
-0.391296	
-0.391418	
-0.391907	
-0.391357	
-0.3927	
-0.394836	
-0.393127	
-0.392517	
-0.389832	
-0.393555	
-0.393738	
-0.39386	
-0.393738	
-0.39447	
-0.394287	
-0.395142	
-0.395264	
-0.39447	
-0.39502	
-0.393677	
-0.395447	
-0.396484	
-0.396484	
-0.395569	
-0.395569	
-0.396545	
-0.397156	
-0.396423	
-0.395691	
-0.395569	
-0.39502	
-0.396057	
-0.396667	
-0.395874	
-0.395325	
-0.394226	
-0.395508	
-0.396729	
-0.395264	
-0.394714	
-0.393982	
-0.394043	
-0.39447	
-0.39447	
-0.394531	
-0.39386	
-0.392761	
-0.393982	
-0.396362	
-0.393433	
-0.392822	
-0.390808	
-0.392639	
-0.392578	
-0.3927	
-0.392639	
-0.392151	
-0.391968	
-0.392639	
-0.395264	
-0.392273	
-0.392273	
-0.39032	
-0.392761	
-0.392395	
-0.391907	
-0.391663	
-0.390442	
-0.390442	
-0.391418	
-0.39209	
-0.389648	
-0.390198	
-0.387512	
-0.389893	
-0.390137	
-0.389465	
-0.389343	
-0.388733	
-0.389221	
-0.390381	
-0.389221	
-0.388977	
-0.387512	
-0.38678	
-0.388794	
-0.38916	
-0.388611	
-0.388611	
-0.387878	
-0.389221	
-0.390564	
-0.388733	
-0.388733	
-0.387634	
-0.389343	
-0.389343	
-0.389954	
-0.389343	
-0.389099	
-0.388123	
-0.389893	
-0.391357	
-0.388733	
-0.388733	
-0.387329	
-0.389343	
-0.389465	
-0.389099	
-0.389587	
-0.389893	
-0.390503	
-0.390808	
-0.391907	
-0.390564	
-0.390137	
-0.389038	
-0.39093	
-0.391663	
-0.391174	
-0.391418	
-0.391907	
-0.392639	
-0.393616	
-0.394165	
-0.393677	
-0.393433	
-0.39209	
-0.393616	
-0.394226	
-0.393616	
-0.393555	
-0.393555	
-0.393433	
-0.395264	
-0.393677	
-0.392944	
-0.391174	
-0.391479	
-0.392761	
-0.393738	
-0.392029	
-0.391907	
-0.392212	
-0.393005	
-0.394348	
-0.392578	
-0.392639	
-0.39032	
-0.39209	
-0.3927	
-0.393738	
-0.392883	
-0.393066	
-0.392883	
-0.394165	
-0.394348	
-0.393738	
-0.393005	
-0.392273	
-0.393555	
-0.393616	
-0.394043	
-0.393555	
-0.392883	
-0.392517	
-0.393799	
-0.39502	
-0.393127	
-0.392639	
-0.392029	
-0.392517	
-0.392334	
-0.393188	
-0.392395	
-0.391846	
-0.390991	
-0.393677	
-0.393372	
-0.39209	
-0.391541	
-0.390808	
-0.39209	
-0.392517	
-0.392273	
-0.392029	
-0.392212	
-0.39093	
-0.39386	
-0.393311	
-0.392822	
-0.39209	
-0.390686	
-0.392761	
-0.3927	
-0.392639	
-0.392761	
-0.392944	
-0.392395	
-0.394592	
-0.393066	
-0.391968	
-0.389648	
-0.389893	
-0.391663	
-0.391052	
-0.391113	
-0.39032	
-0.390198	
-0.390564	
-0.390991	
-0.390198	
-0.389771	
-0.387817	
-0.388855	
-0.389099	
-0.389648	
-0.389099	
-0.389221	
-0.389282	
-0.389465	
-0.389587	
-0.389343	
-0.388184	
-0.388367	
-0.388855	
-0.388977	
-0.389771	
-0.389343	
-0.389832	
-0.389771	
-0.391541	
-0.391235	
-0.390015	
-0.390015	
-0.389709	
-0.390076	
-0.390381	
-0.390503	
-0.390442	
-0.390503	
-0.38916	
-0.392029	
-0.391968	
-0.390686	
-0.389709	
-0.390015	
-0.390991	
-0.391235	
-0.391113	
-0.391296	
-0.391724	
-0.391602	
-0.3927	
-0.392761	
-0.391724	
-0.389404	
-0.390869	
-0.392639	
-0.393127	
-0.392883	
-0.393433	
-0.393799	
-0.394775	
-0.39502	
-0.395569	
-0.394104	
-0.393921	
-0.394592	
-0.395447	
-0.39502	
-0.394714	
-0.395142	
-0.394775	
-0.396179	
-0.395325	
-0.395569	
-0.395203	
-0.394653	
-0.394104	
-0.395081	
-0.395447	
-0.393921	
-0.394531	
-0.394043	
-0.395691	
-0.394836	
-0.394165	
-0.393799	
-0.393494	
-0.392334	
-0.39386	
-0.394165	
-0.394409	
-0.393555	
-0.39325	
-0.395508	
-0.395386	
-0.393555	
-0.392395	
-0.393555	
-0.393127	
-0.394104	
-0.394043	
-0.393311	
-0.393372	
-0.393311	
-0.394409	
-0.394409	
-0.393066	
-0.391724	
-0.391846	
-0.392395	
-0.392578	
-0.392273	
-0.392395	
-0.391907	
-0.392639	
-0.392761	
-0.392944	
-0.392578	
-0.391479	
-0.391174	
-0.392639	
-0.392456	
-0.392151	
-0.392456	
-0.392395	
-0.393799	
-0.392761	
-0.39325	
-0.392883	
-0.393005	
-0.393494	
-0.393494	
-0.393799	
-0.392883	
-0.392639	
-0.392029	
-0.392944	
-0.392822	
-0.392029	
-0.390137	
-0.390869	
-0.39032	
-0.390442	
-0.391113	
-0.390198	
-0.390137	
-0.390259	
-0.390503	
-0.390442	
-0.390564	
-0.388367	
-0.388489	
-0.388611	
-0.389404	
-0.389893	
-0.389465	
-0.388855	
-0.389343	
-0.389648	
-0.389771	
-0.389709	
-0.388916	
-0.38855	
-0.388245	
-0.389771	
-0.390991	
-0.39032	
-0.390259	
-0.390625	
-0.391052	
-0.390686	
-0.390625	
-0.389587	
-0.390564	
-0.390869	
-0.391357	
-0.391296	
-0.391418	
-0.391724	
-0.391479	
-0.392639	
-0.392029	
-0.391724	
-0.391846	
-0.392334	
-0.392212	
-0.392456	
-0.392212	
-0.392822	
-0.392273	
-0.393005	
-0.393738	
-0.393555	
-0.3927	
-0.392273	
-0.393555	
-0.394043	
-0.394897	
-0.39502	
-0.394897	
-0.394775	
-0.396973	
-0.395142	
-0.395508	
-0.394226	
-0.395691	
-0.395142	
-0.394653	
-0.396118	
-0.39624	
-0.395325	
-0.395935	
-0.397949	
-0.396729	
-0.397217	
-0.394653	
-0.395935	
-0.395569	
-0.396057	
-0.396423	
-0.396057	
-0.396362	
-0.396301	
-0.396973	
-0.395935	
-0.395996	
-0.393372	
-0.395203	
-0.394531	
-0.39563	
-0.396362	
-0.395386	
-0.395508	
-0.396301	
-0.395813	
-0.39563	
-0.395203	
-0.393677	
-0.395142	
-0.394592	
-0.39447	
-0.394653	
-0.394287	
-0.393921	
-0.393677	
-0.393494	
-0.393738	
-0.392517	
-0.392273	
-0.392761	
-0.392944	
-0.392761	
-0.39209	
-0.391907	
-0.391357	
-0.392395	
-0.391174	
-0.391357	
-0.39032	
-0.391113	
-0.390991	
-0.390747	
-0.391357	
-0.390991	
-0.391174	
-0.391235	
-0.392761	
-0.391602	
-0.392395	
-0.389954	
-0.39209	
-0.391968	
-0.392029	
-0.392822	
-0.391968	
-0.391785	
-0.391724	
-0.393005	
-0.391846	
-0.3927	
-0.390808	
-0.39209	
-0.390747	
-0.391602	
-0.391907	
-0.391174	
-0.391602	
-0.391052	
-0.392639	
-0.391052	
-0.391235	
-0.390076	
-0.391174	
-0.390381	
-0.391724	
-0.391479	
-0.391174	
-0.391296	
-0.392029	
-0.392395	
-0.391663	
-0.391479	
-0.390137	
-0.391968	
-0.392273	
-0.393127	
-0.392944	
-0.392883	
-0.392944	
-0.393799	
-0.393433	
-0.393616	
-0.391968	
-0.392639	
-0.393372	
-0.393494	
-0.393799	
-0.393127	
-0.393127	
-0.392944	
-0.393311	
-0.392029	
-0.392578	
-0.39093	
-0.392334	
-0.391724	
-0.392029	
-0.392517	
-0.392151	
-0.392151	
-0.391785	
-0.393921	
-0.392578	
-0.393799	
-0.393616	
-0.39447	
-0.393921	
-0.394592	
-0.394714	
-0.394653	
-0.394287	
-0.395386	
-0.39679	
-0.395142	
-0.395813	
-0.395203	
-0.395752	
-0.396118	
-0.396301	
-0.396118	
-0.395813	
-0.39563	
-0.396912	
-0.397766	
-0.396484	
-0.396301	
-0.394836	
-0.395569	
-0.395142	
-0.396423	
-0.395386	
-0.395081	
-0.395264	
-0.396179	
-0.396301	
-0.394653	
-0.394226	
-0.394287	
-0.394897	
-0.393799	
-0.395935	
-0.39502	
-0.394775	
-0.39447	
-0.394531	
-0.394958	
-0.394653	
-0.393738	
-0.393188	
-0.393616	
-0.393555	
-0.394043	
-0.393799	
-0.393677	
-0.39325	
-0.393677	
-0.394775	
-0.393616	
-0.393127	
-0.392151	
-0.393066	
-0.392822	
-0.392395	
-0.392273	
-0.391724	
-0.391907	
-0.391418	
-0.391296	
-0.390564	
-0.390686	
-0.389587	
-0.390198	
-0.391418	
-0.39093	
-0.390686	
-0.390137	
-0.391235	
-0.390808	
-0.390259	
-0.390747	
-0.39032	
-0.390503	
-0.390259	
-0.391602	
-0.391052	
-0.390808	
-0.39093	
-0.391907	
-0.391602	
-0.391296	
-0.390747	
-0.391235	
-0.391235	
-0.390625	
-0.392456	
-0.391907	
-0.391479	
-0.390686	
-0.391907	
-0.392639	
-0.391785	
-0.390991	
-0.391174	
-0.391296	
-0.391357	
-0.392395	
-0.39209	
-0.391785	
-0.392334	
-0.393005	
-0.394348	
-0.39325	
-0.391846	
-0.392517	
-0.393677	
-0.393799	
-0.393433	
-0.393433	
-0.393372	
-0.393921	
-0.393677	
-0.394775	
-0.394836	
-0.393555	
-0.39209	
-0.393005	
-0.394592	
-0.393616	
-0.393799	
-0.393433	
-0.393372	
-0.393005	
-0.393188	
-0.392639	
-0.392578	
-0.390686	
-0.392395	
-0.39447	
-0.39386	
-0.393677	
-0.393555	
-0.394531	
-0.395508	
-0.395386	
-0.394958	
-0.39502	
-0.395386	
-0.396118	
-0.396118	
-0.395813	
-0.395996	
-0.395691	
-0.397034	
-0.397644	
-0.397217	
-0.396851	
-0.396729	
-0.396606	
-0.396912	
-0.397156	
-0.39679	
-0.396729	
-0.395996	
-0.397461	
-0.397522	
-0.397644	
-0.396362	
-0.395325	
-0.395874	
-0.396179	
-0.395996	
-0.395935	
-0.395447	
-0.395325	
-0.396729	
-0.396301	
-0.395813	
-0.394165	
-0.393372	
-0.393677	
-0.395142	
-0.394714	
-0.394653	
-0.394043	
-0.393982	
-0.394592	
-0.395142	
-0.39386	
-0.392639	
-0.392944	
-0.39325	
-0.394287	
-0.393921	
-0.393677	
-0.393066	
-0.393555	
-0.394409	
-0.394165	
-0.393555	
-0.393188	
-0.39209	
-0.392151	
-0.392883	
-0.392456	
-0.392151	
-0.391846	
-0.392456	
-0.392334	
-0.392334	
-0.390686	
-0.390259	
-0.389709	
-0.391052	
-0.391174	
-0.390991	
-0.390076	
-0.389343	
-0.390747	
-0.39093	
-0.391235	
-0.389648	
-0.389221	
-0.389221	
-0.390381	
-0.391052	
-0.39032	
-0.390686	
-0.390259	
-0.391541	
-0.391541	
-0.391541	
-0.389893	
-0.390625	
-0.389893	
-0.391174	
-0.391602	
-0.390625	
-0.390869	
-0.390015	
-0.392334	
-0.391418	
-0.39209	
-0.391235	
-0.39209	
-0.39093	
-0.392822	
-0.393494	
-0.393005	
-0.39325	
-0.3927	
-0.394287	
-0.394348	
-0.39386	
-0.392944	
-0.39447	
-0.394226	
-0.396118	
-0.395813	
-0.396423	
-0.396729	
-0.396179	
-0.397095	
-0.3974	
-0.39624	
-0.395264	
-0.396301	
-0.396423	
-0.396301	
-0.395996	
-0.395569	
-0.395508	
-0.396118	
-0.394836	
-0.396179	
-0.395081	
-0.394897	
-0.394592	
-0.395142	
-0.396118	
-0.395386	
-0.394897	
-0.394775	
-0.395935	
-0.395447	
-0.396484	
-0.394592	
-0.395325	
-0.394958	
	
