E:\DOCUMENTS AND SETTINGS\JPOTAS\MEUS DOCUMENTOS\UFRJ\RSCI-BM 12 WK SERIES\070723-RSCI-BM-06\RSCI-BM-06-LEMG\070723-RSCI-BM-LEMG-0016.ACQ
0.025000 msec/sample
1 channel
Analog input
Volts
CH1	
2000	
-0.395508	
-0.395081	
-0.39563	
-0.394958	
-0.396057	
-0.39563	
-0.39563	
-0.394653	
-0.396484	
-0.395569	
-0.395874	
-0.396545	
-0.395935	
-0.396667	
-0.39502	
-0.394409	
-0.394287	
-0.394592	
-0.394104	
-0.395569	
-0.395081	
-0.394897	
-0.395752	
-0.394958	
-0.395386	
-0.394165	
-0.394958	
-0.394714	
-0.396118	
-0.396484	
-0.39679	
-0.396667	
-0.397034	
-0.396545	
-0.396729	
-0.397339	
-0.39624	
-0.397339	
-0.396606	
-0.397522	
-0.39801	
-0.397339	
-0.39801	
-0.398376	
-0.397705	
-0.398254	
-0.398071	
-0.398071	
-0.39856	
-0.397156	
-0.398132	
-0.399109	
-0.398254	
-0.397827	
-0.398193	
-0.397705	
-0.398193	
-0.397095	
-0.396973	
-0.396973	
-0.397217	
-0.396484	
-0.3974	
-0.397034	
-0.397644	
-0.397827	
-0.397217	
-0.397217	
-0.395813	
-0.397278	
-0.397217	
-0.397095	
-0.395935	
-0.397644	
-0.396973	
-0.396606	
-0.39624	
-0.396729	
-0.397156	
-0.395874	
-0.396179	
-0.395874	
-0.396118	
-0.395691	
-0.396362	
-0.395996	
-0.396118	
-0.396118	
-0.396423	
-0.396667	
-0.395935	
-0.395935	
-0.395264	
-0.395752	
-0.395813	
-0.39624	
-0.396057	
-0.395569	
-0.396118	
-0.395691	
-0.395508	
-0.395508	
-0.394714	
-0.394043	
-0.393555	
-0.394043	
-0.393494	
-0.393127	
-0.39447	
-0.394531	
-0.39386	
-0.394165	
-0.394104	
-0.393433	
-0.391418	
-0.391846	
-0.39386	
-0.393188	
-0.393127	
-0.393372	
-0.394226	
-0.393616	
-0.392944	
-0.391846	
-0.392761	
-0.393066	
-0.392517	
-0.394104	
-0.393799	
-0.393311	
-0.393799	
-0.394409	
-0.393616	
-0.393616	
-0.393127	
-0.394348	
-0.394043	
-0.393921	
-0.394653	
-0.394653	
-0.394775	
-0.395508	
-0.395325	
-0.395874	
-0.395142	
-0.395996	
-0.39563	
-0.395325	
-0.39624	
-0.39624	
-0.396118	
-0.396118	
-0.398071	
-0.397217	
-0.39801	
-0.397217	
-0.397827	
-0.397095	
-0.397888	
-0.399414	
-0.398865	
-0.398315	
-0.399353	
-0.400085	
-0.399658	
-0.399048	
-0.397705	
-0.398804	
-0.397644	
-0.397766	
-0.399353	
-0.39856	
-0.398804	
-0.398743	
-0.398865	
-0.398499	
-0.399353	
-0.398193	
-0.398499	
-0.39801	
-0.398865	
-0.399231	
-0.398621	
-0.398926	
-0.39856	
-0.399536	
-0.39856	
-0.398804	
-0.397949	
-0.397644	
-0.397644	
-0.397888	
-0.398499	
-0.398438	
-0.39801	
-0.398254	
-0.398987	
-0.395447	
-0.394958	
-0.393921	
-0.394043	
-0.393799	
-0.394653	
-0.397461	
-0.397705	
-0.397156	
-0.398132	
-0.397217	
-0.396973	
-0.395996	
-0.394714	
-0.39502	
-0.394836	
-0.396912	
-0.39563	
-0.395569	
-0.395508	
-0.395874	
-0.395264	
-0.396301	
-0.394958	
-0.395203	
-0.395874	
-0.394958	
-0.397156	
-0.39624	
-0.396545	
-0.395813	
-0.395386	
-0.395508	
-0.396484	
-0.394653	
-0.394165	
-0.393921	
-0.393677	
-0.394409	
-0.394165	
-0.393677	
-0.393555	
-0.39447	
-0.393494	
-0.393555	
-0.392761	
-0.393066	
-0.392761	
-0.395142	
-0.395813	
-0.398071	
-0.400146	
-0.404419	
-0.407654	
-0.411194	
-0.414429	
-0.41803	
-0.42395	
-0.428711	
-0.433594	
-0.438416	
-0.444885	
-0.450317	
-0.45697	
-0.464355	
-0.472778	
-0.48114	
-0.49231	
-0.503967	
-0.518799	
-0.531006	
-0.541809	
-0.551453	
-0.561279	
-0.568298	
-0.575439	
-0.580566	
-0.584717	
-0.589539	
-0.591553	
-0.594055	
-0.595459	
-0.594849	
-0.594055	
-0.593384	
-0.591614	
-0.590393	
-0.588135	
-0.587219	
-0.58551	
-0.586182	
-0.584595	
-0.583923	
-0.583008	
-0.583618	
-0.582703	
-0.580261	
-0.579224	
-0.575806	
-0.575745	
-0.572021	
-0.571228	
-0.568726	
-0.566711	
-0.56366	
-0.562561	
-0.559753	
-0.558289	
-0.554688	
-0.552002	
-0.547913	
-0.542725	
-0.538147	
-0.532654	
-0.526672	
-0.520508	
-0.514648	
-0.50824	
-0.503723	
-0.497559	
-0.493164	
-0.488708	
-0.48645	
-0.482605	
-0.479797	
-0.477112	
-0.475342	
-0.473328	
-0.469604	
-0.468445	
-0.46405	
-0.46167	
-0.458557	
-0.456665	
-0.453003	
-0.450134	
-0.447571	
-0.446899	
-0.444336	
-0.442383	
-0.440125	
-0.43689	
-0.435303	
-0.430786	
-0.429138	
-0.426697	
-0.422424	
-0.418457	
-0.414246	
-0.40918	
-0.403931	
-0.39679	
-0.391113	
-0.385437	
-0.376587	
-0.370422	
-0.362488	
-0.354248	
-0.345337	
-0.336609	
-0.32666	
-0.315796	
-0.304993	
-0.294556	
-0.284607	
-0.274109	
-0.266113	
-0.258179	
-0.251587	
-0.247009	
-0.243591	
-0.23999	
-0.239075	
-0.238708	
-0.238708	
-0.239502	
-0.24176	
-0.243225	
-0.244629	
-0.247864	
-0.249817	
-0.252258	
-0.256287	
-0.259583	
-0.262939	
-0.267029	
-0.271118	
-0.276123	
-0.28064	
-0.285522	
-0.290894	
-0.296143	
-0.300476	
-0.305908	
-0.30957	
-0.313354	
-0.315552	
-0.319824	
-0.322449	
-0.325073	
-0.327393	
-0.329285	
-0.329651	
-0.331238	
-0.33197	
-0.333862	
-0.334534	
-0.33606	
-0.337585	
-0.336914	
-0.339539	
-0.340271	
-0.341003	
-0.342102	
-0.34259	
-0.343933	
-0.345154	
-0.346924	
-0.347534	
-0.348511	
-0.350647	
-0.351807	
-0.353394	
-0.35437	
-0.354919	
-0.356323	
-0.35791	
-0.359314	
-0.360535	
-0.361084	
-0.362854	
-0.364258	
-0.364746	
-0.365295	
-0.366211	
-0.366943	
-0.368408	
-0.368469	
-0.369141	
-0.369934	
-0.371887	
-0.372559	
-0.37384	
-0.372986	
-0.374207	
-0.372803	
-0.373779	
-0.372314	
-0.374023	
-0.374084	
-0.374695	
-0.375549	
-0.374634	
-0.374573	
-0.37561	
-0.374817	
-0.375183	
-0.373962	
-0.374817	
-0.375244	
-0.374573	
-0.375061	
-0.375183	
-0.375061	
-0.375244	
-0.374451	
-0.373352	
-0.374634	
-0.374207	
-0.375	
-0.374573	
-0.374695	
-0.374878	
-0.375427	
-0.374451	
-0.375061	
-0.374023	
-0.374146	
-0.373962	
-0.373901	
-0.37323	
-0.370056	
-0.371094	
-0.372009	
-0.372314	
-0.371948	
-0.37262	
-0.373901	
-0.374756	
-0.374207	
-0.373962	
-0.373657	
-0.37323	
-0.374146	
-0.373352	
-0.37323	
-0.373657	
-0.373718	
-0.373535	
-0.372803	
-0.373474	
-0.373535	
-0.374207	
-0.374329	
-0.374268	
-0.374878	
-0.374939	
-0.37439	
-0.374756	
-0.374573	
-0.375549	
-0.375061	
-0.374573	
-0.375916	
-0.375671	
-0.375793	
-0.376343	
-0.375916	
-0.375854	
-0.375366	
-0.376648	
-0.376526	
-0.375366	
-0.37677	
-0.376892	
-0.377747	
-0.379333	
-0.37854	
-0.379456	
-0.381836	
-0.385132	
-0.387695	
-0.390686	
-0.395996	
-0.401917	
-0.406616	
-0.41217	
-0.415955	
-0.420959	
-0.427429	
-0.433838	
-0.439514	
-0.444824	
-0.452881	
-0.461243	
-0.469482	
-0.479126	
-0.488525	
-0.500916	
-0.513062	
-0.52533	
-0.536194	
-0.544495	
-0.553101	
-0.56012	
-0.566345	
-0.569885	
-0.573242	
-0.574341	
-0.576294	
-0.576111	
-0.575989	
-0.574951	
-0.573181	
-0.573486	
-0.57251	
-0.570923	
-0.571106	
-0.570129	
-0.567383	
-0.566162	
-0.565369	
-0.564819	
-0.562683	
-0.561584	
-0.560303	
-0.558777	
-0.556519	
-0.555298	
-0.552368	
-0.551331	
-0.549805	
-0.548279	
-0.5448	
-0.540833	
-0.53833	
-0.533447	
-0.528809	
-0.522888	
-0.517151	
-0.509949	
-0.506775	
-0.501953	
-0.497681	
-0.493347	
-0.48999	
-0.486267	
-0.484314	
-0.480652	
-0.478455	
-0.47522	
-0.472595	
-0.469788	
-0.466492	
-0.463867	
-0.46051	
-0.458191	
-0.455811	
-0.454529	
-0.450989	
-0.448486	
-0.444946	
-0.443176	
-0.440308	
-0.436646	
-0.433105	
-0.42926	
-0.424866	
-0.420532	
-0.416077	
-0.4104	
-0.403015	
-0.395325	
-0.389526	
-0.380798	
-0.372375	
-0.363403	
-0.353821	
-0.344727	
-0.335754	
-0.324219	
-0.313965	
-0.302429	
-0.290405	
-0.280518	
-0.269897	
-0.260132	
-0.250916	
-0.243652	
-0.237915	
-0.233826	
-0.228699	
-0.225708	
-0.224915	
-0.223938	
-0.223267	
-0.222351	
-0.224365	
-0.226746	
-0.229309	
-0.2323	
-0.235779	
-0.240173	
-0.24408	
-0.247253	
-0.252136	
-0.258118	
-0.263123	
-0.268677	
-0.274048	
-0.279114	
-0.284241	
-0.290039	
-0.293457	
-0.296509	
-0.300354	
-0.304443	
-0.307983	
-0.311462	
-0.314209	
-0.316772	
-0.320068	
-0.322021	
-0.323853	
-0.325928	
-0.327454	
-0.330322	
-0.332153	
-0.333618	
-0.336304	
-0.338318	
-0.340332	
-0.342346	
-0.343384	
-0.344849	
-0.345825	
-0.347473	
-0.349182	
-0.350403	
-0.351929	
-0.35321	
-0.356018	
-0.355652	
-0.356873	
-0.357788	
-0.359436	
-0.360413	
-0.360901	
-0.363037	
-0.364197	
-0.365662	
-0.366821	
-0.367432	
-0.367981	
-0.36853	
-0.369568	
-0.368713	
-0.370056	
-0.370117	
-0.371399	
-0.372314	
-0.372925	
-0.373413	
-0.374207	
-0.374817	
-0.375061	
-0.374695	
-0.375366	
-0.375671	
-0.375854	
-0.376221	
-0.376953	
-0.377319	
-0.377136	
-0.376526	
-0.377563	
-0.376282	
-0.376892	
-0.37561	
-0.376831	
-0.377075	
-0.377258	
-0.377258	
-0.378418	
-0.378113	
-0.377258	
-0.377686	
-0.377258	
-0.377502	
-0.377563	
-0.377441	
-0.377991	
-0.379028	
-0.378052	
-0.377991	
-0.377563	
-0.378113	
-0.377563	
-0.377747	
-0.37677	
-0.377991	
-0.378296	
-0.378662	
-0.377625	
-0.378357	
-0.378479	
-0.379517	
-0.377563	
-0.377441	
-0.377075	
-0.378235	
-0.379028	
-0.380066	
-0.378845	
-0.3797	
-0.380127	
-0.379761	
-0.378357	
-0.378235	
-0.378357	
-0.378357	
-0.379333	
-0.379272	
-0.378845	
-0.379272	
-0.378784	
-0.379395	
-0.377991	
-0.377563	
-0.378052	
-0.378174	
-0.379211	
-0.379883	
-0.379028	
-0.379395	
-0.379517	
-0.379578	
-0.379395	
-0.378967	
-0.379211	
-0.378479	
-0.380127	
-0.380371	
-0.379578	
-0.379822	
-0.381104	
-0.380737	
-0.381104	
-0.380737	
-0.381165	
-0.380554	
-0.381104	
-0.381653	
-0.38208	
-0.382996	
-0.383179	
-0.382568	
-0.383362	
-0.382568	
-0.383606	
-0.383362	
-0.384033	
-0.384583	
-0.385193	
-0.384399	
-0.385986	
-0.384949	
-0.385437	
-0.38446	
-0.385254	
-0.385681	
-0.386108	
-0.386597	
-0.387634	
-0.386963	
-0.388245	
-0.389465	
-0.388733	
-0.38855	
-0.387085	
-0.388489	
-0.38855	
-0.390015	
-0.390381	
-0.390381	
-0.389343	
-0.39093	
-0.389038	
-0.390808	
-0.388611	
-0.389404	
-0.389343	
-0.39032	
-0.389771	
-0.389832	
-0.390076	
-0.390808	
-0.391296	
-0.390686	
-0.389893	
-0.389282	
-0.39093	
-0.390808	
-0.390503	
-0.390991	
-0.392029	
-0.391235	
-0.392395	
-0.390198	
-0.391479	
-0.388733	
-0.390808	
-0.389954	
-0.390991	
-0.39093	
-0.391785	
-0.391174	
-0.391907	
-0.391357	
-0.391724	
-0.390503	
-0.389526	
-0.390259	
-0.390442	
-0.390564	
-0.39032	
-0.390869	
-0.390015	
-0.390564	
-0.388916	
-0.389893	
-0.388977	
-0.389587	
-0.389648	
-0.390137	
-0.39032	
-0.390686	
-0.389832	
-0.391357	
-0.389954	
-0.390137	
-0.389709	
-0.39032	
-0.390625	
-0.391296	
-0.391174	
-0.391113	
-0.390808	
-0.391724	
-0.39093	
-0.390869	
-0.388672	
-0.388123	
-0.388123	
-0.389099	
-0.389343	
-0.389221	
-0.389282	
-0.389893	
-0.389893	
-0.388855	
-0.387939	
-0.387451	
-0.387451	
-0.387878	
-0.388123	
-0.388489	
-0.388611	
-0.388245	
-0.388855	
-0.387451	
-0.387268	
-0.386536	
-0.38739	
-0.387878	
-0.387573	
-0.387451	
-0.388245	
-0.388062	
-0.388428	
-0.388306	
-0.388	
-0.387146	
-0.387939	
-0.388794	
-0.388367	
-0.389221	
-0.389587	
-0.389893	
-0.390503	
-0.390564	
-0.388794	
-0.389404	
-0.389221	
-0.390686	
-0.390991	
-0.39032	
-0.391113	
-0.391846	
-0.391846	
-0.393372	
-0.393677	
-0.392761	
-0.391846	
-0.392151	
-0.393738	
-0.394348	
-0.393555	
-0.393677	
-0.394348	
-0.395386	
-0.395142	
-0.393677	
-0.393188	
-0.391907	
-0.393921	
-0.394104	
-0.393433	
-0.393005	
-0.393433	
-0.393921	
-0.394287	
-0.392883	
-0.392517	
-0.392517	
-0.392578	
-0.393188	
-0.393066	
-0.392761	
-0.393494	
-0.394165	
-0.393738	
-0.393555	
-0.392395	
-0.3927	
-0.391785	
-0.392578	
-0.392883	
-0.392578	
-0.392334	
-0.392456	
-0.392517	
-0.393738	
-0.39325	
-0.392517	
-0.391296	
-0.391235	
-0.392517	
-0.392456	
-0.3927	
-0.392578	
-0.392944	
-0.392639	
-0.392883	
-0.391296	
-0.391663	
-0.390808	
-0.392151	
-0.392151	
-0.391296	
-0.391418	
-0.391724	
-0.392395	
-0.393005	
-0.392639	
-0.391907	
-0.391052	
-0.390625	
-0.391907	
-0.392395	
-0.392456	
-0.392761	
-0.393982	
-0.392761	
-0.394104	
-0.392273	
-0.392578	
-0.391235	
-0.392639	
-0.392395	
-0.392273	
-0.391418	
-0.391418	
-0.391113	
-0.392212	
-0.391113	
-0.390808	
-0.389404	
-0.389465	
-0.390381	
-0.390442	
-0.390076	
-0.389648	
-0.390503	
-0.390015	
-0.391174	
-0.388733	
-0.38855	
-0.388428	
-0.389282	
-0.389282	
-0.388916	
-0.388916	
-0.389282	
-0.389709	
-0.390564	
-0.388977	
-0.389465	
-0.389038	
-0.390015	
-0.389893	
-0.390564	
-0.390442	
-0.390381	
-0.39093	
-0.391724	
-0.391968	
-0.389404	
-0.389648	
-0.389282	
-0.390259	
-0.390198	
-0.390503	
-0.390381	
-0.390564	
-0.391113	
-0.391418	
-0.391113	
-0.389954	
-0.390503	
-0.389587	
-0.390869	
-0.391052	
-0.391602	
-0.391052	
-0.391418	
-0.392151	
-0.392883	
-0.391724	
-0.391479	
-0.390869	
-0.392029	
-0.391846	
-0.391846	
-0.392334	
-0.392273	
-0.393799	
-0.393127	
-0.393494	
-0.391357	
-0.390808	
-0.39032	
-0.392639	
-0.392822	
-0.393005	
-0.392761	
-0.394104	
-0.394531	
-0.395325	
-0.394104	
-0.393982	
-0.393066	
-0.393799	
-0.394348	
-0.39386	
-0.393982	
-0.394165	
-0.394897	
-0.395325	
-0.395996	
-0.39447	
-0.393555	
-0.393372	
-0.39447	
-0.39386	
-0.394775	
-0.394775	
-0.394653	
-0.39502	
-0.395203	
-0.395386	
-0.393066	
-0.393311	
-0.392029	
-0.394348	
-0.394104	
-0.393738	
-0.39386	
-0.393982	
-0.394165	
-0.394226	
-0.393188	
-0.392334	
-0.391357	
-0.392822	
-0.392029	
-0.391968	
-0.392395	
-0.392456	
-0.392944	
-0.392212	
-0.392822	
-0.390381	
-0.390259	
-0.390137	
-0.391235	
-0.390564	
-0.390869	
-0.390625	
-0.390137	
-0.389954	
-0.390869	
-0.389954	
-0.38916	
-0.388733	
-0.388733	
-0.388672	
-0.388916	
-0.389221	
-0.388855	
-0.389587	
-0.390686	
-0.390686	
-0.388306	
-0.38855	
-0.387878	
-0.38916	
-0.389648	
-0.389526	
-0.389038	
-0.388977	
-0.388794	
-0.389648	
-0.389343	
-0.388062	
-0.387512	
-0.388855	
-0.388977	
-0.389221	
-0.388672	
-0.389221	
-0.390259	
-0.389648	
-0.389709	
-0.389587	
-0.389709	
-0.388672	
-0.388489	
-0.389404	
-0.389343	
-0.389465	
-0.390137	
-0.389771	
-0.390503	
-0.390015	
-0.390381	
-0.390015	
-0.390015	
-0.390259	
-0.390747	
-0.391235	
-0.391602	
-0.392578	
-0.392029	
-0.393127	
-0.392456	
-0.392639	
-0.390015	
-0.391968	
-0.392944	
-0.392883	
-0.392517	
-0.393005	
-0.392883	
-0.392944	
-0.393188	
-0.391968	
-0.390869	
-0.390686	
-0.391663	
-0.391785	
-0.391968	
-0.3927	
-0.39386	
-0.394043	
-0.394714	
-0.393494	
-0.394165	
-0.393494	
-0.39447	
-0.3927	
-0.394043	
-0.394836	
-0.395081	
-0.395813	
-0.394958	
-0.396973	
-0.394287	
-0.395386	
-0.393005	
-0.395325	
-0.39563	
-0.396423	
-0.396057	
-0.395935	
-0.396301	
-0.396606	
-0.396423	
-0.396973	
-0.396423	
-0.395996	
-0.39624	
-0.396362	
-0.396118	
-0.395813	
-0.396057	
-0.395691	
-0.396851	
-0.394836	
-0.395996	
-0.394409	
-0.394592	
-0.394287	
-0.394714	
-0.394531	
-0.394897	
-0.394348	
-0.394531	
-0.395569	
-0.393433	
-0.394043	
-0.390686	
-0.393127	
-0.392456	
-0.392334	
-0.391602	
-0.392029	
-0.391663	
-0.392029	
-0.391174	
-0.391541	
-0.390808	
-0.39093	
-0.390625	
-0.391296	
-0.391235	
-0.390991	
-0.392395	
-0.391785	
-0.394287	
-0.390991	
-0.3927	
-0.390869	
-0.392273	
-0.391479	
-0.391602	
-0.392151	
-0.392334	
-0.392517	
-0.39209	
-0.393127	
-0.391357	
-0.391846	
-0.389404	
-0.392273	
-0.391602	
-0.391907	
-0.39209	
-0.392517	
-0.392273	
-0.393372	
-0.392639	
-0.393433	
-0.392395	
-0.392822	
-0.392456	
-0.393005	
-0.392944	
-0.3927	
-0.393555	
-0.392883	
-0.39563	
-0.3927	
-0.393555	
-0.391724	
-0.393127	
-0.392761	
-0.394165	
-0.393433	
-0.394043	
-0.39386	
-0.394104	
-0.39502	
-0.392944	
-0.393921	
-0.392578	
-0.394043	
-0.392761	
-0.394348	
-0.39386	
-0.393616	
-0.39386	
-0.394104	
-0.393372	
-0.393494	
-0.392395	
-0.391479	
-0.392944	
-0.393311	
-0.392395	
-0.393127	
-0.393738	
-0.393188	
-0.394836	
-0.393738	
-0.394897	
-0.3927	
-0.394226	
-0.394165	
-0.394775	
-0.394592	
-0.395203	
-0.395691	
-0.396179	
-0.396179	
-0.395935	
-0.396484	
-0.395569	
-0.396057	
-0.395508	
-0.396423	
-0.396545	
-0.397644	
-0.396423	
-0.397522	
-0.397095	
-0.3974	
-0.396057	
-0.395203	
-0.396729	
-0.395996	
-0.395935	
-0.395935	
-0.39679	
-0.395874	
-0.396667	
-0.394104	
-0.395691	
-0.393494	
-0.395203	
-0.394897	
-0.395203	
-0.395996	
-0.395813	
-0.395447	
-0.395508	
-0.395752	
-0.395508	
-0.39563	
-0.394409	
-0.394653	
-0.394592	
-0.395081	
-0.395081	
-0.395569	
-0.394531	
-0.395691	
-0.395325	
-0.394409	
-0.393799	
-0.393494	
-0.393738	
-0.393005	
-0.394348	
-0.39386	
-0.394592	
-0.394226	
-0.39502	
-0.393188	
-0.39325	
-0.392395	
-0.39325	
-0.393982	
-0.393555	
-0.393433	
-0.393066	
-0.393372	
-0.393738	
-0.392029	
-0.391907	
-0.392761	
-0.391479	
-0.391479	
-0.391174	
-0.391296	
-0.39093	
-0.391785	
-0.391785	
-0.392517	
-0.391663	
-0.391174	
-0.390991	
-0.390564	
-0.390686	
-0.390198	
-0.390625	
-0.390869	
-0.391785	
-0.391113	
-0.39209	
-0.391479	
-0.390808	
-0.389954	
-0.389771	
-0.39093	
-0.390076	
-0.391174	
-0.391479	
-0.391418	
-0.39209	
-0.391846	
-0.39093	
-0.391235	
-0.391602	
-0.391663	
-0.392029	
-0.39209	
-0.392578	
-0.393127	
-0.393433	
-0.393188	
-0.392822	
-0.392944	
-0.393555	
-0.393372	
-0.393372	
-0.393127	
-0.393494	
-0.393799	
-0.394836	
-0.39502	
-0.395325	
-0.395752	
-0.395325	
-0.395386	
-0.394836	
-0.395996	
-0.394836	
-0.396301	
-0.396301	
-0.397217	
-0.396912	
-0.396667	
-0.395325	
-0.395386	
-0.395813	
-0.395264	
-0.395508	
-0.396057	
-0.396057	
-0.395691	
-0.395508	
-0.396362	
-0.396606	
-0.395264	
-0.396179	
-0.396179	
-0.396179	
-0.395996	
-0.395874	
-0.395691	
-0.395996	
-0.397095	
-0.396606	
-0.395691	
-0.394653	
-0.395447	
-0.39447	
-0.395142	
-0.393982	
-0.395325	
-0.395447	
-0.395569	
-0.395264	
-0.395081	
-0.393677	
-0.394714	
-0.394531	
-0.394043	
-0.393799	
-0.394531	
-0.393616	
-0.393799	
-0.394531	
-0.393738	
-0.393066	
-0.392822	
-0.393433	
-0.392517	
-0.393127	
-0.392822	
-0.393066	
-0.392944	
-0.393555	
-0.393555	
-0.393921	
-0.393372	
-0.39209	
-0.392944	
-0.392395	
-0.393616	
-0.392456	
-0.393188	
-0.393921	
-0.394714	
-0.393372	
-0.392578	
-0.391296	
-0.391479	
-0.390869	
-0.390259	
-0.391174	
-0.391174	
-0.390869	
-0.39093	
-0.391174	
-0.390869	
-0.390015	
-0.390076	
-0.390381	
-0.389832	
-0.389526	
-0.38916	
-0.389709	
-0.389404	
-0.389526	
-0.389282	
-0.390076	
-0.38916	
-0.387695	
-0.389709	
-0.388794	
-0.389343	
-0.388184	
-0.38855	
-0.38916	
-0.389893	
-0.389404	
-0.390137	
-0.389099	
-0.389832	
-0.388855	
-0.388794	
-0.390015	
-0.390076	
-0.390381	
-0.390442	
-0.391724	
-0.390869	
-0.390381	
-0.389954	
-0.391602	
-0.391235	
-0.390442	
-0.391724	
-0.392334	
-0.392578	
-0.393494	
-0.393433	
-0.394226	
-0.393921	
-0.39386	
-0.394775	
-0.393799	
-0.394287	
-0.393677	
-0.394653	
-0.394836	
-0.39624	
-0.394836	
-0.394714	
-0.393799	
-0.393982	
-0.393066	
-0.393677	
-0.393616	
-0.392273	
-0.393555	
-0.393433	
-0.394104	
-0.393555	
-0.393433	
-0.393372	
-0.393494	
-0.393005	
-0.392761	
-0.392944	
-0.393066	
-0.392944	
-0.394043	
-0.393005	
-0.393494	
-0.392822	
-0.392944	
-0.393127	
-0.392578	
-0.391724	
-0.392151	
-0.3927	
-0.392395	
-0.393738	
-0.392456	
-0.39325	
-0.391846	
-0.392334	
-0.391968	
-0.392334	
-0.392456	
-0.391235	
-0.392334	
-0.392761	
-0.392456	
-0.39209	
-0.391907	
-0.391052	
-0.392334	
-0.391846	
-0.390869	
-0.391418	
-0.391235	
-0.391296	
-0.392151	
-0.391846	
-0.392456	
-0.391541	
-0.3927	
-0.392456	
-0.3927	
-0.391541	
-0.392334	
-0.39209	
-0.392456	
-0.394226	
-0.392761	
-0.393188	
-0.392395	
-0.392761	
-0.392151	
-0.390991	
-0.391052	
-0.390808	
-0.390564	
-0.390564	
-0.391724	
-0.390686	
-0.390503	
-0.389771	
-0.389648	
-0.389771	
-0.389343	
-0.389404	
-0.388977	
-0.389282	
-0.390015	
-0.389526	
-0.389282	
-0.388489	
-0.389221	
-0.388794	
-0.388672	
-0.387634	
-0.388672	
-0.388855	
-0.389648	
-0.390625	
-0.389893	
-0.390442	
-0.389526	
-0.390015	
-0.390503	
-0.390137	
-0.39032	
-0.389648	
-0.390869	
-0.390808	
-0.391052	
-0.390137	
-0.390259	
-0.389954	
-0.390564	
-0.39093	
-0.389709	
-0.39032	
-0.390503	
-0.391052	
-0.391296	
-0.391052	
-0.391663	
-0.391113	
-0.391724	
-0.391113	
-0.391296	
-0.389893	
-0.391113	
-0.392395	
-0.392151	
-0.393433	
-0.391907	
-0.393372	
-0.391113	
-0.392273	
-0.393066	
-0.392517	
-0.391846	
-0.39209	
-0.392822	
-0.3927	
-0.393616	
-0.393066	
-0.393066	
-0.392395	
-0.393555	
-0.393311	
-0.393433	
-0.393616	
-0.393372	
-0.39447	
-0.395203	
-0.395142	
-0.394775	
-0.394714	
-0.394592	
-0.394409	
-0.39447	
-0.394348	
-0.394958	
-0.395386	
-0.394958	
-0.395874	
-0.394958	
-0.395569	
-0.394836	
-0.396057	
-0.395142	
-0.395386	
-0.394409	
-0.394958	
-0.394897	
-0.395081	
-0.395813	
-0.394775	
-0.39563	
-0.393677	
-0.394653	
-0.394348	
-0.394897	
-0.393555	
-0.392212	
-0.393799	
-0.394409	
-0.394409	
-0.393799	
-0.393372	
-0.391724	
-0.393433	
-0.393616	
-0.392944	
-0.392151	
-0.39209	
-0.392944	
-0.393188	
-0.392273	
-0.392944	
-0.391907	
-0.391907	
-0.391602	
-0.391296	
-0.390564	
-0.390747	
-0.390869	
-0.390259	
-0.391724	
-0.390991	
-0.391296	
-0.389771	
-0.390991	
-0.390747	
-0.390564	
-0.390381	
-0.390625	
-0.390808	
-0.390442	
-0.391418	
-0.390991	
-0.390808	
-0.390015	
-0.39093	
-0.390076	
-0.390564	
-0.389343	
-0.388794	
-0.389771	
-0.39093	
-0.390381	
-0.390686	
-0.390381	
-0.39032	
-0.391235	
-0.390869	
-0.390625	
-0.390808	
-0.390991	
-0.391174	
-0.392273	
-0.391052	
-0.392029	
-0.390564	
-0.391724	
-0.39093	
-0.391663	
-0.391052	
-0.391418	
-0.391541	
-0.392334	
-0.393555	
-0.392395	
-0.392151	
-0.391602	
-0.393921	
-0.394043	
-0.393555	
-0.393372	
-0.393555	
-0.394592	
-0.394287	
-0.394043	
-0.394409	
-0.394104	
-0.394226	
-0.394592	
-0.394653	
-0.394348	
-0.393311	
-0.392822	
-0.393066	
-0.39386	
-0.393433	
-0.394348	
-0.393555	
-0.394714	
-0.393921	
-0.395691	
-0.394958	
-0.394653	
-0.394897	
-0.395752	
-0.397217	
-0.396423	
-0.396057	
-0.394958	
-0.396606	
-0.396851	
-0.396729	
-0.396545	
-0.396667	
-0.397034	
-0.397339	
-0.398132	
-0.398071	
-0.397766	
-0.397278	
-0.398376	
-0.398804	
-0.398376	
-0.397644	
-0.397461	
-0.397766	
-0.398438	
-0.398621	
-0.398438	
-0.397339	
-0.397461	
-0.397888	
-0.397461	
-0.396301	
-0.395874	
-0.396179	
-0.396851	
-0.397644	
-0.396362	
-0.396667	
-0.395752	
-0.396362	
-0.395447	
-0.396057	
-0.395813	
-0.395142	
-0.39563	
-0.395691	
-0.396545	
-0.394958	
-0.393799	
-0.392212	
-0.393982	
-0.39325	
-0.39325	
-0.392456	
-0.392578	
-0.393005	
-0.393738	
-0.393799	
-0.393616	
-0.392456	
-0.391296	
-0.393677	
-0.393555	
-0.39325	
-0.392944	
-0.392517	
-0.394043	
-0.394836	
-0.393799	
-0.394653	
-0.393799	
-0.394226	
-0.393799	
-0.39386	
-0.39325	
-0.393799	
-0.393799	
-0.393677	
-0.395142	
-0.394775	
-0.39563	
-0.393799	
-0.394287	
-0.393738	
-0.394714	
-0.394226	
-0.394653	
-0.394775	
-0.394897	
-0.396362	
-0.395508	
-0.394714	
-0.393311	
-0.395386	
-0.395142	
-0.394836	
-0.394287	
-0.394287	
-0.394836	
-0.39563	
	
