E:\DOCUMENTS AND SETTINGS\JPOTAS\MEUS DOCUMENTOS\UFRJ\RSCI-BM 12 WK SERIES\070723-RSCI-BM-06\RSCI-BM-06-LEMG\070723-RSCI-BM-LEMG-0008.ACQ
0.025000 msec/sample
1 channel
Analog input
Volts
CH1	
2000	
-0.39502	
-0.394836	
-0.394897	
-0.394043	
-0.394287	
-0.393494	
-0.394592	
-0.394226	
-0.393311	
-0.394165	
-0.394287	
-0.394714	
-0.394897	
-0.395752	
-0.394531	
-0.394836	
-0.395142	
-0.394592	
-0.394714	
-0.394165	
-0.394653	
-0.39447	
-0.396057	
-0.395874	
-0.396606	
-0.395386	
-0.395325	
-0.396606	
-0.395935	
-0.396301	
-0.396667	
-0.396179	
-0.394836	
-0.397034	
-0.396118	
-0.396423	
-0.396362	
-0.394592	
-0.395752	
-0.394714	
-0.396606	
-0.395752	
-0.39624	
-0.395203	
-0.395325	
-0.396179	
-0.395447	
-0.395691	
-0.393982	
-0.394104	
-0.392822	
-0.394165	
-0.393066	
-0.393555	
-0.393616	
-0.393555	
-0.395264	
-0.394348	
-0.394531	
-0.39325	
-0.39386	
-0.393616	
-0.394409	
-0.39386	
-0.393066	
-0.393677	
-0.394165	
-0.394897	
-0.394592	
-0.394775	
-0.394043	
-0.393982	
-0.393127	
-0.394348	
-0.392883	
-0.392151	
-0.393311	
-0.393433	
-0.393127	
-0.393311	
-0.394714	
-0.392639	
-0.393188	
-0.392578	
-0.393311	
-0.393005	
-0.392029	
-0.392822	
-0.391968	
-0.393799	
-0.393982	
-0.39502	
-0.393127	
-0.392273	
-0.39386	
-0.39386	
-0.394226	
-0.393677	
-0.394165	
-0.393616	
-0.394531	
-0.394226	
-0.395081	
-0.393372	
-0.392761	
-0.39325	
-0.393982	
-0.394836	
-0.393127	
-0.392456	
-0.392029	
-0.393127	
-0.39447	
-0.394531	
-0.393066	
-0.392456	
-0.393188	
-0.392456	
-0.393372	
-0.392273	
-0.391724	
-0.393005	
-0.394287	
-0.393738	
-0.394653	
-0.394165	
-0.393982	
-0.393372	
-0.392944	
-0.394226	
-0.393372	
-0.393311	
-0.394104	
-0.394043	
-0.394409	
-0.395935	
-0.394714	
-0.394165	
-0.393982	
-0.393921	
-0.395203	
-0.394653	
-0.394653	
-0.393738	
-0.394287	
-0.394958	
-0.395325	
-0.394714	
-0.39386	
-0.393555	
-0.39386	
-0.395325	
-0.393616	
-0.393799	
-0.394348	
-0.393921	
-0.394409	
-0.39447	
-0.394592	
-0.39386	
-0.392578	
-0.393616	
-0.395081	
-0.394165	
-0.39447	
-0.394836	
-0.395081	
-0.395264	
-0.396057	
-0.396545	
-0.395752	
-0.394653	
-0.395142	
-0.397034	
-0.395874	
-0.395569	
-0.395935	
-0.396484	
-0.396057	
-0.397522	
-0.397034	
-0.396667	
-0.396057	
-0.395386	
-0.396362	
-0.395569	
-0.395874	
-0.394958	
-0.395081	
-0.395325	
-0.396179	
-0.395813	
-0.395386	
-0.39502	
-0.393555	
-0.39563	
-0.395935	
-0.391052	
-0.389343	
-0.389282	
-0.391663	
-0.391724	
-0.39209	
-0.395081	
-0.395325	
-0.39386	
-0.394836	
-0.395569	
-0.393372	
-0.392883	
-0.393311	
-0.39325	
-0.393799	
-0.39386	
-0.393738	
-0.393311	
-0.392944	
-0.393982	
-0.39502	
-0.394043	
-0.394348	
-0.394958	
-0.394836	
-0.395325	
-0.39624	
-0.395874	
-0.395203	
-0.394531	
-0.395752	
-0.396423	
-0.396423	
-0.396057	
-0.395996	
-0.396179	
-0.396362	
-0.398499	
-0.3974	
-0.393005	
-0.391663	
-0.392639	
-0.392822	
-0.392456	
-0.391602	
-0.396057	
-0.39801	
-0.398621	
-0.401062	
-0.401855	
-0.403015	
-0.405701	
-0.40979	
-0.41333	
-0.41687	
-0.420898	
-0.426025	
-0.431641	
-0.436707	
-0.442383	
-0.446655	
-0.45105	
-0.454773	
-0.464478	
-0.470825	
-0.477966	
-0.486877	
-0.498291	
-0.512573	
-0.526001	
-0.536926	
-0.547913	
-0.555542	
-0.562622	
-0.570679	
-0.57605	
-0.580688	
-0.585449	
-0.588989	
-0.590515	
-0.591187	
-0.589966	
-0.58844	
-0.586243	
-0.583191	
-0.580994	
-0.580322	
-0.577332	
-0.5755	
-0.574097	
-0.572937	
-0.572388	
-0.571045	
-0.570007	
-0.568237	
-0.566345	
-0.564636	
-0.564453	
-0.562927	
-0.560425	
-0.55957	
-0.5578	
-0.557373	
-0.555054	
-0.553162	
-0.550476	
-0.547241	
-0.545227	
-0.543274	
-0.539978	
-0.535278	
-0.531799	
-0.526855	
-0.52179	
-0.515808	
-0.510437	
-0.505188	
-0.500732	
-0.496643	
-0.493225	
-0.489685	
-0.485779	
-0.484436	
-0.482544	
-0.481262	
-0.479309	
-0.477478	
-0.475708	
-0.47345	
-0.470886	
-0.469116	
-0.467285	
-0.464783	
-0.463623	
-0.462769	
-0.461792	
-0.459839	
-0.45874	
-0.45752	
-0.456299	
-0.456116	
-0.455933	
-0.455627	
-0.453918	
-0.453674	
-0.453064	
-0.451111	
-0.448486	
-0.446411	
-0.442688	
-0.437317	
-0.434509	
-0.431396	
-0.426575	
-0.420166	
-0.415466	
-0.40918	
-0.402832	
-0.394775	
-0.386169	
-0.375671	
-0.364258	
-0.354919	
-0.343384	
-0.331604	
-0.320618	
-0.310974	
-0.303467	
-0.295959	
-0.290894	
-0.286194	
-0.28186	
-0.279114	
-0.279297	
-0.278931	
-0.278198	
-0.279236	
-0.27948	
-0.281433	
-0.282959	
-0.285034	
-0.286316	
-0.287964	
-0.290039	
-0.291565	
-0.295227	
-0.297913	
-0.299683	
-0.30365	
-0.306824	
-0.311035	
-0.313782	
-0.316467	
-0.320374	
-0.325195	
-0.328735	
-0.332153	
-0.335999	
-0.340149	
-0.344238	
-0.347961	
-0.352295	
-0.355408	
-0.358398	
-0.36084	
-0.366272	
-0.369568	
-0.372009	
-0.374329	
-0.375854	
-0.37915	
-0.38147	
-0.382263	
-0.382629	
-0.383606	
-0.383545	
-0.383972	
-0.385925	
-0.385254	
-0.385315	
-0.38562	
-0.385071	
-0.386292	
-0.385193	
-0.384583	
-0.383179	
-0.384583	
-0.385498	
-0.384399	
-0.383667	
-0.383484	
-0.383972	
-0.383606	
-0.383667	
-0.383118	
-0.381897	
-0.380737	
-0.381531	
-0.382324	
-0.380859	
-0.37854	
-0.378052	
-0.377258	
-0.37616	
-0.373352	
-0.370056	
-0.367004	
-0.363892	
-0.362549	
-0.358459	
-0.355286	
-0.352722	
-0.349487	
-0.348389	
-0.348083	
-0.346436	
-0.345581	
-0.345764	
-0.345703	
-0.346741	
-0.347656	
-0.349548	
-0.351746	
-0.352478	
-0.354675	
-0.358032	
-0.358887	
-0.360535	
-0.361206	
-0.364075	
-0.367615	
-0.369507	
-0.370544	
-0.372559	
-0.374634	
-0.376587	
-0.378418	
-0.379883	
-0.381165	
-0.382263	
-0.384766	
-0.386292	
-0.387695	
-0.386902	
-0.388428	
-0.390076	
-0.391296	
-0.392395	
-0.392273	
-0.3927	
-0.393616	
-0.394714	
-0.395386	
-0.395691	
-0.395813	
-0.394714	
-0.396667	
-0.39801	
-0.39679	
-0.396851	
-0.395325	
-0.398193	
-0.398804	
-0.397949	
-0.398193	
-0.398376	
-0.399109	
-0.400146	
-0.400146	
-0.400513	
-0.40033	
-0.400696	
-0.401672	
-0.403503	
-0.402588	
-0.402832	
-0.403198	
-0.40509	
-0.407104	
-0.406372	
-0.407043	
-0.407166	
-0.410583	
-0.411133	
-0.41095	
-0.411316	
-0.412659	
-0.41394	
-0.415039	
-0.414673	
-0.414856	
-0.414063	
-0.415588	
-0.416199	
-0.416321	
-0.415833	
-0.416321	
-0.41449	
-0.416321	
-0.417053	
-0.415771	
-0.415527	
-0.414246	
-0.416992	
-0.416504	
-0.416077	
-0.415649	
-0.416504	
-0.41626	
-0.416565	
-0.417053	
-0.416016	
-0.415222	
-0.415771	
-0.415466	
-0.414917	
-0.414429	
-0.412476	
-0.412598	
-0.412598	
-0.412476	
-0.4104	
-0.408752	
-0.407288	
-0.407593	
-0.406494	
-0.404968	
-0.403931	
-0.40271	
-0.401062	
-0.402283	
-0.400391	
-0.398865	
-0.3974	
-0.394836	
-0.395569	
-0.393433	
-0.3927	
-0.390686	
-0.389526	
-0.387512	
-0.388672	
-0.387085	
-0.38562	
-0.382935	
-0.382202	
-0.383057	
-0.38147	
-0.379639	
-0.377075	
-0.376892	
-0.375	
-0.375366	
-0.373413	
-0.371948	
-0.369446	
-0.368958	
-0.370239	
-0.368835	
-0.368713	
-0.367371	
-0.367188	
-0.367554	
-0.36792	
-0.367004	
-0.367004	
-0.366516	
-0.367798	
-0.369202	
-0.368713	
-0.369873	
-0.3703	
-0.370056	
-0.370728	
-0.37207	
-0.372131	
-0.372803	
-0.372192	
-0.373962	
-0.375244	
-0.375	
-0.37561	
-0.375732	
-0.37677	
-0.377563	
-0.379211	
-0.379456	
-0.3797	
-0.380432	
-0.38208	
-0.382813	
-0.383301	
-0.383118	
-0.382935	
-0.383667	
-0.384521	
-0.386414	
-0.385742	
-0.385742	
-0.385437	
-0.38623	
-0.387634	
-0.387451	
-0.386963	
-0.386536	
-0.387024	
-0.388	
-0.389282	
-0.388184	
-0.388123	
-0.388306	
-0.388306	
-0.389893	
-0.390137	
-0.388611	
-0.388428	
-0.389282	
-0.389771	
-0.389709	
-0.388733	
-0.387939	
-0.387817	
-0.387085	
-0.388306	
-0.388672	
-0.387146	
-0.386658	
-0.387573	
-0.387939	
-0.387939	
-0.386292	
-0.386292	
-0.385925	
-0.386108	
-0.387024	
-0.387573	
-0.386841	
-0.385376	
-0.386597	
-0.38739	
-0.388245	
-0.387268	
-0.38678	
-0.38678	
-0.38739	
-0.388123	
-0.388428	
-0.388306	
-0.386719	
-0.387756	
-0.389404	
-0.389404	
-0.388733	
-0.387756	
-0.388489	
-0.389038	
-0.390198	
-0.390015	
-0.390137	
-0.389526	
-0.390076	
-0.391418	
-0.391235	
-0.390137	
-0.389282	
-0.388977	
-0.390137	
-0.391113	
-0.390625	
-0.391052	
-0.390381	
-0.390503	
-0.391174	
-0.391418	
-0.390686	
-0.388672	
-0.389404	
-0.390076	
-0.39032	
-0.389709	
-0.389221	
-0.389038	
-0.389648	
-0.390442	
-0.390381	
-0.389648	
-0.389282	
-0.390137	
-0.390442	
-0.390259	
-0.391479	
-0.390686	
-0.390564	
-0.390381	
-0.391418	
-0.391663	
-0.39093	
-0.390137	
-0.390625	
-0.390747	
-0.390259	
-0.391663	
-0.390198	
-0.390747	
-0.390137	
-0.391235	
-0.391113	
-0.390137	
-0.388916	
-0.38916	
-0.390869	
-0.390442	
-0.391052	
-0.389465	
-0.390259	
-0.39093	
-0.390503	
-0.39032	
-0.389771	
-0.390442	
-0.389954	
-0.392578	
-0.391235	
-0.390686	
-0.391174	
-0.391235	
-0.392639	
-0.391541	
-0.391113	
-0.390015	
-0.391418	
-0.390869	
-0.391907	
-0.391418	
-0.391296	
-0.391724	
-0.391357	
-0.391968	
-0.391235	
-0.391174	
-0.389526	
-0.39093	
-0.390381	
-0.391907	
-0.391479	
-0.391052	
-0.390869	
-0.390442	
-0.391479	
-0.391663	
-0.391174	
-0.390015	
-0.392029	
-0.391785	
-0.392761	
-0.393188	
-0.391663	
-0.391785	
-0.391785	
-0.392822	
-0.392944	
-0.392273	
-0.390442	
-0.392212	
-0.392029	
-0.393127	
-0.394104	
-0.393127	
-0.392761	
-0.392883	
-0.393677	
-0.39325	
-0.393066	
-0.391174	
-0.392395	
-0.392944	
-0.393494	
-0.394226	
-0.392883	
-0.39209	
-0.392761	
-0.394287	
-0.392822	
-0.392151	
-0.391052	
-0.392151	
-0.392578	
-0.393494	
-0.392822	
-0.392273	
-0.393066	
-0.393188	
-0.394714	
-0.393555	
-0.393188	
-0.392212	
-0.393372	
-0.393799	
-0.394592	
-0.394775	
-0.39447	
-0.394409	
-0.393677	
-0.39563	
-0.395569	
-0.394592	
-0.394104	
-0.394958	
-0.395142	
-0.396606	
-0.395935	
-0.395142	
-0.394836	
-0.394531	
-0.395691	
-0.395203	
-0.394287	
-0.393188	
-0.393433	
-0.394043	
-0.395264	
-0.394287	
-0.393433	
-0.393677	
-0.393982	
-0.393982	
-0.394226	
-0.392639	
-0.392761	
-0.392578	
-0.39386	
-0.394958	
-0.393616	
-0.393555	
-0.393433	
-0.393799	
-0.393005	
-0.392517	
-0.391724	
-0.391846	
-0.391479	
-0.391968	
-0.392822	
-0.392395	
-0.392212	
-0.391846	
-0.393494	
-0.393127	
-0.393433	
-0.392761	
-0.392944	
-0.393677	
-0.394653	
-0.394226	
-0.393799	
-0.394531	
-0.393921	
-0.395325	
-0.395264	
-0.394409	
-0.393372	
-0.394104	
-0.393616	
-0.395081	
-0.395081	
-0.394287	
-0.394897	
-0.393738	
-0.395996	
-0.395386	
-0.394958	
-0.393616	
-0.394653	
-0.392639	
-0.394775	
-0.396484	
-0.395325	
-0.39502	
-0.393738	
-0.395386	
-0.394714	
-0.395142	
-0.394226	
-0.394836	
-0.393738	
-0.39502	
-0.396484	
-0.394409	
-0.394287	
-0.394897	
-0.395264	
-0.394409	
-0.395203	
-0.39325	
-0.393982	
-0.393738	
-0.39386	
-0.395142	
-0.393677	
-0.393616	
-0.393799	
-0.393799	
-0.392761	
-0.393555	
-0.391846	
-0.393127	
-0.392761	
-0.393188	
-0.394409	
-0.393066	
-0.392944	
-0.392822	
-0.394226	
-0.393311	
-0.394775	
-0.392517	
-0.393311	
-0.393982	
-0.393433	
-0.394226	
-0.393738	
-0.393433	
-0.393372	
-0.394897	
-0.394287	
-0.394653	
-0.393494	
-0.393372	
-0.392883	
-0.393494	
-0.394531	
-0.394165	
-0.393433	
-0.393127	
-0.394958	
-0.394043	
-0.394531	
-0.39325	
-0.39325	
-0.393127	
-0.394531	
-0.394653	
-0.39386	
-0.393982	
-0.393921	
-0.394897	
-0.393921	
-0.394287	
-0.393616	
-0.393738	
-0.393799	
-0.394836	
-0.395325	
-0.394226	
-0.395203	
-0.39563	
-0.395691	
-0.394897	
-0.396118	
-0.394531	
-0.395813	
-0.395264	
-0.395752	
-0.39624	
-0.395874	
-0.396362	
-0.395752	
-0.396179	
-0.395813	
-0.396606	
-0.394348	
-0.39563	
-0.39502	
-0.395447	
-0.396179	
-0.395142	
-0.395508	
-0.395874	
-0.395325	
-0.395569	
-0.395935	
-0.394348	
-0.394958	
-0.39447	
-0.394836	
-0.39563	
-0.394897	
-0.394348	
-0.395447	
-0.394653	
-0.394348	
-0.395142	
-0.392822	
-0.39386	
-0.393799	
-0.394043	
-0.394714	
-0.394592	
-0.393738	
-0.394592	
-0.39502	
-0.394409	
-0.394592	
-0.393372	
-0.394104	
-0.393555	
-0.394653	
-0.395874	
-0.395569	
-0.395813	
-0.396423	
-0.396729	
-0.39624	
-0.396912	
-0.396606	
-0.39679	
-0.395325	
-0.396729	
-0.396606	
-0.396423	
-0.396301	
-0.396362	
-0.395569	
-0.395752	
-0.396057	
-0.395996	
-0.396545	
-0.394165	
-0.395569	
-0.395874	
-0.396301	
-0.395752	
-0.395081	
-0.395752	
-0.396118	
-0.396484	
-0.395752	
-0.396118	
-0.395081	
-0.396912	
-0.397217	
-0.396729	
-0.396057	
-0.396118	
-0.396606	
-0.397217	
-0.397583	
-0.396545	
-0.397644	
-0.3974	
-0.397583	
-0.3974	
-0.397278	
-0.396729	
-0.396912	
-0.397461	
-0.396973	
-0.397034	
-0.395081	
-0.396729	
-0.396545	
-0.395691	
-0.396057	
-0.396118	
-0.395691	
-0.396851	
-0.397583	
-0.396729	
-0.397034	
-0.395325	
-0.397217	
-0.396484	
-0.397278	
-0.397949	
-0.398682	
-0.397278	
-0.397705	
-0.398865	
-0.398071	
-0.398254	
-0.396179	
-0.397705	
-0.397278	
-0.397095	
-0.39679	
-0.397217	
-0.396423	
-0.396851	
-0.397217	
-0.396179	
-0.397034	
-0.395203	
-0.395264	
-0.395508	
-0.396301	
-0.396484	
-0.396545	
-0.395508	
-0.395142	
-0.396667	
-0.395752	
-0.396423	
-0.394348	
-0.394836	
-0.395203	
-0.395874	
-0.395874	
-0.396667	
-0.395447	
-0.395325	
-0.396423	
-0.395752	
-0.395874	
-0.395081	
-0.396423	
-0.395142	
-0.395874	
-0.396301	
-0.396973	
-0.395996	
-0.395935	
-0.396851	
-0.395935	
-0.395813	
-0.395081	
-0.396118	
-0.394592	
-0.394714	
-0.395386	
-0.395447	
-0.394531	
-0.394104	
-0.394043	
-0.394165	
-0.394775	
-0.392944	
-0.394104	
-0.393372	
-0.393372	
-0.393982	
-0.394348	
-0.393738	
-0.393433	
-0.393127	
-0.393433	
-0.393799	
-0.393127	
-0.394226	
-0.394043	
-0.393616	
-0.394836	
-0.395386	
-0.393982	
-0.394348	
-0.394287	
-0.394226	
-0.395325	
-0.393494	
-0.394592	
-0.395264	
-0.393921	
-0.395142	
-0.396362	
-0.395142	
-0.39502	
-0.395508	
-0.395386	
-0.395752	
-0.395325	
-0.395508	
-0.396912	
-0.395142	
-0.395996	
-0.397339	
-0.39624	
-0.396118	
-0.396912	
-0.395996	
-0.396301	
-0.396179	
-0.395203	
-0.395508	
-0.393738	
-0.394775	
-0.396057	
-0.394409	
-0.393677	
-0.394226	
-0.393982	
-0.39386	
-0.394897	
-0.393494	
-0.392822	
-0.392639	
-0.392822	
-0.393982	
-0.392578	
-0.393066	
-0.393188	
-0.393677	
-0.39325	
-0.393188	
-0.39325	
-0.392883	
-0.393066	
-0.392639	
-0.394165	
-0.392883	
-0.393188	
-0.393799	
-0.393311	
-0.392761	
-0.392883	
-0.393433	
-0.392761	
-0.392639	
-0.392883	
-0.394409	
-0.39325	
-0.392944	
-0.393677	
-0.39325	
-0.393433	
-0.393372	
-0.393738	
-0.393433	
-0.393494	
-0.394531	
-0.395386	
-0.393738	
-0.394226	
-0.394592	
-0.394287	
-0.395142	
-0.395569	
-0.395508	
-0.39502	
-0.395142	
-0.395813	
-0.39679	
-0.395203	
-0.395508	
-0.395203	
-0.394714	
-0.395752	
-0.39502	
-0.394592	
-0.394226	
-0.393494	
-0.393921	
-0.395874	
-0.394348	
-0.393738	
-0.394104	
-0.393616	
-0.394043	
-0.394409	
-0.393066	
-0.394653	
-0.393982	
-0.394104	
-0.39502	
-0.393555	
-0.393372	
-0.394226	
-0.393494	
-0.393494	
-0.39447	
-0.393311	
-0.394226	
-0.39386	
-0.393616	
-0.394653	
-0.393799	
-0.393677	
-0.39386	
-0.393005	
-0.393616	
-0.394531	
-0.392212	
-0.39447	
-0.393494	
-0.393738	
-0.394226	
-0.393738	
-0.392944	
-0.3927	
-0.392334	
-0.392761	
-0.392761	
-0.390686	
-0.392456	
-0.39209	
-0.391968	
-0.392456	
-0.3927	
-0.391602	
-0.391602	
-0.391846	
-0.391846	
-0.391418	
-0.389954	
-0.391846	
-0.391357	
-0.391785	
-0.391968	
-0.392212	
-0.392029	
-0.392029	
-0.391846	
-0.392517	
-0.392273	
-0.391174	
-0.392517	
-0.392029	
-0.392517	
-0.3927	
-0.39325	
-0.3927	
-0.3927	
-0.391602	
-0.39325	
-0.393372	
-0.39209	
-0.393677	
-0.393982	
-0.3927	
-0.394104	
-0.394348	
-0.393127	
-0.393494	
-0.391968	
-0.393066	
-0.393433	
-0.391418	
-0.39325	
-0.393311	
-0.392883	
-0.393555	
-0.394287	
-0.392944	
-0.392883	
-0.391418	
-0.391296	
-0.391663	
-0.389343	
-0.390808	
-0.39093	
-0.390137	
-0.391174	
-0.392395	
-0.390564	
-0.391174	
-0.39209	
-0.391541	
-0.391357	
-0.390198	
-0.391602	
-0.391357	
-0.390137	
-0.391418	
-0.392517	
-0.391602	
-0.391541	
-0.392761	
-0.391174	
-0.390869	
-0.390808	
-0.390686	
-0.390991	
-0.390076	
-0.391418	
-0.392029	
-0.391235	
-0.390686	
-0.391296	
-0.389893	
-0.39032	
-0.390442	
-0.389893	
-0.390198	
-0.389893	
-0.390564	
-0.391296	
-0.391052	
-0.390808	
-0.391479	
-0.390625	
-0.390686	
-0.390747	
-0.39093	
-0.391418	
-0.391113	
-0.391907	
-0.392578	
-0.391663	
-0.39093	
-0.392029	
-0.391357	
-0.39093	
-0.392029	
-0.391418	
-0.39093	
-0.390442	
-0.390503	
-0.391174	
-0.390198	
-0.391357	
-0.391174	
-0.389954	
-0.390015	
-0.390381	
-0.390137	
-0.390259	
-0.389893	
-0.390503	
-0.391357	
-0.39032	
-0.390991	
-0.391479	
-0.390015	
-0.391174	
-0.391785	
-0.391541	
-0.391113	
-0.39032	
-0.391296	
-0.392029	
-0.391418	
-0.392151	
-0.392334	
-0.39032	
-0.391907	
-0.391663	
-0.39209	
-0.392273	
-0.391357	
-0.391663	
-0.393188	
-0.391968	
-0.391663	
-0.392151	
-0.390503	
-0.392456	
-0.391724	
-0.391479	
-0.391846	
-0.391052	
-0.391602	
-0.392639	
-0.391785	
-0.391663	
-0.392517	
-0.390503	
-0.391174	
-0.391602	
-0.391724	
-0.392273	
-0.391541	
-0.392212	
-0.393677	
-0.392822	
-0.392761	
-0.394348	
-0.392273	
-0.3927	
-0.394043	
-0.393005	
-0.392944	
-0.39325	
-0.393616	
-0.394104	
-0.394897	
-0.393677	
-0.394897	
-0.393799	
-0.393799	
-0.394592	
-0.393494	
-0.393372	
-0.393677	
-0.393311	
-0.393188	
-0.393982	
-0.393188	
-0.393555	
-0.392578	
-0.3927	
-0.392761	
-0.392822	
-0.392578	
-0.39209	
-0.392029	
-0.392578	
-0.392761	
-0.392517	
-0.3927	
-0.39209	
-0.392761	
-0.392456	
-0.392334	
-0.391846	
-0.391602	
-0.391602	
-0.392212	
-0.391052	
-0.391113	
-0.391846	
-0.39093	
-0.390381	
-0.390869	
-0.391418	
-0.391724	
-0.391907	
-0.391968	
-0.392395	
-0.39209	
-0.392822	
-0.393433	
-0.392334	
-0.392456	
-0.3927	
-0.392517	
-0.39386	
-0.393311	
-0.393372	
-0.394165	
-0.394531	
-0.394531	
-0.394348	
-0.392822	
-0.393188	
-0.393433	
-0.3927	
-0.394165	
-0.39386	
-0.393738	
-0.394348	
-0.394409	
-0.394165	
-0.394348	
-0.393433	
-0.392822	
-0.394348	
-0.39386	
-0.393982	
-0.393616	
-0.393616	
-0.394104	
-0.394226	
-0.394226	
-0.395081	
-0.39325	
-0.393188	
-0.394043	
-0.393433	
-0.39386	
-0.392883	
-0.392029	
-0.393738	
-0.394226	
-0.394165	
-0.394165	
-0.392883	
-0.392822	
-0.392761	
-0.393311	
-0.392639	
-0.391724	
-0.391174	
-0.391724	
-0.392761	
-0.393372	
-0.393188	
-0.391602	
-0.391846	
-0.392395	
-0.39209	
-0.392578	
-0.39325	
-0.392578	
-0.393005	
-0.39386	
-0.394287	
-0.39386	
-0.393066	
-0.392822	
-0.393066	
-0.393311	
-0.392578	
-0.392395	
-0.392944	
-0.39386	
-0.393372	
-0.394226	
-0.393738	
-0.392761	
-0.392883	
-0.392761	
-0.393066	
-0.393066	
-0.393005	
-0.392883	
-0.394226	
-0.39386	
-0.393555	
-0.394409	
-0.392883	
-0.392639	
-0.391602	
-0.393616	
-0.39325	
-0.39325	
-0.3927	
-0.393616	
-0.39386	
-0.393921	
-0.394836	
-0.393982	
-0.393921	
-0.392212	
-0.395203	
-0.394653	
-0.394714	
-0.395081	
-0.395508	
-0.395874	
-0.395142	
-0.396423	
-0.395813	
-0.395142	
-0.393127	
-0.395325	
-0.39563	
-0.396301	
-0.395203	
-0.395081	
-0.396606	
-0.39563	
-0.395508	
-0.396057	
-0.394958	
-0.393311	
-0.394836	
-0.394897	
-0.394836	
-0.394592	
-0.393127	
-0.395935	
-0.394775	
-0.39502	
-0.395264	
-0.39447	
-0.392944	
-0.394226	
-0.394592	
-0.39386	
-0.39447	
-0.393372	
-0.394104	
-0.393555	
-0.394958	
-0.394653	
-0.393738	
-0.392883	
-0.393982	
-0.395142	
-0.393982	
-0.394226	
-0.393005	
-0.394287	
-0.39447	
-0.395508	
-0.394775	
-0.394775	
-0.394104	
-0.395447	
-0.397278	
-0.396362	
-0.395935	
-0.396423	
-0.397095	
-0.39801	
-0.397583	
-0.396118	
-0.395874	
-0.395325	
-0.395813	
-0.396484	
-0.395569	
-0.396423	
-0.395752	
-0.395569	
-0.395996	
-0.39679	
-0.39563	
-0.395508	
-0.39502	
-0.395996	
-0.396301	
-0.395813	
-0.395752	
-0.396057	
-0.395752	
-0.396118	
-0.39801	
-0.396973	
-0.39624	
-0.395752	
-0.396667	
-0.396606	
-0.396973	
-0.397278	
-0.396667	
-0.397278	
-0.397949	
-0.398743	
-0.397095	
-0.396667	
-0.396484	
-0.396851	
-0.39563	
-0.397034	
-0.39679	
-0.396423	
-0.396301	
-0.396851	
-0.397644	
-0.396423	
-0.394958	
-0.39502	
-0.395691	
-0.395569	
-0.397034	
-0.397339	
-0.397034	
-0.397217	
-0.397827	
-0.398499	
-0.397217	
-0.396606	
-0.397156	
-0.39856	
-0.397522	
-0.397522	
-0.397827	
-0.397949	
-0.3974	
-0.39856	
-0.398865	
-0.397339	
-0.395996	
-0.396057	
-0.396484	
-0.396118	
-0.395874	
-0.396484	
-0.396729	
-0.395264	
-0.397156	
-0.39679	
-0.396057	
-0.395752	
-0.395813	
-0.39563	
-0.395325	
-0.39679	
-0.395874	
-0.395935	
-0.394714	
-0.39624	
-0.396545	
-0.395935	
-0.395996	
-0.395447	
-0.395752	
-0.394958	
-0.396545	
-0.395752	
-0.39563	
-0.39563	
-0.396912	
-0.396912	
-0.396484	
-0.39679	
-0.395996	
-0.396606	
-0.395203	
-0.397034	
-0.396301	
-0.395874	
-0.395386	
-0.396057	
-0.396301	
-0.395142	
-0.395325	
-0.394348	
-0.39502	
-0.394287	
-0.395325	
-0.394409	
-0.394226	
-0.393738	
-0.394226	
-0.39447	
-0.393921	
-0.394043	
-0.3927	
-0.393921	
-0.392334	
-0.393921	
-0.393921	
-0.394165	
-0.393738	
-0.394348	
-0.394897	
-0.394653	
-0.395081	
-0.393188	
-0.392883	
-0.393311	
-0.395691	
-0.39563	
-0.394348	
-0.394958	
-0.39563	
-0.395813	
-0.395752	
-0.395874	
-0.393982	
-0.393616	
-0.395386	
-0.396118	
-0.395813	
-0.395752	
-0.396301	
-0.396179	
-0.396667	
-0.396973	
-0.397278	
-0.395508	
-0.394714	
-0.396667	
-0.396851	
-0.396851	
-0.397217	
-0.396606	
-0.395203	
-0.396057	
-0.396301	
-0.395996	
-0.394104	
-0.392822	
-0.393982	
-0.39447	
-0.394409	
-0.394531	
-0.394043	
-0.393066	
-0.394775	
-0.395203	
-0.394348	
-0.392639	
-0.392273	
-0.393494	
-0.393921	
-0.393799	
-0.394104	
-0.393555	
-0.392944	
-0.395081	
-0.39502	
-0.394409	
-0.393494	
-0.392151	
-0.39325	
-0.394348	
-0.394165	
-0.393677	
-0.393372	
-0.392456	
-0.394653	
-0.395752	
-0.394592	
-0.393066	
-0.392883	
-0.39325	
-0.393982	
-0.393982	
-0.394287	
-0.394348	
-0.393188	
-0.395569	
-0.396301	
-0.394653	
-0.394104	
-0.394897	
-0.395264	
-0.395386	
-0.39563	
-0.395874	
-0.395752	
-0.394775	
-0.397034	
-0.397339	
-0.396423	
-0.396118	
-0.396362	
-0.396606	
-0.395325	
-0.396362	
-0.396179	
-0.39624	
-0.394226	
-0.395386	
-0.395203	
-0.395386	
-0.394897	
-0.393921	
-0.394897	
-0.394104	
-0.396423	
-0.39447	
-0.394653	
-0.393677	
-0.394775	
-0.396118	
-0.395325	
-0.395447	
-0.393494	
-0.395203	
-0.394531	
-0.395752	
-0.394592	
-0.39447	
-0.394348	
-0.39502	
-0.396423	
-0.395142	
-0.395569	
-0.394165	
-0.39447	
-0.394409	
-0.395386	
-0.39502	
-0.394714	
-0.394287	
-0.394653	
-0.396179	
-0.394592	
-0.395569	
-0.393555	
-0.393066	
-0.393188	
-0.394409	
-0.393982	
-0.39325	
-0.392761	
-0.393433	
-0.394775	
-0.393005	
-0.393799	
	
