E:\DOCUMENTS AND SETTINGS\JPOTAS\MEUS DOCUMENTOS\UFRJ\RSCI-BM 12 WK SERIES\070723-RSCI-BM-06\RSCI-BM-06-LEMG\070723-RSCI-BM-LEMG-0017.ACQ
0.025000 msec/sample
1 channel
Analog input
Volts
CH1	
2000	
-0.394958	
-0.395569	
-0.39563	
-0.395386	
-0.395874	
-0.395691	
-0.395264	
-0.393555	
-0.393616	
-0.394653	
-0.394653	
-0.393982	
-0.394043	
-0.393311	
-0.393677	
-0.39447	
-0.393127	
-0.392517	
-0.39209	
-0.392212	
-0.392395	
-0.393066	
-0.3927	
-0.392639	
-0.392395	
-0.393555	
-0.394592	
-0.393066	
-0.392822	
-0.391846	
-0.393066	
-0.393738	
-0.394043	
-0.393555	
-0.393066	
-0.391846	
-0.394714	
-0.395203	
-0.393921	
-0.393555	
-0.393433	
-0.395386	
-0.396484	
-0.396606	
-0.396606	
-0.396301	
-0.397095	
-0.398071	
-0.39801	
-0.396973	
-0.395996	
-0.395874	
-0.396851	
-0.39801	
-0.39801	
-0.397583	
-0.397583	
-0.39801	
-0.398376	
-0.397522	
-0.397339	
-0.396423	
-0.396118	
-0.397095	
-0.397766	
-0.396484	
-0.396851	
-0.397095	
-0.396729	
-0.397522	
-0.395752	
-0.395752	
-0.394958	
-0.394775	
-0.395142	
-0.39502	
-0.393311	
-0.393127	
-0.391907	
-0.3927	
-0.393555	
-0.391602	
-0.390686	
-0.390076	
-0.391357	
-0.391479	
-0.391418	
-0.391602	
-0.39093	
-0.389954	
-0.391846	
-0.392578	
-0.390686	
-0.389954	
-0.388855	
-0.390686	
-0.391113	
-0.391174	
-0.391724	
-0.390747	
-0.391541	
-0.392822	
-0.393188	
-0.391907	
-0.391113	
-0.390686	
-0.392578	
-0.394287	
-0.39325	
-0.392822	
-0.392822	
-0.393555	
-0.395203	
-0.394409	
-0.393433	
-0.392212	
-0.392639	
-0.393738	
-0.394714	
-0.394165	
-0.393921	
-0.393494	
-0.394836	
-0.395874	
-0.394409	
-0.394043	
-0.39325	
-0.394592	
-0.395081	
-0.394714	
-0.394897	
-0.395203	
-0.39563	
-0.395813	
-0.396973	
-0.395203	
-0.395203	
-0.394104	
-0.395386	
-0.39563	
-0.39502	
-0.395203	
-0.395081	
-0.394592	
-0.394897	
-0.396912	
-0.39502	
-0.394409	
-0.392273	
-0.394958	
-0.395691	
-0.39502	
-0.395447	
-0.394653	
-0.394836	
-0.395874	
-0.396606	
-0.394775	
-0.394104	
-0.392517	
-0.394592	
-0.394836	
-0.39447	
-0.394409	
-0.3927	
-0.394104	
-0.395264	
-0.394531	
-0.393494	
-0.392212	
-0.392395	
-0.394165	
-0.39386	
-0.393677	
-0.393555	
-0.393555	
-0.393677	
-0.395264	
-0.393616	
-0.393188	
-0.391846	
-0.391968	
-0.394104	
-0.393616	
-0.393616	
-0.393372	
-0.394043	
-0.394043	
-0.395569	
-0.393616	
-0.39386	
-0.39325	
-0.393921	
-0.395142	
-0.394409	
-0.394409	
-0.394958	
-0.393311	
-0.392883	
-0.394104	
-0.393616	
-0.393127	
-0.391296	
-0.397095	
-0.398071	
-0.397034	
-0.397339	
-0.39679	
-0.397034	
-0.39801	
-0.3974	
-0.396606	
-0.395874	
-0.396118	
-0.396423	
-0.395813	
-0.396118	
-0.395752	
-0.39386	
-0.394836	
-0.39624	
-0.394531	
-0.39325	
-0.391479	
-0.392029	
-0.391907	
-0.391357	
-0.390991	
-0.390137	
-0.388733	
-0.39032	
-0.391174	
-0.390198	
-0.388977	
-0.388672	
-0.388794	
-0.389404	
-0.38916	
-0.388733	
-0.388306	
-0.388306	
-0.388855	
-0.389954	
-0.389099	
-0.388916	
-0.388306	
-0.390625	
-0.394531	
-0.396851	
-0.399719	
-0.402649	
-0.406982	
-0.412109	
-0.416077	
-0.420959	
-0.424133	
-0.430542	
-0.437256	
-0.442444	
-0.447754	
-0.454956	
-0.462646	
-0.471497	
-0.481689	
-0.492859	
-0.504761	
-0.517639	
-0.530945	
-0.543091	
-0.55249	
-0.561218	
-0.568359	
-0.57666	
-0.583252	
-0.586914	
-0.589539	
-0.591064	
-0.593872	
-0.595398	
-0.59491	
-0.593384	
-0.592102	
-0.589478	
-0.588806	
-0.588379	
-0.585938	
-0.583801	
-0.581116	
-0.580994	
-0.581238	
-0.580322	
-0.579834	
-0.578003	
-0.577026	
-0.576294	
-0.574036	
-0.571777	
-0.569519	
-0.567627	
-0.56604	
-0.564331	
-0.561707	
-0.559387	
-0.556824	
-0.555054	
-0.554016	
-0.549377	
-0.544617	
-0.539551	
-0.535278	
-0.529236	
-0.523438	
-0.517212	
-0.511108	
-0.504272	
-0.500977	
-0.496704	
-0.491089	
-0.486145	
-0.481628	
-0.47876	
-0.477234	
-0.474609	
-0.471252	
-0.468628	
-0.466187	
-0.465088	
-0.461609	
-0.45813	
-0.454712	
-0.451843	
-0.448914	
-0.447998	
-0.445129	
-0.442749	
-0.440002	
-0.439636	
-0.437622	
-0.434937	
-0.432434	
-0.429749	
-0.427063	
-0.42395	
-0.420593	
-0.416748	
-0.412354	
-0.407166	
-0.402222	
-0.396912	
-0.39093	
-0.384094	
-0.376465	
-0.369019	
-0.361511	
-0.352844	
-0.343872	
-0.33429	
-0.324585	
-0.31543	
-0.305298	
-0.294739	
-0.283203	
-0.273438	
-0.265747	
-0.258484	
-0.251343	
-0.24646	
-0.242798	
-0.240356	
-0.239075	
-0.238708	
-0.237244	
-0.235596	
-0.237244	
-0.238831	
-0.241272	
-0.24292	
-0.245605	
-0.248718	
-0.253479	
-0.256592	
-0.261292	
-0.263794	
-0.268188	
-0.27301	
-0.278442	
-0.282898	
-0.287659	
-0.29248	
-0.297546	
-0.302551	
-0.306885	
-0.309814	
-0.312622	
-0.316589	
-0.320068	
-0.321655	
-0.323914	
-0.3255	
-0.32782	
-0.329895	
-0.330139	
-0.330811	
-0.331055	
-0.333374	
-0.335327	
-0.335449	
-0.336487	
-0.336792	
-0.339539	
-0.34137	
-0.342773	
-0.34375	
-0.344788	
-0.345581	
-0.349121	
-0.349487	
-0.350464	
-0.351807	
-0.353577	
-0.355103	
-0.357361	
-0.357727	
-0.358215	
-0.360229	
-0.362122	
-0.36261	
-0.363342	
-0.364258	
-0.365723	
-0.367554	
-0.367798	
-0.368774	
-0.367126	
-0.368713	
-0.368896	
-0.369934	
-0.369812	
-0.369934	
-0.370789	
-0.371033	
-0.371704	
-0.370911	
-0.370544	
-0.369995	
-0.370483	
-0.371643	
-0.370117	
-0.369812	
-0.369507	
-0.370544	
-0.370667	
-0.371094	
-0.369995	
-0.368652	
-0.369141	
-0.369568	
-0.369629	
-0.369568	
-0.369812	
-0.369934	
-0.370605	
-0.369934	
-0.369995	
-0.369202	
-0.368469	
-0.36969	
-0.3703	
-0.370117	
-0.370605	
-0.36969	
-0.370422	
-0.371887	
-0.370667	
-0.371155	
-0.369873	
-0.37146	
-0.370911	
-0.371582	
-0.371887	
-0.371277	
-0.371521	
-0.372925	
-0.371887	
-0.372314	
-0.370422	
-0.371277	
-0.372192	
-0.371887	
-0.372253	
-0.372192	
-0.37262	
-0.374207	
-0.373535	
-0.373474	
-0.373169	
-0.37384	
-0.374512	
-0.374573	
-0.375366	
-0.375122	
-0.375916	
-0.376709	
-0.375977	
-0.376465	
-0.375916	
-0.376465	
-0.377197	
-0.376709	
-0.377197	
-0.377319	
-0.37738	
-0.377686	
-0.37793	
-0.377747	
-0.377869	
-0.377686	
-0.378845	
-0.377258	
-0.378052	
-0.377991	
-0.378296	
-0.378662	
-0.378845	
-0.378784	
-0.378418	
-0.377136	
-0.379395	
-0.377502	
-0.37793	
-0.377625	
-0.377686	
-0.377686	
-0.379211	
-0.377197	
-0.377258	
-0.375183	
-0.377563	
-0.377014	
-0.37738	
-0.376892	
-0.377625	
-0.37738	
-0.379639	
-0.378296	
-0.378113	
-0.376587	
-0.378723	
-0.378723	
-0.378601	
-0.379272	
-0.379517	
-0.380066	
-0.380981	
-0.381775	
-0.38147	
-0.381958	
-0.381653	
-0.384155	
-0.38385	
-0.384277	
-0.385254	
-0.385681	
-0.386169	
-0.38739	
-0.386963	
-0.387207	
-0.386597	
-0.387085	
-0.387451	
-0.38678	
-0.387512	
-0.387939	
-0.388062	
-0.389832	
-0.390015	
-0.388855	
-0.388	
-0.388123	
-0.389404	
-0.388489	
-0.389038	
-0.389221	
-0.389282	
-0.389832	
-0.390137	
-0.389282	
-0.38916	
-0.389465	
-0.388794	
-0.389221	
-0.388733	
-0.389343	
-0.389587	
-0.388855	
-0.389526	
-0.388245	
-0.38623	
-0.383606	
-0.383728	
-0.384094	
-0.383484	
-0.38385	
-0.384583	
-0.386353	
-0.38623	
-0.386902	
-0.386353	
-0.385925	
-0.385132	
-0.384644	
-0.38501	
-0.385437	
-0.385559	
-0.38623	
-0.386719	
-0.38678	
-0.387085	
-0.38623	
-0.387756	
-0.386536	
-0.387268	
-0.387146	
-0.387756	
-0.38678	
-0.387573	
-0.389648	
-0.389954	
-0.389038	
-0.387939	
-0.387939	
-0.389282	
-0.388672	
-0.389893	
-0.388794	
-0.389221	
-0.390259	
-0.390015	
-0.390625	
-0.389771	
-0.389099	
-0.38916	
-0.389587	
-0.388916	
-0.390747	
-0.391602	
-0.39386	
-0.396362	
-0.398865	
-0.402039	
-0.406372	
-0.409851	
-0.415344	
-0.420532	
-0.425598	
-0.431213	
-0.43689	
-0.442749	
-0.447876	
-0.453552	
-0.460144	
-0.467041	
-0.474854	
-0.482361	
-0.492981	
-0.50354	
-0.516357	
-0.528809	
-0.540039	
-0.5495	
-0.556519	
-0.56427	
-0.570801	
-0.575989	
-0.578979	
-0.582581	
-0.585022	
-0.586243	
-0.586121	
-0.585266	
-0.583862	
-0.582336	
-0.58075	
-0.580322	
-0.578125	
-0.576843	
-0.574646	
-0.575073	
-0.574707	
-0.573914	
-0.572388	
-0.569702	
-0.568115	
-0.567505	
-0.565552	
-0.562134	
-0.561951	
-0.560181	
-0.558655	
-0.556641	
-0.553467	
-0.55127	
-0.548096	
-0.544373	
-0.539185	
-0.534668	
-0.529663	
-0.524231	
-0.520264	
-0.515808	
-0.512024	
-0.50769	
-0.504395	
-0.501709	
-0.497559	
-0.494812	
-0.49231	
-0.491089	
-0.488159	
-0.486023	
-0.484131	
-0.48175	
-0.479675	
-0.475464	
-0.472656	
-0.469727	
-0.466919	
-0.464172	
-0.461853	
-0.459595	
-0.456909	
-0.454529	
-0.450439	
-0.446411	
-0.443359	
-0.438416	
-0.433716	
-0.428772	
-0.423096	
-0.415649	
-0.409851	
-0.40271	
-0.394165	
-0.384338	
-0.374878	
-0.364685	
-0.355591	
-0.345093	
-0.333557	
-0.323425	
-0.312561	
-0.301208	
-0.290649	
-0.278442	
-0.268555	
-0.257507	
-0.249207	
-0.241882	
-0.234924	
-0.229004	
-0.224976	
-0.222961	
-0.221558	
-0.220459	
-0.219788	
-0.220276	
-0.222168	
-0.22345	
-0.225159	
-0.227905	
-0.231995	
-0.235535	
-0.23938	
-0.245361	
-0.247986	
-0.252808	
-0.257935	
-0.263062	
-0.268127	
-0.273987	
-0.279541	
-0.284973	
-0.289978	
-0.2948	
-0.298218	
-0.302063	
-0.305969	
-0.30957	
-0.312439	
-0.315186	
-0.318481	
-0.320801	
-0.32312	
-0.326355	
-0.328003	
-0.329651	
-0.331909	
-0.333313	
-0.334839	
-0.336304	
-0.338196	
-0.339783	
-0.341614	
-0.344055	
-0.344666	
-0.346252	
-0.34729	
-0.349121	
-0.349182	
-0.35083	
-0.351929	
-0.352844	
-0.354614	
-0.356689	
-0.357056	
-0.356812	
-0.358826	
-0.360474	
-0.361023	
-0.361511	
-0.362671	
-0.363342	
-0.364685	
-0.36615	
-0.365417	
-0.366089	
-0.365845	
-0.36731	
-0.368164	
-0.367798	
-0.367737	
-0.367432	
-0.369019	
-0.370117	
-0.369385	
-0.369385	
-0.370422	
-0.371521	
-0.370483	
-0.369812	
-0.369629	
-0.369812	
-0.370911	
-0.370972	
-0.371765	
-0.371399	
-0.370789	
-0.370728	
-0.370911	
-0.370667	
-0.370911	
-0.37085	
-0.371033	
-0.371887	
-0.372253	
-0.372437	
-0.372314	
-0.37207	
-0.37323	
-0.37323	
-0.373352	
-0.372131	
-0.373657	
-0.374573	
-0.375671	
-0.375977	
-0.37561	
-0.374878	
-0.377014	
-0.37616	
-0.376953	
-0.376831	
-0.37738	
-0.377747	
-0.378418	
-0.378418	
-0.378479	
-0.376892	
-0.377747	
-0.377014	
-0.378235	
-0.377747	
-0.378723	
-0.378296	
-0.378174	
-0.378845	
-0.378662	
-0.376953	
-0.376038	
-0.375549	
-0.375854	
-0.375122	
-0.374878	
-0.374817	
-0.373901	
-0.374634	
-0.374329	
-0.373291	
-0.372742	
-0.372925	
-0.373535	
-0.373413	
-0.373901	
-0.374451	
-0.372864	
-0.374634	
-0.374207	
-0.373596	
-0.373108	
-0.373352	
-0.37439	
-0.373962	
-0.374207	
-0.374268	
-0.374695	
-0.375	
-0.375	
-0.374512	
-0.374084	
-0.375122	
-0.375488	
-0.375366	
-0.375671	
-0.376709	
-0.376282	
-0.377625	
-0.377258	
-0.377625	
-0.377686	
-0.379822	
-0.379456	
-0.379456	
-0.379211	
-0.381104	
-0.381165	
-0.381897	
-0.382202	
-0.38208	
-0.382141	
-0.382751	
-0.381958	
-0.382568	
-0.382874	
-0.383362	
-0.383545	
-0.384277	
-0.383667	
-0.38269	
-0.382568	
-0.383789	
-0.383789	
-0.383911	
-0.383606	
-0.383606	
-0.383911	
-0.383606	
-0.383606	
-0.383057	
-0.381897	
-0.38269	
-0.383606	
-0.382385	
-0.381531	
-0.381714	
-0.383301	
-0.383118	
-0.383057	
-0.382935	
-0.384033	
-0.382507	
-0.383118	
-0.382202	
-0.382629	
-0.382935	
-0.383484	
-0.384399	
-0.384033	
-0.383606	
-0.382568	
-0.383362	
-0.384094	
-0.383484	
-0.383057	
-0.382629	
-0.382507	
-0.383545	
-0.383911	
-0.384583	
-0.383789	
-0.383362	
-0.383301	
-0.384827	
-0.38324	
-0.383667	
-0.384521	
-0.38446	
-0.385437	
-0.385254	
-0.38446	
-0.384399	
-0.385193	
-0.38501	
-0.38446	
-0.384888	
-0.384827	
-0.385132	
-0.38623	
-0.386047	
-0.386047	
-0.386047	
-0.386475	
-0.386658	
-0.386719	
-0.386902	
-0.387878	
-0.386536	
-0.388367	
-0.388489	
-0.388855	
-0.38855	
-0.388794	
-0.388672	
-0.388977	
-0.388367	
-0.38855	
-0.388672	
-0.388489	
-0.388611	
-0.389526	
-0.388428	
-0.388611	
-0.387939	
-0.388184	
-0.387817	
-0.387939	
-0.388062	
-0.388306	
-0.388245	
-0.388855	
-0.387146	
-0.387329	
-0.386841	
-0.385986	
-0.384766	
-0.385437	
-0.385376	
-0.384766	
-0.385071	
-0.385803	
-0.384827	
-0.384583	
-0.384888	
-0.384766	
-0.384827	
-0.384705	
-0.385315	
-0.383789	
-0.385986	
-0.384949	
-0.385071	
-0.384888	
-0.385315	
-0.385132	
-0.385132	
-0.385193	
-0.385559	
-0.385559	
-0.385742	
-0.387085	
-0.387268	
-0.386963	
-0.386658	
-0.386902	
-0.387512	
-0.387512	
-0.38739	
-0.38916	
-0.388916	
-0.390564	
-0.391418	
-0.390564	
-0.389954	
-0.391296	
-0.391174	
-0.391602	
-0.391846	
-0.392273	
-0.391663	
-0.392883	
-0.392944	
-0.392395	
-0.39209	
-0.392517	
-0.392761	
-0.392517	
-0.392822	
-0.391418	
-0.392578	
-0.391357	
-0.392578	
-0.393127	
-0.392456	
-0.391479	
-0.390991	
-0.391052	
-0.391052	
-0.390991	
-0.391052	
-0.390808	
-0.391052	
-0.391174	
-0.39032	
-0.389648	
-0.388977	
-0.390442	
-0.389832	
-0.390747	
-0.389038	
-0.389282	
-0.388977	
-0.39093	
-0.389648	
-0.389526	
-0.389526	
-0.389893	
-0.389465	
-0.389099	
-0.389038	
-0.389526	
-0.389954	
-0.389526	
-0.389465	
-0.389709	
-0.389587	
-0.390503	
-0.390198	
-0.389526	
-0.390015	
-0.388855	
-0.389832	
-0.389221	
-0.390381	
-0.390137	
-0.390625	
-0.389221	
-0.390442	
-0.389893	
-0.389282	
-0.390076	
-0.390198	
-0.389771	
-0.390747	
-0.389465	
-0.389465	
-0.389404	
-0.389343	
-0.390198	
-0.389648	
-0.389709	
-0.388916	
-0.389465	
-0.390076	
-0.390198	
-0.390625	
-0.390259	
-0.390137	
-0.390686	
-0.390686	
-0.391663	
-0.390198	
-0.390137	
-0.390747	
-0.392273	
-0.390503	
-0.390686	
-0.390015	
-0.391052	
-0.391846	
-0.390381	
-0.390808	
-0.389832	
-0.390564	
-0.392334	
-0.391174	
-0.39093	
-0.390259	
-0.391235	
-0.391296	
-0.390991	
-0.39093	
-0.390259	
-0.390503	
-0.390503	
-0.390198	
-0.389771	
-0.389587	
-0.388428	
-0.38916	
-0.389587	
-0.387939	
-0.388306	
-0.386292	
-0.38739	
-0.387146	
-0.386841	
-0.387268	
-0.385742	
-0.38623	
-0.386963	
-0.387268	
-0.386597	
-0.386536	
-0.387085	
-0.387268	
-0.387634	
-0.387146	
-0.387085	
-0.387207	
-0.387695	
-0.38855	
-0.387817	
-0.389099	
-0.388245	
-0.390198	
-0.391052	
-0.391479	
-0.391602	
-0.390625	
-0.393127	
-0.39386	
-0.392822	
-0.3927	
-0.393616	
-0.393433	
-0.394409	
-0.39386	
-0.394592	
-0.394165	
-0.394531	
-0.394897	
-0.396179	
-0.395081	
-0.394836	
-0.39447	
-0.394775	
-0.395508	
-0.395142	
-0.395142	
-0.394409	
-0.395813	
-0.395447	
-0.395752	
-0.39502	
-0.396057	
-0.394897	
-0.394958	
-0.394958	
-0.395081	
-0.395142	
-0.39447	
-0.394409	
-0.394104	
-0.392944	
-0.393127	
-0.391968	
-0.391846	
-0.391541	
-0.391296	
-0.391235	
-0.389587	
-0.389587	
-0.390686	
-0.390869	
-0.389832	
-0.39093	
-0.389465	
-0.390259	
-0.389832	
-0.389709	
-0.389526	
-0.390503	
-0.39093	
-0.390747	
-0.390259	
-0.389465	
-0.390381	
-0.390625	
-0.390686	
-0.391785	
-0.391602	
-0.39093	
-0.390808	
-0.392151	
-0.392456	
-0.391785	
-0.392944	
-0.39093	
-0.392578	
-0.392212	
-0.392212	
-0.392151	
-0.392639	
-0.393127	
-0.392761	
-0.392761	
-0.391418	
-0.392029	
-0.39209	
-0.391968	
-0.39325	
-0.392212	
-0.392639	
-0.392212	
-0.392578	
-0.393799	
-0.393372	
-0.39325	
-0.391846	
-0.394287	
-0.392395	
-0.393555	
-0.392883	
-0.393555	
-0.394226	
-0.393311	
-0.392395	
-0.392273	
-0.393066	
-0.393005	
-0.392212	
-0.392517	
-0.392273	
-0.392212	
-0.391724	
-0.392578	
-0.393372	
-0.391968	
-0.392822	
-0.39209	
-0.392456	
-0.391235	
-0.392273	
-0.391418	
-0.391418	
-0.391296	
-0.391479	
-0.390747	
-0.389832	
-0.390442	
-0.389893	
-0.389282	
-0.389404	
-0.390015	
-0.389038	
-0.389221	
-0.390015	
-0.390137	
-0.389099	
-0.389343	
-0.389709	
-0.390869	
-0.390015	
-0.391174	
-0.389038	
-0.390503	
-0.390625	
-0.390686	
-0.390747	
-0.390625	
-0.391541	
-0.390625	
-0.390869	
-0.391479	
-0.391541	
-0.392273	
-0.392822	
-0.393982	
-0.39386	
-0.393677	
-0.39325	
-0.394104	
-0.394958	
-0.393921	
-0.39563	
-0.393188	
-0.394043	
-0.394531	
-0.394653	
-0.39502	
-0.394165	
-0.395264	
-0.393372	
-0.39502	
-0.394531	
-0.394531	
-0.394714	
-0.394287	
-0.393616	
-0.394043	
-0.393616	
-0.393616	
-0.393921	
-0.394104	
-0.393799	
-0.392578	
-0.391602	
-0.3927	
-0.391846	
-0.392212	
-0.391541	
-0.390381	
-0.389221	
-0.388977	
-0.389587	
-0.388611	
-0.389099	
-0.388733	
-0.388184	
-0.387512	
-0.387817	
-0.388489	
-0.387573	
-0.388367	
-0.388367	
-0.387878	
-0.38739	
-0.387207	
-0.388306	
-0.387695	
-0.388977	
-0.389038	
-0.388489	
-0.387878	
-0.388245	
-0.388306	
-0.388489	
-0.390137	
-0.389771	
-0.389587	
-0.388367	
-0.390198	
-0.390015	
-0.390076	
-0.390076	
-0.391296	
-0.391235	
-0.390808	
-0.391235	
-0.390198	
-0.390442	
-0.391479	
-0.391846	
-0.391113	
-0.391174	
-0.391357	
-0.392029	
-0.391418	
-0.391968	
-0.389832	
-0.39093	
-0.391663	
-0.393677	
-0.391968	
-0.392151	
-0.392212	
-0.391785	
-0.392334	
-0.391724	
-0.393311	
-0.393188	
-0.392883	
-0.391663	
-0.393616	
-0.392456	
-0.392395	
-0.391418	
-0.393127	
-0.391602	
-0.391724	
-0.391174	
-0.391663	
-0.391418	
-0.391296	
-0.393127	
-0.392273	
-0.392639	
-0.391418	
-0.392395	
-0.391602	
-0.392517	
-0.391357	
-0.391602	
-0.392151	
-0.392883	
-0.391907	
-0.391785	
-0.390869	
-0.391235	
-0.390686	
-0.391113	
-0.391052	
-0.391052	
-0.39093	
-0.390137	
-0.391907	
-0.390747	
-0.391602	
-0.389221	
-0.391785	
-0.389526	
-0.390442	
-0.389709	
-0.391235	
-0.391113	
-0.390686	
-0.391296	
-0.390991	
-0.389771	
-0.390015	
-0.390808	
-0.390686	
-0.391785	
-0.391174	
-0.390991	
-0.390991	
-0.392273	
-0.392334	
-0.392212	
-0.390686	
-0.393127	
-0.39209	
-0.393005	
-0.393616	
-0.393921	
-0.393738	
-0.393677	
-0.395874	
-0.394775	
-0.393799	
-0.393799	
-0.39447	
-0.393982	
-0.394592	
-0.393982	
-0.394104	
-0.394043	
-0.395447	
-0.394287	
-0.394409	
-0.393372	
-0.39325	
-0.392517	
-0.393005	
-0.393188	
-0.39209	
-0.392029	
-0.391541	
-0.390686	
-0.389526	
-0.389465	
-0.387268	
-0.389038	
-0.387085	
-0.387573	
-0.386658	
-0.386963	
-0.386902	
-0.386658	
-0.388	
-0.386963	
-0.386414	
-0.385864	
-0.385925	
-0.385986	
-0.385925	
-0.38623	
-0.385925	
-0.385742	
-0.387573	
-0.386169	
-0.387024	
-0.38562	
-0.386475	
-0.384705	
-0.385925	
-0.386292	
-0.386353	
-0.385986	
-0.385803	
-0.387085	
-0.387207	
-0.386597	
-0.386475	
-0.387817	
-0.387207	
-0.388672	
-0.38855	
-0.389709	
-0.390259	
-0.390564	
-0.390808	
-0.391296	
-0.390381	
-0.390686	
-0.391235	
-0.391479	
-0.391541	
-0.391418	
-0.391113	
-0.391479	
-0.392944	
-0.392151	
-0.392273	
-0.389954	
-0.391296	
-0.391602	
-0.39209	
-0.392395	
-0.392151	
-0.391479	
-0.389709	
-0.39209	
-0.390869	
-0.390686	
-0.390869	
-0.390198	
-0.389038	
-0.389709	
-0.389648	
-0.389526	
-0.390015	
-0.390686	
-0.389526	
-0.389404	
-0.388672	
-0.389771	
-0.389526	
-0.388733	
-0.389587	
-0.389709	
-0.389709	
-0.388977	
-0.390686	
-0.389343	
-0.389526	
-0.38916	
-0.388733	
-0.388367	
-0.389099	
-0.389343	
-0.389038	
-0.389099	
-0.390015	
-0.388672	
-0.389282	
-0.389282	
-0.390076	
-0.388245	
-0.388245	
-0.389221	
-0.388794	
-0.389465	
-0.38916	
-0.390137	
-0.389587	
-0.389648	
-0.388794	
-0.389282	
-0.389099	
-0.389221	
-0.389709	
-0.389343	
-0.389954	
-0.390686	
-0.390442	
-0.390137	
-0.390381	
-0.389648	
-0.390442	
-0.391357	
-0.391479	
-0.391357	
-0.391846	
-0.392029	
-0.392761	
-0.391968	
-0.39209	
-0.392151	
-0.392578	
-0.39209	
-0.391541	
-0.391846	
-0.391968	
-0.391663	
-0.391113	
-0.392761	
-0.391968	
-0.391174	
-0.391296	
-0.391846	
-0.391602	
-0.391296	
-0.391479	
-0.391602	
-0.391296	
-0.391541	
-0.391174	
-0.389771	
-0.388794	
-0.387939	
-0.388794	
-0.387573	
-0.387756	
-0.387756	
-0.387817	
-0.387329	
-0.388428	
-0.38739	
-0.38739	
-0.387512	
-0.387756	
-0.38739	
-0.386841	
-0.386963	
-0.388	
-0.387085	
-0.386597	
-0.388611	
-0.387634	
-0.387329	
-0.388855	
-0.387878	
-0.387329	
-0.388184	
-0.388733	
-0.388245	
-0.388611	
-0.389771	
-0.389893	
-0.390137	
-0.389893	
-0.390015	
-0.391174	
-0.391418	
-0.392639	
-0.391968	
-0.391663	
-0.39325	
-0.393616	
-0.393433	
-0.393555	
-0.393494	
-0.394287	
-0.394104	
-0.39325	
-0.393555	
-0.394531	
-0.394348	
-0.394409	
-0.394897	
-0.393921	
-0.394531	
-0.39386	
-0.394348	
-0.394592	
-0.394592	
-0.393921	
-0.394348	
-0.393799	
-0.394958	
-0.393921	
-0.393066	
-0.393066	
-0.393433	
-0.393311	
-0.391663	
-0.391907	
-0.391357	
-0.391479	
-0.39032	
-0.391174	
-0.391968	
-0.391785	
-0.390808	
-0.391052	
-0.390991	
-0.389648	
-0.390747	
-0.391357	
-0.390503	
-0.390564	
-0.390808	
-0.390869	
-0.390503	
-0.39093	
-0.390564	
-0.390381	
-0.390015	
-0.389771	
-0.390259	
-0.390076	
-0.391052	
-0.390686	
-0.389648	
-0.389954	
-0.389587	
-0.390381	
-0.390198	
-0.390381	
-0.390564	
-0.390747	
-0.389832	
-0.391052	
-0.390869	
-0.390564	
-0.391968	
-0.390442	
-0.390686	
-0.389465	
-0.390747	
-0.390198	
-0.390381	
-0.391235	
-0.390991	
-0.390198	
-0.39093	
-0.390564	
-0.390503	
-0.390869	
-0.390259	
-0.391602	
-0.391174	
-0.391418	
-0.392273	
-0.391846	
-0.391418	
-0.39093	
-0.390442	
-0.391907	
-0.392334	
-0.391785	
-0.391663	
-0.392456	
-0.391541	
-0.392151	
-0.391602	
-0.391968	
-0.3927	
-0.392273	
-0.392273	
-0.391785	
-0.391785	
-0.391724	
-0.392395	
-0.392578	
-0.392029	
-0.391846	
-0.391602	
-0.391968	
-0.391296	
-0.391113	
-0.390869	
-0.390747	
-0.390686	
-0.389648	
-0.39032	
-0.389832	
-0.389404	
-0.388306	
-0.387939	
-0.388855	
-0.38739	
-0.388489	
-0.388916	
-0.388733	
-0.388794	
-0.388916	
-0.388794	
-0.389099	
-0.388733	
-0.388733	
-0.388916	
-0.390015	
-0.389343	
-0.389709	
-0.390076	
-0.391113	
-0.391235	
-0.391296	
-0.392456	
-0.393372	
-0.393433	
-0.393005	
-0.394287	
-0.394653	
-0.395325	
-0.394653	
-0.396484	
-0.396301	
-0.395996	
-0.395081	
-0.395691	
-0.396118	
-0.396606	
-0.395386	
-0.39679	
-0.39624	
-0.397156	
-0.396973	
-0.397034	
-0.397278	
-0.397278	
-0.396851	
-0.397339	
-0.398315	
-0.39679	
-0.3974	
-0.397095	
-0.397583	
-0.397278	
-0.397095	
-0.39801	
-0.396973	
-0.396545	
-0.395874	
-0.396423	
-0.395264	
-0.395325	
-0.394714	
-0.395325	
-0.395447	
-0.394043	
-0.3927	
-0.392944	
-0.392822	
-0.392822	
-0.391541	
-0.391785	
-0.391052	
-0.391846	
-0.391724	
-0.391968	
-0.391968	
-0.391968	
-0.390564	
-0.391602	
-0.392822	
-0.391479	
-0.392456	
-0.391663	
-0.392334	
-0.392517	
-0.392639	
-0.393433	
-0.393433	
-0.392883	
-0.392334	
-0.393433	
-0.393677	
-0.393127	
-0.392761	
-0.394714	
-0.394836	
-0.39386	
-0.392395	
-0.394836	
-0.394043	
-0.394043	
-0.393494	
-0.394043	
-0.394226	
-0.394592	
-0.394165	
-0.394531	
-0.394531	
-0.394226	
-0.39386	
-0.393982	
-0.39502	
-0.394043	
-0.394165	
-0.393921	
-0.39563	
-0.394531	
-0.394836	
-0.395203	
-0.395386	
-0.394775	
-0.394409	
-0.39502	
-0.394531	
-0.394714	
-0.395142	
-0.395691	
-0.395142	
-0.393982	
-0.393188	
-0.394958	
-0.394043	
-0.395203	
	
