E:\DOCUMENTS AND SETTINGS\JPOTAS\MEUS DOCUMENTOS\UFRJ\RSCI-BM 12 WK SERIES\070723-RSCI-BM-06\RSCI-BM-06-LEMG\070723-RSCI-BM-LEMG-0001.ACQ
0.025000 msec/sample
1 channel
Analog input
Volts
CH1	
2000	
-0.396179	
-0.395386	
-0.395386	
-0.394043	
-0.394775	
-0.395325	
-0.396667	
-0.395386	
-0.395508	
-0.394592	
-0.394531	
-0.395203	
-0.395874	
-0.395691	
-0.395874	
-0.395203	
-0.394653	
-0.394958	
-0.396729	
-0.39502	
-0.394531	
-0.394775	
-0.395081	
-0.396179	
-0.396484	
-0.396545	
-0.395691	
-0.394714	
-0.395203	
-0.395447	
-0.397583	
-0.395996	
-0.396301	
-0.39563	
-0.395996	
-0.39679	
-0.397278	
-0.397034	
-0.396301	
-0.396423	
-0.396179	
-0.395447	
-0.397766	
-0.39679	
-0.396484	
-0.395569	
-0.397461	
-0.397705	
-0.397583	
-0.396851	
-0.396606	
-0.396667	
-0.397095	
-0.397522	
-0.398132	
-0.397705	
-0.397766	
-0.39624	
-0.397705	
-0.397827	
-0.398254	
-0.398193	
-0.397217	
-0.397827	
-0.397583	
-0.398193	
-0.398315	
-0.397705	
-0.397583	
-0.396912	
-0.39856	
-0.398315	
-0.399414	
-0.399231	
-0.396912	
-0.398132	
-0.398254	
-0.398743	
-0.398132	
-0.398621	
-0.398132	
-0.397278	
-0.398926	
-0.39856	
-0.398926	
-0.398926	
-0.398315	
-0.397766	
-0.398315	
-0.398865	
-0.397095	
-0.396545	
-0.395996	
-0.395386	
-0.397217	
-0.39679	
-0.397034	
-0.397034	
-0.397034	
-0.397278	
-0.397827	
-0.399048	
-0.398071	
-0.398621	
-0.397522	
-0.39801	
-0.398743	
-0.399109	
-0.398499	
-0.397949	
-0.39801	
-0.398071	
-0.398376	
-0.399658	
-0.398499	
-0.398865	
-0.398376	
-0.399597	
-0.399658	
-0.398743	
-0.399597	
-0.398621	
-0.39917	
-0.397156	
-0.398865	
-0.399231	
-0.398804	
-0.398804	
-0.398865	
-0.399536	
-0.39917	
-0.399597	
-0.399963	
-0.397644	
-0.398865	
-0.398315	
-0.399475	
-0.399231	
-0.399353	
-0.398865	
-0.398254	
-0.399902	
-0.39917	
-0.40033	
-0.399841	
-0.398315	
-0.398376	
-0.399109	
-0.399597	
-0.398865	
-0.399231	
-0.397949	
-0.398376	
-0.399353	
-0.398315	
-0.399963	
-0.39917	
-0.397461	
-0.397766	
-0.398254	
-0.398499	
-0.397766	
-0.397217	
-0.397339	
-0.398987	
-0.399048	
-0.398376	
-0.399109	
-0.399109	
-0.398254	
-0.398499	
-0.399475	
-0.39978	
-0.398621	
-0.397949	
-0.39801	
-0.398743	
-0.399048	
-0.39917	
-0.398987	
-0.398499	
-0.398682	
-0.397156	
-0.398682	
-0.399475	
-0.398376	
-0.397888	
-0.398682	
-0.399536	
-0.398682	
-0.39978	
-0.399048	
-0.398865	
-0.399109	
-0.398376	
-0.397827	
-0.39978	
-0.39325	
-0.398132	
-0.398926	
-0.399536	
-0.398865	
-0.399414	
-0.39856	
-0.398926	
-0.399048	
-0.400208	
-0.398193	
-0.399902	
-0.399475	
-0.399475	
-0.399536	
-0.399658	
-0.400208	
-0.400452	
-0.399414	
-0.400635	
-0.400391	
-0.40033	
-0.399658	
-0.401123	
-0.399658	
-0.400024	
-0.400635	
-0.400208	
-0.400269	
-0.400635	
-0.400757	
-0.400024	
-0.400513	
-0.40033	
-0.400085	
-0.400085	
-0.399109	
-0.399841	
-0.399719	
-0.400269	
-0.40033	
-0.400208	
-0.401367	
-0.400269	
-0.400024	
-0.40033	
-0.400513	
-0.400024	
-0.39978	
-0.400391	
-0.400574	
-0.401367	
-0.401855	
-0.402954	
-0.404724	
-0.40509	
-0.407349	
-0.409302	
-0.412964	
-0.415588	
-0.419434	
-0.423035	
-0.427307	
-0.432678	
-0.438354	
-0.4422	
-0.445557	
-0.450378	
-0.454773	
-0.460876	
-0.466431	
-0.473877	
-0.482788	
-0.493103	
-0.505371	
-0.516907	
-0.526306	
-0.535461	
-0.542297	
-0.548279	
-0.553894	
-0.560242	
-0.562561	
-0.5672	
-0.571106	
-0.571716	
-0.572021	
-0.571289	
-0.570679	
-0.567017	
-0.565369	
-0.562683	
-0.561401	
-0.558167	
-0.556641	
-0.554871	
-0.552673	
-0.55304	
-0.55188	
-0.550598	
-0.549988	
-0.549438	
-0.548706	
-0.548035	
-0.549133	
-0.548157	
-0.54834	
-0.546936	
-0.546692	
-0.54541	
-0.543762	
-0.541809	
-0.541443	
-0.539246	
-0.536438	
-0.533875	
-0.532349	
-0.528015	
-0.524475	
-0.519531	
-0.51416	
-0.508911	
-0.50354	
-0.498779	
-0.492981	
-0.489563	
-0.484009	
-0.479431	
-0.474609	
-0.472412	
-0.468994	
-0.464478	
-0.46228	
-0.458557	
-0.454163	
-0.451538	
-0.447937	
-0.444214	
-0.441528	
-0.43988	
-0.435974	
-0.434204	
-0.431519	
-0.429993	
-0.42749	
-0.425537	
-0.423157	
-0.42157	
-0.418579	
-0.414734	
-0.412598	
-0.412048	
-0.407288	
-0.406067	
-0.403809	
-0.399902	
-0.395996	
-0.391418	
-0.38562	
-0.38147	
-0.375427	
-0.366211	
-0.359375	
-0.353333	
-0.342896	
-0.335327	
-0.327515	
-0.318481	
-0.309998	
-0.302307	
-0.294006	
-0.285461	
-0.278076	
-0.270691	
-0.264893	
-0.260498	
-0.257202	
-0.255371	
-0.253235	
-0.252869	
-0.25238	
-0.252197	
-0.253418	
-0.253662	
-0.253479	
-0.254883	
-0.256836	
-0.256165	
-0.25946	
-0.262329	
-0.265564	
-0.26886	
-0.272949	
-0.277466	
-0.281799	
-0.285278	
-0.290344	
-0.295898	
-0.298828	
-0.304504	
-0.309143	
-0.313354	
-0.316284	
-0.319397	
-0.322998	
-0.324646	
-0.326294	
-0.32782	
-0.330505	
-0.331055	
-0.333679	
-0.334412	
-0.336487	
-0.338196	
-0.339539	
-0.34137	
-0.342285	
-0.343079	
-0.343567	
-0.345642	
-0.34613	
-0.347351	
-0.348206	
-0.350708	
-0.352661	
-0.354248	
-0.357117	
-0.358398	
-0.359497	
-0.360046	
-0.362244	
-0.362793	
-0.364136	
-0.364746	
-0.365784	
-0.366394	
-0.367554	
-0.368347	
-0.368652	
-0.369202	
-0.368958	
-0.370972	
-0.370117	
-0.371216	
-0.372009	
-0.37207	
-0.372314	
-0.37262	
-0.373352	
-0.372986	
-0.373108	
-0.373291	
-0.372925	
-0.371826	
-0.373291	
-0.373535	
-0.372498	
-0.373047	
-0.37323	
-0.373962	
-0.373779	
-0.374023	
-0.37323	
-0.372742	
-0.37323	
-0.372803	
-0.373352	
-0.372131	
-0.372681	
-0.372803	
-0.373413	
-0.374451	
-0.373779	
-0.373291	
-0.373718	
-0.374329	
-0.372559	
-0.37323	
-0.374573	
-0.373962	
-0.374268	
-0.37439	
-0.374939	
-0.375671	
-0.375671	
-0.374207	
-0.375183	
-0.375183	
-0.376099	
-0.376648	
-0.376526	
-0.376465	
-0.376831	
-0.376953	
-0.377563	
-0.377625	
-0.377258	
-0.377686	
-0.37738	
-0.377808	
-0.377563	
-0.377258	
-0.377502	
-0.37793	
-0.378357	
-0.378723	
-0.378662	
-0.378784	
-0.378357	
-0.378784	
-0.379089	
-0.379028	
-0.379517	
-0.380127	
-0.378906	
-0.378967	
-0.379944	
-0.379639	
-0.379333	
-0.38031	
-0.379395	
-0.378967	
-0.379944	
-0.380066	
-0.380066	
-0.379822	
-0.380066	
-0.381042	
-0.381165	
-0.379578	
-0.381714	
-0.381287	
-0.380371	
-0.383301	
-0.382629	
-0.383057	
-0.38385	
-0.383972	
-0.384277	
-0.38446	
-0.383911	
-0.384766	
-0.384705	
-0.38446	
-0.38623	
-0.385254	
-0.385559	
-0.386414	
-0.386292	
-0.385986	
-0.386353	
-0.385925	
-0.386108	
-0.385132	
-0.385925	
-0.387329	
-0.386414	
-0.386292	
-0.386841	
-0.387268	
-0.386902	
-0.387573	
-0.386841	
-0.386963	
-0.386353	
-0.38678	
-0.387268	
-0.386902	
-0.387207	
-0.387451	
-0.387695	
-0.38739	
-0.388245	
-0.386902	
-0.387512	
-0.38739	
-0.387634	
-0.386353	
-0.386902	
-0.388306	
-0.387512	
-0.386902	
-0.387817	
-0.387146	
-0.386963	
-0.388245	
-0.387878	
-0.38678	
-0.388306	
-0.389099	
-0.388428	
-0.388855	
-0.389893	
-0.389648	
-0.389526	
-0.390747	
-0.388916	
-0.39032	
-0.389771	
-0.389893	
-0.390503	
-0.390869	
-0.39093	
-0.390625	
-0.391663	
-0.391418	
-0.391418	
-0.390869	
-0.391785	
-0.391296	
-0.390503	
-0.390625	
-0.390686	
-0.391846	
-0.391235	
-0.391418	
-0.392212	
-0.391968	
-0.392578	
-0.393616	
-0.392395	
-0.391724	
-0.39209	
-0.392334	
-0.392822	
-0.392761	
-0.392273	
-0.392212	
-0.392456	
-0.393311	
-0.392822	
-0.393066	
-0.391846	
-0.392273	
-0.3927	
-0.392273	
-0.392639	
-0.392151	
-0.392151	
-0.392395	
-0.392273	
-0.391541	
-0.392151	
-0.391663	
-0.392029	
-0.39325	
-0.391846	
-0.392029	
-0.39209	
-0.392761	
-0.3927	
-0.39325	
-0.391479	
-0.393188	
-0.3927	
-0.393066	
-0.394287	
-0.393188	
-0.393555	
-0.393677	
-0.393738	
-0.39386	
-0.394165	
-0.393433	
-0.393372	
-0.393127	
-0.39325	
-0.393372	
-0.393677	
-0.393738	
-0.39386	
-0.394836	
-0.393433	
-0.39386	
-0.393677	
-0.394958	
-0.394714	
-0.393555	
-0.394531	
-0.393921	
-0.393188	
-0.394348	
-0.393738	
-0.394653	
-0.39502	
-0.395142	
-0.395752	
-0.395874	
-0.395264	
-0.395203	
-0.395508	
-0.394714	
-0.394592	
-0.39447	
-0.395996	
-0.39563	
-0.396606	
-0.395935	
-0.396912	
-0.39624	
-0.395935	
-0.396301	
-0.395996	
-0.395325	
-0.396484	
-0.397339	
-0.396851	
-0.397278	
-0.397156	
-0.398254	
-0.397644	
-0.397705	
-0.397949	
-0.39801	
-0.397583	
-0.398071	
-0.396912	
-0.398071	
-0.398438	
-0.398865	
-0.397766	
-0.398804	
-0.398499	
-0.398254	
-0.398499	
-0.398865	
-0.397583	
-0.398743	
-0.399475	
-0.399231	
-0.399292	
-0.398499	
-0.400208	
-0.39917	
-0.39978	
-0.399536	
-0.39978	
-0.399658	
-0.39978	
-0.399292	
-0.400391	
-0.399902	
-0.40033	
-0.400269	
-0.399719	
-0.399414	
-0.400452	
-0.400208	
-0.399414	
-0.398682	
-0.399109	
-0.39978	
-0.40033	
-0.400513	
-0.400146	
-0.40033	
-0.400085	
-0.400391	
-0.399475	
-0.39917	
-0.398499	
-0.398376	
-0.398438	
-0.398804	
-0.397888	
-0.398132	
-0.39917	
-0.399109	
-0.397888	
-0.398987	
-0.399902	
-0.399597	
-0.398499	
-0.398926	
-0.400513	
-0.400269	
-0.401306	
-0.401001	
-0.400757	
-0.400513	
-0.401001	
-0.401001	
-0.400513	
-0.400391	
-0.400818	
-0.400696	
-0.400879	
-0.40094	
-0.401245	
-0.400757	
-0.401855	
-0.400635	
-0.400269	
-0.401672	
-0.400818	
-0.399536	
-0.399719	
-0.401367	
-0.401245	
-0.40155	
-0.401978	
-0.401489	
-0.401306	
-0.402649	
-0.402588	
-0.401306	
-0.400635	
-0.400818	
-0.401611	
-0.402039	
-0.401611	
-0.402222	
-0.401184	
-0.401917	
-0.400513	
-0.401062	
-0.400757	
-0.400879	
-0.400208	
-0.400879	
-0.4021	
-0.401062	
-0.401428	
-0.400513	
-0.399841	
-0.400208	
-0.399658	
-0.401672	
-0.400574	
-0.399658	
-0.399353	
-0.400269	
-0.400879	
-0.400146	
-0.402893	
-0.400696	
-0.400818	
-0.400574	
-0.402405	
-0.400391	
-0.400391	
-0.400635	
-0.400818	
-0.401428	
-0.401367	
-0.401123	
-0.400818	
-0.399841	
-0.400818	
-0.399231	
-0.4021	
-0.401184	
-0.400879	
-0.399597	
-0.401062	
-0.402283	
-0.401306	
-0.402283	
-0.401123	
-0.401245	
-0.401367	
-0.402161	
-0.401245	
-0.401428	
-0.401184	
-0.400269	
-0.401306	
-0.40094	
-0.401489	
-0.402161	
-0.400024	
-0.400879	
-0.400574	
-0.402405	
-0.401184	
-0.401367	
-0.401062	
-0.401611	
-0.402344	
-0.401978	
-0.403015	
-0.402161	
-0.402466	
-0.402466	
-0.402771	
-0.403137	
-0.403015	
-0.402832	
-0.402466	
-0.403381	
-0.403259	
-0.403503	
-0.40387	
-0.402588	
-0.402344	
-0.40271	
-0.403564	
-0.402954	
-0.402649	
-0.402039	
-0.402405	
-0.403503	
-0.403137	
-0.403564	
-0.402649	
-0.402893	
-0.402893	
-0.40271	
-0.403931	
-0.403015	
-0.402283	
-0.402344	
-0.403076	
-0.403503	
-0.403381	
-0.403748	
-0.403076	
-0.403503	
-0.403076	
-0.403992	
-0.403687	
-0.403381	
-0.402222	
-0.401794	
-0.4021	
-0.402161	
-0.402527	
-0.401855	
-0.40094	
-0.402161	
-0.402832	
-0.403381	
-0.402222	
-0.402283	
-0.401367	
-0.401978	
-0.402283	
-0.402588	
-0.401794	
-0.40155	
-0.401611	
-0.400574	
-0.402405	
-0.402161	
-0.401489	
-0.401428	
-0.401672	
-0.402527	
-0.403076	
-0.402832	
-0.402527	
-0.4021	
-0.402222	
-0.402527	
-0.403015	
-0.402466	
-0.402527	
-0.401733	
-0.401794	
-0.402954	
-0.403564	
-0.402954	
-0.40271	
-0.401978	
-0.403137	
-0.402771	
-0.404358	
-0.403503	
-0.403625	
-0.402161	
-0.40387	
-0.404785	
-0.404724	
-0.403748	
-0.404419	
-0.402832	
-0.404053	
-0.405701	
-0.404236	
-0.404114	
-0.404419	
-0.403992	
-0.404785	
-0.405151	
-0.404419	
-0.405457	
-0.404053	
-0.403564	
-0.404297	
-0.404541	
-0.403992	
-0.404663	
-0.403137	
-0.403931	
-0.404541	
-0.404907	
-0.404297	
-0.403687	
-0.402893	
-0.404663	
-0.403687	
-0.403625	
-0.40332	
-0.402466	
-0.400879	
-0.402405	
-0.403564	
-0.403015	
-0.403625	
-0.402832	
-0.401306	
-0.402161	
-0.402466	
-0.402466	
-0.402893	
-0.402283	
-0.401855	
-0.402771	
-0.404419	
-0.402588	
-0.402893	
-0.401917	
-0.402405	
-0.4021	
-0.403809	
-0.40271	
-0.402161	
-0.401917	
-0.402466	
-0.402466	
-0.401917	
-0.4021	
-0.401978	
-0.399719	
-0.40155	
-0.401611	
-0.402405	
-0.401855	
-0.401367	
-0.400391	
-0.401428	
-0.402466	
-0.401245	
-0.401184	
-0.400513	
-0.400146	
-0.401245	
-0.40094	
-0.400757	
-0.400696	
-0.401245	
-0.399719	
-0.401306	
-0.402222	
-0.400696	
-0.400818	
-0.399719	
-0.400696	
-0.400024	
-0.40155	
-0.400269	
-0.40033	
-0.399658	
-0.400391	
-0.401489	
-0.40033	
-0.399963	
-0.400574	
-0.398926	
-0.399414	
-0.399841	
-0.400391	
-0.399475	
-0.398926	
-0.398682	
-0.39978	
-0.400269	
-0.399109	
-0.399658	
-0.399719	
-0.398621	
-0.399597	
-0.400696	
-0.400208	
-0.399963	
-0.399292	
-0.398193	
-0.399841	
-0.400269	
-0.399414	
-0.400513	
-0.398621	
-0.400024	
-0.400452	
-0.401855	
-0.40094	
-0.401123	
-0.400757	
-0.401306	
-0.401978	
-0.401489	
-0.400818	
-0.400757	
-0.399902	
-0.399841	
-0.399292	
-0.400391	
-0.399353	
-0.398926	
-0.397827	
-0.399353	
-0.399963	
-0.399048	
-0.398987	
-0.397949	
-0.39801	
-0.399109	
-0.398682	
-0.398499	
-0.398438	
-0.397827	
-0.39801	
-0.398804	
-0.399353	
-0.398682	
-0.399353	
-0.397095	
-0.398132	
-0.398438	
-0.399475	
-0.398682	
-0.398621	
-0.397644	
-0.398499	
-0.399353	
-0.399475	
-0.398193	
-0.397339	
-0.397522	
-0.39801	
-0.398132	
-0.399902	
-0.398193	
-0.398071	
-0.396851	
-0.398499	
-0.398682	
-0.398499	
-0.398743	
-0.398315	
-0.39801	
-0.399414	
-0.40094	
-0.399841	
-0.399109	
-0.398682	
-0.399536	
-0.400146	
-0.40033	
-0.400574	
-0.400879	
-0.399048	
-0.399109	
-0.400208	
-0.400391	
-0.400513	
-0.399902	
-0.398804	
-0.398865	
-0.399475	
-0.399292	
-0.399475	
-0.399109	
-0.398865	
-0.39917	
-0.398071	
-0.400024	
-0.398804	
-0.398743	
-0.39856	
-0.399475	
-0.399414	
-0.399597	
-0.399353	
-0.397705	
-0.398804	
-0.398743	
-0.400024	
-0.399475	
-0.398743	
-0.398315	
-0.39856	
-0.398865	
-0.398743	
-0.399048	
-0.397949	
-0.398438	
-0.398254	
-0.397888	
-0.399048	
-0.398682	
-0.399231	
-0.398132	
-0.397766	
-0.399353	
-0.398926	
-0.399353	
-0.398193	
-0.397644	
-0.396851	
-0.398804	
-0.398193	
-0.3974	
-0.397949	
-0.3974	
-0.397583	
-0.397522	
-0.397705	
-0.397949	
-0.395508	
-0.396912	
-0.395996	
-0.397339	
-0.397095	
-0.396729	
-0.39624	
-0.396484	
-0.397827	
-0.39679	
-0.397583	
-0.396729	
-0.396545	
-0.396057	
-0.39624	
-0.397461	
-0.397156	
-0.396484	
-0.395996	
-0.396179	
-0.3974	
-0.397217	
-0.39856	
-0.39624	
-0.396545	
-0.397156	
-0.396667	
-0.397461	
-0.397034	
-0.396667	
-0.395874	
-0.396423	
-0.395996	
-0.396423	
-0.397644	
-0.395386	
-0.397034	
-0.396912	
-0.398499	
-0.397766	
-0.397522	
-0.397949	
-0.397217	
-0.398743	
-0.397583	
-0.397949	
-0.397766	
-0.398071	
-0.397644	
-0.396362	
-0.398987	
-0.398071	
-0.397583	
-0.396973	
-0.397461	
-0.398071	
-0.397949	
-0.398132	
-0.396301	
-0.398254	
-0.397766	
-0.397034	
-0.398499	
-0.397644	
-0.397278	
-0.395874	
-0.3974	
-0.397217	
-0.397095	
-0.398315	
-0.396912	
-0.396667	
-0.396729	
-0.398376	
-0.397339	
-0.396179	
-0.396729	
-0.395569	
-0.396973	
-0.396606	
-0.396423	
-0.39679	
-0.395935	
-0.396179	
-0.395386	
-0.396912	
-0.395752	
-0.395691	
-0.395691	
-0.394226	
-0.396423	
-0.395752	
-0.395386	
-0.395203	
-0.395813	
-0.395203	
-0.394409	
-0.395996	
-0.395386	
-0.39624	
-0.394592	
-0.39563	
-0.395508	
-0.39679	
-0.398254	
-0.395508	
-0.396606	
-0.39624	
-0.395996	
-0.396179	
-0.396606	
-0.396179	
-0.394592	
-0.396973	
-0.396301	
-0.396484	
-0.397522	
-0.396301	
-0.396851	
-0.396851	
-0.397827	
-0.396729	
-0.396667	
-0.395996	
-0.39563	
-0.397522	
-0.396912	
-0.397461	
-0.397583	
-0.396484	
-0.396179	
-0.395752	
-0.398438	
-0.396973	
-0.396912	
-0.39679	
-0.397217	
-0.397217	
-0.397339	
-0.397583	
-0.395996	
-0.397156	
-0.396912	
-0.3974	
-0.39856	
-0.397278	
-0.397827	
-0.39679	
-0.398865	
-0.397888	
-0.397705	
-0.398804	
-0.397827	
-0.397461	
-0.397339	
-0.398193	
-0.398193	
-0.397583	
-0.39801	
-0.396912	
-0.399231	
-0.398804	
-0.398682	
-0.39856	
-0.398865	
-0.398438	
-0.397217	
-0.39917	
-0.39856	
-0.398682	
-0.398193	
-0.398743	
-0.398804	
-0.398987	
-0.399536	
-0.398682	
-0.398926	
-0.398132	
-0.399231	
-0.400391	
-0.398804	
-0.398926	
-0.398865	
-0.399963	
-0.399902	
-0.400146	
-0.399963	
-0.400818	
-0.400085	
-0.399475	
-0.40033	
-0.40033	
-0.400269	
-0.399048	
-0.397156	
-0.400391	
-0.399536	
-0.399536	
-0.399536	
-0.39978	
-0.399536	
-0.398621	
-0.399963	
-0.399353	
-0.398987	
-0.398682	
-0.398804	
-0.398804	
-0.398376	
-0.398804	
-0.397339	
-0.398071	
-0.398499	
-0.397766	
-0.399536	
-0.398987	
-0.39856	
-0.39801	
-0.399414	
-0.398865	
-0.399109	
-0.400024	
-0.399902	
-0.399292	
-0.399658	
-0.399719	
-0.401001	
-0.400635	
-0.40033	
-0.399353	
-0.401001	
-0.399536	
-0.400269	
-0.40094	
-0.399963	
-0.400085	
-0.400024	
-0.400208	
-0.400391	
-0.400208	
-0.40033	
-0.400085	
-0.399841	
-0.399841	
-0.400635	
-0.399109	
-0.400269	
-0.400146	
-0.399292	
-0.40033	
-0.400574	
-0.400085	
-0.400696	
-0.401184	
-0.400513	
-0.400269	
-0.400452	
-0.400208	
-0.400208	
-0.399902	
-0.399414	
-0.402344	
-0.400208	
-0.400391	
-0.40033	
-0.400513	
-0.39978	
-0.399902	
-0.400146	
-0.400391	
-0.399536	
-0.399963	
-0.400146	
-0.399902	
-0.398499	
-0.39917	
-0.397461	
-0.399414	
-0.399719	
-0.398804	
-0.399475	
-0.400208	
-0.399597	
-0.398865	
-0.400574	
-0.399963	
-0.399597	
-0.399536	
-0.398315	
-0.399414	
-0.39978	
-0.400024	
-0.399109	
-0.399475	
-0.399109	
-0.399109	
-0.399536	
-0.400208	
-0.399719	
-0.399231	
-0.399597	
-0.399841	
-0.39978	
-0.399597	
-0.399902	
-0.399658	
-0.400085	
-0.398804	
-0.399475	
-0.400452	
-0.399719	
-0.39856	
-0.400574	
-0.399719	
-0.399414	
-0.400574	
-0.399841	
-0.399292	
-0.400146	
-0.400269	
-0.400513	
-0.400146	
-0.399841	
-0.400024	
-0.400269	
-0.400269	
-0.400696	
-0.400208	
-0.40155	
-0.401062	
-0.399841	
-0.401611	
-0.401611	
-0.400696	
-0.400818	
-0.401855	
-0.401306	
-0.401184	
-0.401978	
-0.401611	
-0.401855	
-0.401428	
-0.401367	
-0.401672	
-0.401428	
-0.401306	
-0.400513	
-0.401672	
-0.401428	
-0.401489	
-0.401245	
-0.401489	
-0.401306	
-0.400879	
-0.400879	
-0.401245	
-0.401184	
-0.400879	
-0.400635	
-0.401001	
-0.401245	
-0.401184	
-0.401001	
-0.4021	
-0.401733	
-0.401917	
-0.403137	
-0.401001	
-0.401855	
-0.401611	
-0.401245	
-0.400818	
-0.400513	
-0.400452	
-0.401306	
-0.400452	
-0.400208	
-0.400513	
-0.401184	
-0.40033	
-0.400879	
-0.39978	
-0.399414	
-0.400452	
-0.400146	
-0.400024	
-0.400513	
-0.401184	
-0.400452	
-0.399719	
-0.400696	
-0.400635	
-0.400574	
-0.398926	
-0.400146	
-0.400085	
-0.399475	
-0.398865	
-0.40033	
-0.401245	
-0.401062	
-0.39978	
-0.401001	
-0.401062	
-0.401245	
-0.40033	
-0.401001	
-0.400696	
-0.400635	
-0.401367	
-0.401428	
-0.401978	
-0.401428	
-0.401733	
-0.402588	
-0.40155	
-0.401367	
-0.402649	
-0.401672	
-0.401367	
-0.401245	
-0.403015	
-0.402283	
-0.40271	
-0.402405	
-0.403442	
-0.401611	
-0.402039	
-0.402649	
-0.401978	
-0.402771	
-0.402527	
-0.401672	
-0.402344	
-0.402405	
-0.403259	
-0.401978	
-0.402283	
-0.400818	
-0.401794	
-0.401245	
-0.401062	
-0.401917	
-0.401794	
-0.401306	
-0.4021	
-0.402283	
-0.401672	
-0.401123	
-0.401733	
-0.400208	
-0.401123	
-0.401794	
-0.400024	
-0.400818	
-0.400696	
-0.401917	
-0.400818	
-0.400879	
-0.400879	
-0.400757	
-0.400208	
-0.400269	
-0.400208	
-0.400696	
-0.400696	
-0.400574	
-0.399292	
-0.401306	
-0.400452	
-0.40033	
-0.399475	
-0.400024	
-0.400696	
-0.400146	
-0.399353	
-0.399292	
-0.399536	
-0.399048	
-0.398987	
-0.400085	
-0.398743	
-0.398987	
-0.398865	
-0.399597	
-0.39856	
-0.399414	
-0.399841	
-0.398254	
-0.399048	
-0.398621	
-0.400024	
-0.399048	
-0.399536	
-0.398926	
-0.398743	
-0.399109	
-0.397217	
-0.398193	
-0.398621	
-0.398254	
-0.398438	
-0.398132	
-0.399475	
-0.398193	
-0.398804	
-0.398132	
-0.398254	
-0.398804	
-0.397583	
-0.397705	
-0.397644	
-0.397766	
-0.397949	
-0.396912	
-0.397888	
-0.397583	
-0.39856	
-0.397461	
-0.397339	
-0.397156	
-0.396729	
-0.396301	
-0.396057	
-0.397095	
-0.397278	
-0.397095	
-0.397461	
-0.397278	
-0.397949	
-0.39679	
-0.397766	
-0.396851	
-0.397278	
-0.397583	
-0.395142	
-0.396729	
-0.397461	
-0.397644	
-0.397217	
-0.398132	
-0.398865	
-0.399231	
-0.39917	
-0.39856	
-0.398865	
-0.399231	
-0.397827	
-0.398438	
-0.397827	
-0.398254	
-0.397461	
-0.397278	
-0.397461	
-0.397461	
-0.397644	
-0.396667	
-0.396851	
-0.397217	
-0.396606	
-0.396179	
-0.396301	
-0.396484	
-0.395935	
-0.39563	
-0.396057	
-0.395874	
-0.395935	
-0.395508	
-0.395264	
-0.395264	
-0.395874	
-0.396057	
-0.394836	
-0.396606	
-0.395935	
-0.39679	
-0.395874	
-0.396179	
-0.396118	
-0.396423	
-0.396301	
-0.39502	
-0.395935	
-0.395752	
-0.394775	
-0.395752	
-0.395386	
-0.396606	
-0.395874	
-0.397034	
-0.395752	
-0.395386	
-0.396423	
-0.395813	
-0.396057	
-0.395996	
-0.397034	
-0.396179	
-0.397278	
-0.397095	
-0.397217	
-0.398254	
-0.396118	
-0.396423	
-0.397522	
-0.397949	
-0.397095	
-0.397766	
-0.398926	
-0.397949	
-0.397888	
-0.397766	
-0.398071	
-0.396973	
-0.395874	
-0.39624	
-0.396729	
-0.396606	
-0.396667	
-0.396362	
-0.396057	
-0.396606	
-0.396667	
-0.395996	
-0.396484	
-0.396118	
-0.39563	
-0.396484	
-0.395935	
-0.39679	
-0.39563	
-0.394836	
-0.396179	
-0.395813	
-0.396545	
-0.397217	
-0.396912	
-0.395508	
-0.39624	
-0.39679	
-0.395996	
-0.395935	
-0.395508	
-0.396729	
-0.39563	
-0.395996	
-0.396851	
-0.396423	
-0.396667	
-0.396545	
-0.395874	
-0.396362	
-0.395813	
-0.39563	
-0.395691	
-0.396301	
-0.394897	
-0.395447	
-0.395569	
-0.395508	
-0.394531	
-0.394592	
-0.393616	
-0.394287	
-0.394409	
-0.394043	
-0.394348	
-0.394287	
-0.393921	
-0.394592	
-0.393616	
-0.394226	
-0.393677	
-0.393127	
-0.39386	
-0.392944	
-0.393738	
-0.394348	
-0.392944	
-0.393799	
-0.394226	
-0.393982	
-0.393799	
-0.395264	
-0.393982	
-0.3927	
-0.39502	
-0.394287	
-0.394104	
-0.394165	
-0.394897	
-0.394348	
-0.394043	
-0.395142	
-0.395081	
-0.394531	
-0.393188	
-0.3927	
-0.393738	
-0.393188	
-0.393982	
-0.39386	
-0.394836	
-0.394348	
-0.394897	
-0.395447	
-0.395508	
-0.395508	
-0.394409	
-0.393921	
-0.39447	
-0.39502	
-0.394775	
-0.394348	
-0.395813	
-0.395325	
-0.394897	
-0.395935	
-0.395752	
-0.394958	
-0.394653	
-0.393494	
-0.393555	
-0.394348	
-0.394653	
-0.393677	
-0.39502	
-0.395142	
-0.394836	
-0.394531	
-0.395447	
-0.394653	
-0.393738	
-0.394775	
-0.394409	
-0.394409	
-0.393616	
-0.39386	
-0.394348	
-0.394043	
-0.394531	
-0.394104	
-0.394836	
-0.394104	
-0.393311	
-0.393738	
-0.392517	
-0.392761	
-0.392578	
-0.393921	
-0.392822	
-0.393066	
-0.393494	
-0.393677	
-0.393616	
-0.392944	
-0.392151	
-0.392395	
-0.392639	
-0.392273	
-0.392456	
-0.393677	
-0.393005	
-0.393372	
-0.393311	
-0.392883	
-0.393066	
-0.393005	
-0.392212	
-0.392639	
-0.393616	
-0.394043	
-0.393311	
-0.393677	
-0.393555	
-0.393616	
-0.394104	
-0.393921	
-0.39325	
-0.392822	
-0.393921	
-0.393311	
-0.393433	
	
