E:\DOCUMENTS AND SETTINGS\JPOTAS\MEUS DOCUMENTOS\UFRJ\RSCI-BM 12 WK SERIES\070723-RSCI-BM-06\RSCI-BM-06-LEMG\070723-RSCI-BM-LEMG-0020.ACQ
0.025000 msec/sample
1 channel
Analog input
Volts
CH1	
2000	
-0.38855	
-0.387817	
-0.387695	
-0.387695	
-0.388489	
-0.387085	
-0.387268	
-0.387878	
-0.387268	
-0.387573	
-0.388306	
-0.387268	
-0.387146	
-0.388367	
-0.388367	
-0.388733	
-0.387939	
-0.389465	
-0.388184	
-0.388611	
-0.389465	
-0.389832	
-0.389282	
-0.388672	
-0.388977	
-0.389771	
-0.389343	
-0.388733	
-0.389954	
-0.388428	
-0.390137	
-0.389893	
-0.390076	
-0.390137	
-0.390076	
-0.390442	
-0.390564	
-0.390076	
-0.39093	
-0.390564	
-0.390747	
-0.392212	
-0.393005	
-0.392578	
-0.39325	
-0.393494	
-0.393433	
-0.393982	
-0.393433	
-0.395264	
-0.393799	
-0.394043	
-0.394226	
-0.395752	
-0.394592	
-0.394348	
-0.394714	
-0.39502	
-0.395264	
-0.39325	
-0.394165	
-0.39386	
-0.394104	
-0.393982	
-0.394592	
-0.393738	
-0.393494	
-0.392639	
-0.394043	
-0.393616	
-0.393738	
-0.393372	
-0.391602	
-0.393066	
-0.393433	
-0.393005	
-0.392456	
-0.392822	
-0.393066	
-0.393066	
-0.3927	
-0.393311	
-0.392334	
-0.392334	
-0.392639	
-0.393066	
-0.392029	
-0.391174	
-0.393494	
-0.392334	
-0.392517	
-0.391724	
-0.392456	
-0.391907	
-0.392212	
-0.391418	
-0.392578	
-0.391235	
-0.391479	
-0.391052	
-0.392334	
-0.393616	
-0.393311	
-0.392822	
-0.392151	
-0.393372	
-0.392639	
-0.393127	
-0.393127	
-0.393738	
-0.393616	
-0.393433	
-0.393982	
-0.394226	
-0.394043	
-0.392822	
-0.395142	
-0.394775	
-0.39502	
-0.393311	
-0.394592	
-0.394592	
-0.394958	
-0.393555	
-0.395508	
-0.394653	
-0.394775	
-0.394165	
-0.395447	
-0.394348	
-0.394165	
-0.393555	
-0.394104	
-0.394836	
-0.394348	
-0.393738	
-0.392883	
-0.392944	
-0.391602	
-0.392456	
-0.391174	
-0.391357	
-0.390015	
-0.39093	
-0.391052	
-0.390564	
-0.39032	
-0.389099	
-0.39093	
-0.390137	
-0.390198	
-0.389771	
-0.390991	
-0.390991	
-0.390686	
-0.390137	
-0.391724	
-0.391113	
-0.391235	
-0.390503	
-0.391724	
-0.390808	
-0.390869	
-0.391235	
-0.391846	
-0.39209	
-0.390564	
-0.392456	
-0.392151	
-0.391907	
-0.391174	
-0.392639	
-0.391602	
-0.392578	
-0.391357	
-0.392151	
-0.393127	
-0.393127	
-0.392395	
-0.391785	
-0.393921	
-0.393921	
-0.394287	
-0.394104	
-0.395935	
-0.395325	
-0.395874	
-0.395264	
-0.396729	
-0.396484	
-0.396851	
-0.397156	
-0.397888	
-0.397766	
-0.3974	
-0.39856	
-0.39801	
-0.396301	
-0.397217	
-0.39801	
-0.39801	
-0.397583	
-0.397949	
-0.398254	
-0.396973	
-0.39563	
-0.395752	
-0.396362	
-0.397034	
-0.396057	
-0.395142	
-0.395264	
-0.395996	
-0.396118	
-0.395752	
-0.395447	
-0.395386	
-0.393799	
-0.394958	
-0.395325	
-0.395569	
-0.394714	
-0.394409	
-0.394653	
-0.39502	
-0.394226	
-0.393799	
-0.394836	
-0.394226	
-0.393799	
-0.392395	
-0.39386	
-0.393311	
-0.39325	
-0.394836	
-0.394531	
-0.393494	
-0.393433	
-0.393127	
-0.393616	
-0.394348	
-0.394836	
-0.39386	
-0.392944	
-0.39325	
-0.394287	
-0.394165	
-0.394592	
-0.395691	
-0.395874	
-0.39856	
-0.401794	
-0.404724	
-0.407227	
-0.410339	
-0.414429	
-0.419739	
-0.424133	
-0.429077	
-0.434387	
-0.44043	
-0.447876	
-0.456421	
-0.463501	
-0.472473	
-0.483643	
-0.497253	
-0.510559	
-0.52417	
-0.536316	
-0.547729	
-0.558777	
-0.567688	
-0.575562	
-0.582825	
-0.589844	
-0.59552	
-0.599976	
-0.602051	
-0.604065	
-0.604858	
-0.605591	
-0.60553	
-0.604492	
-0.602417	
-0.599548	
-0.596313	
-0.594299	
-0.591064	
-0.588501	
-0.586121	
-0.584167	
-0.582764	
-0.581238	
-0.579163	
-0.577576	
-0.576782	
-0.576355	
-0.574524	
-0.572693	
-0.572876	
-0.571716	
-0.571533	
-0.569458	
-0.569885	
-0.567261	
-0.565918	
-0.564026	
-0.562805	
-0.560242	
-0.557251	
-0.552917	
-0.54834	
-0.543884	
-0.539124	
-0.532349	
-0.525696	
-0.517822	
-0.511108	
-0.505432	
-0.498413	
-0.492737	
-0.486816	
-0.482178	
-0.4776	
-0.475037	
-0.471252	
-0.468445	
-0.466003	
-0.463867	
-0.46106	
-0.457642	
-0.454468	
-0.451965	
-0.450073	
-0.448181	
-0.446289	
-0.442444	
-0.439026	
-0.436401	
-0.434265	
-0.431458	
-0.427612	
-0.425232	
-0.422058	
-0.418213	
-0.4151	
-0.411377	
-0.40564	
-0.398865	
-0.394409	
-0.389954	
-0.383118	
-0.377014	
-0.369629	
-0.362549	
-0.355286	
-0.347656	
-0.338074	
-0.328918	
-0.318604	
-0.309753	
-0.300964	
-0.290771	
-0.281433	
-0.273987	
-0.266785	
-0.259705	
-0.255188	
-0.249756	
-0.246643	
-0.245117	
-0.244141	
-0.243774	
-0.244812	
-0.244568	
-0.245117	
-0.247009	
-0.249695	
-0.251526	
-0.253174	
-0.255737	
-0.259705	
-0.263123	
-0.267334	
-0.271729	
-0.27655	
-0.28064	
-0.286499	
-0.2901	
-0.295166	
-0.299316	
-0.304871	
-0.309448	
-0.313477	
-0.316528	
-0.319519	
-0.322449	
-0.325745	
-0.327148	
-0.328552	
-0.328491	
-0.331848	
-0.332703	
-0.333435	
-0.333984	
-0.334595	
-0.336121	
-0.338013	
-0.337524	
-0.338074	
-0.338562	
-0.34021	
-0.341919	
-0.342407	
-0.343323	
-0.343872	
-0.346069	
-0.347778	
-0.348633	
-0.349854	
-0.350647	
-0.351685	
-0.353638	
-0.354126	
-0.35553	
-0.355835	
-0.357178	
-0.359619	
-0.360413	
-0.36084	
-0.361938	
-0.361572	
-0.363953	
-0.364807	
-0.366028	
-0.366028	
-0.366455	
-0.366638	
-0.36853	
-0.368652	
-0.36853	
-0.368286	
-0.36908	
-0.36853	
-0.369934	
-0.369385	
-0.369385	
-0.368652	
-0.370361	
-0.369568	
-0.369568	
-0.369019	
-0.369446	
-0.36908	
-0.369934	
-0.370056	
-0.369141	
-0.368896	
-0.370239	
-0.370361	
-0.369385	
-0.369995	
-0.368958	
-0.37085	
-0.370544	
-0.370728	
-0.369873	
-0.371216	
-0.372314	
-0.37323	
-0.373169	
-0.374146	
-0.373718	
-0.37561	
-0.375061	
-0.376587	
-0.37561	
-0.376282	
-0.375977	
-0.378601	
-0.377502	
-0.377075	
-0.376892	
-0.377075	
-0.377197	
-0.377258	
-0.376343	
-0.376648	
-0.376587	
-0.37793	
-0.378174	
-0.377014	
-0.378235	
-0.377258	
-0.377625	
-0.376892	
-0.376831	
-0.37738	
-0.377136	
-0.378296	
-0.378723	
-0.377808	
-0.37854	
-0.378479	
-0.377747	
-0.37738	
-0.37738	
-0.378357	
-0.377502	
-0.378906	
-0.37915	
-0.378235	
-0.378723	
-0.378357	
-0.377625	
-0.376892	
-0.375977	
-0.37616	
-0.37561	
-0.375854	
-0.376526	
-0.37561	
-0.375427	
-0.375732	
-0.375122	
-0.374451	
-0.374268	
-0.375061	
-0.374817	
-0.375244	
-0.375549	
-0.374939	
-0.37561	
-0.376282	
-0.376404	
-0.37616	
-0.377075	
-0.377747	
-0.377502	
-0.377197	
-0.379089	
-0.377869	
-0.378296	
-0.377686	
-0.378967	
-0.378723	
-0.37915	
-0.378418	
-0.378906	
-0.378418	
-0.379883	
-0.379761	
-0.379639	
-0.38031	
-0.380737	
-0.379639	
-0.379883	
-0.380493	
-0.381531	
-0.381042	
-0.381592	
-0.382263	
-0.381409	
-0.382019	
-0.381348	
-0.38208	
-0.382141	
-0.382141	
-0.382568	
-0.382629	
-0.382629	
-0.384399	
-0.383484	
-0.383667	
-0.382874	
-0.384155	
-0.383667	
-0.384766	
-0.384155	
-0.383911	
-0.383606	
-0.384277	
-0.384338	
-0.383545	
-0.383728	
-0.383423	
-0.383789	
-0.383118	
-0.383301	
-0.382568	
-0.382996	
-0.38324	
-0.38446	
-0.383789	
-0.383728	
-0.382019	
-0.383972	
-0.383423	
-0.383972	
-0.383545	
-0.383545	
-0.382629	
-0.38562	
-0.384277	
-0.383545	
-0.38324	
-0.384644	
-0.384521	
-0.384644	
-0.384644	
-0.384521	
-0.384705	
-0.386292	
-0.385681	
-0.385925	
-0.387024	
-0.387512	
-0.387451	
-0.387085	
-0.388672	
-0.387329	
-0.388306	
-0.389648	
-0.389343	
-0.388855	
-0.38916	
-0.389282	
-0.390259	
-0.389221	
-0.389832	
-0.388916	
-0.389282	
-0.389221	
-0.389893	
-0.389343	
-0.389526	
-0.388306	
-0.389587	
-0.389099	
-0.390747	
-0.389587	
-0.38916	
-0.388489	
-0.390503	
-0.389038	
-0.389099	
-0.389221	
-0.389099	
-0.389343	
-0.388672	
-0.388611	
-0.387939	
-0.388855	
-0.389954	
-0.38855	
-0.387878	
-0.387512	
-0.387878	
-0.387207	
-0.385925	
-0.385742	
-0.384277	
-0.384888	
-0.385559	
-0.38446	
-0.383728	
-0.384033	
-0.383606	
-0.383972	
-0.383423	
-0.383606	
-0.382507	
-0.38269	
-0.382385	
-0.38385	
-0.383545	
-0.383301	
-0.383423	
-0.383972	
-0.384216	
-0.384338	
-0.383423	
-0.384094	
-0.384705	
-0.385925	
-0.384705	
-0.384583	
-0.385254	
-0.385315	
-0.386475	
-0.385498	
-0.385925	
-0.38501	
-0.385986	
-0.387024	
-0.386902	
-0.386414	
-0.386902	
-0.385742	
-0.386597	
-0.386841	
-0.387939	
-0.386719	
-0.387329	
-0.387085	
-0.38855	
-0.388	
-0.388855	
-0.388794	
-0.389282	
-0.390503	
-0.390015	
-0.390564	
-0.389465	
-0.390442	
-0.391418	
-0.391602	
-0.391785	
-0.391785	
-0.391357	
-0.39209	
-0.391968	
-0.392578	
-0.391785	
-0.391174	
-0.390503	
-0.391907	
-0.391296	
-0.391602	
-0.389709	
-0.391296	
-0.392517	
-0.391724	
-0.390625	
-0.390503	
-0.390686	
-0.391663	
-0.390869	
-0.391235	
-0.390991	
-0.390686	
-0.390808	
-0.389587	
-0.390686	
-0.390137	
-0.389954	
-0.390259	
-0.391113	
-0.390137	
-0.390564	
-0.388123	
-0.390198	
-0.390442	
-0.390991	
-0.389771	
-0.389709	
-0.388611	
-0.39093	
-0.389526	
-0.390198	
-0.389893	
-0.389893	
-0.390076	
-0.390869	
-0.389587	
-0.389954	
-0.389771	
-0.390991	
-0.390747	
-0.390381	
-0.39093	
-0.391235	
-0.391113	
-0.390625	
-0.391296	
-0.391663	
-0.39093	
-0.391479	
-0.393188	
-0.392151	
-0.392517	
-0.390503	
-0.392639	
-0.392517	
-0.393127	
-0.392212	
-0.392273	
-0.391724	
-0.393066	
-0.392334	
-0.392395	
-0.3927	
-0.392944	
-0.392639	
-0.392822	
-0.392212	
-0.392822	
-0.392456	
-0.392761	
-0.393555	
-0.392212	
-0.392273	
-0.389893	
-0.390808	
-0.390198	
-0.390198	
-0.390137	
-0.38916	
-0.387573	
-0.389404	
-0.388306	
-0.388611	
-0.38855	
-0.388611	
-0.387817	
-0.38916	
-0.38855	
-0.388245	
-0.388	
-0.388916	
-0.390198	
-0.388977	
-0.389771	
-0.388489	
-0.389465	
-0.389526	
-0.390076	
-0.389526	
-0.389343	
-0.388611	
-0.390808	
-0.389709	
-0.390198	
-0.389771	
-0.390137	
-0.39032	
-0.391174	
-0.390442	
-0.390198	
-0.389832	
-0.391052	
-0.392212	
-0.390686	
-0.39209	
-0.389404	
-0.390991	
-0.391846	
-0.392029	
-0.392578	
-0.393066	
-0.39325	
-0.394409	
-0.394165	
-0.394897	
-0.395508	
-0.395325	
-0.395447	
-0.396606	
-0.395813	
-0.396179	
-0.395935	
-0.397156	
-0.397705	
-0.396606	
-0.3974	
-0.394714	
-0.39679	
-0.396179	
-0.396362	
-0.395752	
-0.39502	
-0.394348	
-0.395325	
-0.394653	
-0.394836	
-0.395447	
-0.394409	
-0.394348	
-0.394409	
-0.394409	
-0.394409	
-0.39386	
-0.394653	
-0.395752	
-0.394104	
-0.394165	
-0.392761	
-0.393311	
-0.393494	
-0.394653	
-0.393921	
-0.393494	
-0.391113	
-0.394226	
-0.39325	
-0.393066	
-0.392944	
-0.392151	
-0.392273	
-0.392761	
-0.392456	
-0.392334	
-0.392334	
-0.392456	
-0.393616	
-0.392883	
-0.39325	
-0.39209	
-0.39209	
-0.392273	
-0.39325	
-0.392151	
-0.392578	
-0.390503	
-0.393188	
-0.393799	
-0.393311	
-0.393555	
-0.392944	
-0.393005	
-0.394043	
-0.39386	
-0.393372	
-0.3927	
-0.394104	
-0.395386	
-0.394409	
-0.39447	
-0.393066	
-0.394226	
-0.394287	
-0.394104	
-0.394226	
-0.393982	
-0.393555	
-0.394958	
-0.395264	
-0.394714	
-0.39447	
-0.393311	
-0.394592	
-0.394897	
-0.394043	
-0.393982	
-0.392944	
-0.393433	
-0.394287	
-0.393066	
-0.392822	
-0.393005	
-0.392517	
-0.391846	
-0.390442	
-0.390076	
-0.390259	
-0.389771	
-0.390747	
-0.39093	
-0.390686	
-0.390442	
-0.390137	
-0.39093	
-0.391724	
-0.390503	
-0.39032	
-0.389526	
-0.390991	
-0.391235	
-0.390747	
-0.390869	
-0.391174	
-0.389893	
-0.39093	
-0.390381	
-0.390747	
-0.391052	
-0.389893	
-0.391663	
-0.392822	
-0.391479	
-0.391907	
-0.39093	
-0.392151	
-0.393127	
-0.392639	
-0.392456	
-0.391663	
-0.392456	
-0.39325	
-0.394653	
-0.394287	
-0.394836	
-0.393372	
-0.396057	
-0.395386	
-0.396545	
-0.396484	
-0.395874	
-0.397339	
-0.39856	
-0.398132	
-0.398132	
-0.397217	
-0.398682	
-0.400146	
-0.39917	
-0.399414	
-0.398315	
-0.399536	
-0.399597	
-0.40094	
-0.39917	
-0.399902	
-0.3974	
-0.398743	
-0.398499	
-0.398376	
-0.397705	
-0.39679	
-0.397034	
-0.39801	
-0.397461	
-0.3974	
-0.396057	
-0.397278	
-0.397644	
-0.397034	
-0.397217	
-0.396179	
-0.396484	
-0.396423	
-0.398193	
-0.395569	
-0.396545	
-0.394836	
-0.395935	
-0.395325	
-0.395813	
-0.395508	
-0.394104	
-0.394958	
-0.394775	
-0.394409	
-0.393738	
-0.392761	
-0.391113	
-0.393311	
-0.392517	
-0.392639	
-0.39209	
-0.392212	
-0.39209	
-0.393066	
-0.392212	
-0.393005	
-0.39093	
-0.391968	
-0.392517	
-0.392273	
-0.392151	
-0.391968	
-0.392822	
-0.392944	
-0.393433	
-0.392761	
-0.392761	
-0.391724	
-0.393127	
-0.391846	
-0.393311	
-0.392578	
-0.392273	
-0.393494	
-0.394165	
-0.393372	
-0.394043	
-0.392639	
-0.393738	
-0.394165	
-0.393799	
-0.393921	
-0.393127	
-0.393494	
-0.394165	
-0.39502	
-0.39386	
-0.394775	
-0.393127	
-0.394409	
-0.394226	
-0.393799	
-0.393799	
-0.393127	
-0.394104	
-0.39502	
-0.39502	
-0.394348	
-0.393066	
-0.393494	
-0.394836	
-0.394592	
-0.393799	
-0.39325	
-0.394043	
-0.393982	
-0.39502	
-0.39386	
-0.394531	
-0.391785	
-0.39386	
-0.393799	
-0.392761	
-0.392151	
-0.392029	
-0.392334	
-0.392273	
-0.392761	
-0.392395	
-0.391846	
-0.390991	
-0.392334	
-0.39093	
-0.391602	
-0.390503	
-0.392395	
-0.391418	
-0.393127	
-0.391968	
-0.39209	
-0.391296	
-0.392395	
-0.392822	
-0.392456	
-0.392944	
-0.391357	
-0.392761	
-0.393738	
-0.395081	
-0.394409	
-0.395325	
-0.394592	
-0.396301	
-0.394165	
-0.396179	
-0.394897	
-0.396362	
-0.396179	
-0.397461	
-0.395935	
-0.396118	
-0.39563	
-0.39624	
-0.396179	
-0.395691	
-0.395325	
-0.394836	
-0.395386	
-0.395508	
-0.395996	
-0.394897	
-0.39563	
-0.394897	
-0.395813	
-0.394348	
-0.394409	
-0.393982	
-0.394531	
-0.394409	
-0.394958	
-0.394897	
-0.39502	
-0.394165	
-0.393372	
-0.394958	
-0.394165	
-0.393799	
-0.393494	
-0.393372	
-0.393677	
-0.393921	
-0.393005	
-0.393616	
-0.39093	
-0.392578	
-0.391296	
-0.390686	
-0.390808	
-0.389648	
-0.389771	
-0.389648	
-0.389832	
-0.38916	
-0.388977	
-0.388794	
-0.389282	
-0.388184	
-0.388306	
-0.388245	
-0.389526	
-0.389526	
-0.389526	
-0.389404	
-0.390198	
-0.388733	
-0.389832	
-0.390869	
-0.390564	
-0.390625	
-0.389282	
-0.390564	
-0.390808	
-0.391052	
-0.391235	
-0.391296	
-0.390686	
-0.391357	
-0.390503	
-0.390442	
-0.390137	
-0.390869	
-0.391785	
-0.391541	
-0.392578	
-0.392639	
-0.391724	
-0.39209	
-0.392334	
-0.391663	
-0.391418	
-0.391968	
-0.392456	
-0.393005	
-0.392639	
-0.39386	
-0.392395	
-0.392517	
-0.391907	
-0.393494	
-0.393005	
-0.392578	
-0.391968	
-0.39325	
-0.393433	
-0.393555	
-0.394104	
-0.3927	
-0.394043	
-0.392883	
-0.393127	
-0.392883	
-0.391785	
-0.391602	
-0.392395	
-0.392517	
-0.392334	
-0.391479	
-0.391541	
-0.391052	
-0.392639	
-0.391663	
-0.390991	
-0.39032	
-0.391235	
-0.391785	
-0.390991	
-0.391968	
-0.39032	
-0.391663	
-0.390198	
-0.391174	
-0.390015	
-0.390869	
-0.390442	
-0.391663	
-0.390808	
-0.391357	
-0.391785	
-0.391724	
-0.391296	
-0.391785	
-0.391968	
-0.392273	
-0.3927	
-0.393616	
-0.394226	
-0.393738	
-0.395325	
-0.394104	
-0.395386	
-0.394592	
-0.395874	
-0.394653	
-0.395325	
-0.395081	
-0.395081	
-0.395142	
-0.395386	
-0.396667	
-0.394897	
-0.395325	
-0.393127	
-0.394897	
-0.393738	
-0.39447	
-0.394165	
-0.395691	
-0.394775	
-0.39502	
-0.394287	
-0.394653	
-0.394287	
-0.394958	
-0.394226	
-0.394409	
-0.393921	
-0.394104	
-0.394104	
-0.393433	
-0.394348	
-0.392395	
-0.393616	
-0.39209	
-0.393005	
-0.391479	
-0.391357	
-0.390076	
-0.39093	
-0.389832	
-0.389709	
-0.389648	
-0.388855	
-0.388672	
-0.387024	
-0.387634	
-0.386475	
-0.387207	
-0.387573	
-0.387634	
-0.386963	
-0.387756	
-0.385803	
-0.387085	
-0.386719	
-0.387573	
-0.387024	
-0.38739	
-0.38678	
-0.387268	
-0.387451	
-0.388489	
-0.389526	
-0.388611	
-0.388428	
-0.387085	
-0.389038	
-0.387634	
-0.388489	
-0.38855	
-0.390137	
-0.389404	
-0.389465	
-0.388672	
-0.389465	
-0.389221	
-0.390564	
-0.389404	
-0.389343	
-0.389709	
-0.390259	
-0.389954	
-0.390198	
-0.391296	
-0.389954	
-0.392029	
-0.390137	
-0.392151	
-0.391846	
-0.392822	
-0.39209	
-0.394165	
-0.393005	
-0.394836	
-0.393982	
-0.393921	
-0.394104	
-0.394348	
-0.393921	
-0.393311	
-0.394104	
-0.394348	
-0.39447	
-0.394165	
-0.394775	
-0.392578	
-0.394104	
-0.392578	
-0.394836	
-0.393188	
-0.393372	
-0.392944	
-0.392883	
-0.393555	
-0.394531	
-0.393372	
-0.392883	
-0.39325	
-0.392639	
-0.39325	
-0.391235	
-0.392029	
-0.392334	
-0.393372	
-0.3927	
-0.393372	
-0.391602	
-0.39209	
-0.391235	
-0.392029	
-0.391052	
-0.391541	
-0.391846	
-0.392395	
-0.393127	
-0.392395	
-0.391357	
-0.390808	
-0.3927	
-0.391724	
-0.392578	
-0.391602	
-0.391785	
-0.390808	
-0.392578	
-0.392517	
-0.393982	
-0.392822	
-0.393066	
-0.391663	
-0.392822	
-0.392639	
-0.392456	
-0.392761	
-0.393494	
-0.393921	
-0.393616	
-0.394287	
-0.393494	
-0.394714	
-0.392639	
-0.394653	
-0.393982	
-0.394226	
-0.393677	
-0.394836	
-0.394897	
-0.395142	
-0.39447	
-0.394043	
-0.394043	
-0.394592	
-0.394104	
-0.393677	
-0.393982	
-0.393677	
-0.394287	
-0.393982	
-0.395325	
-0.393616	
-0.393677	
-0.391785	
-0.393066	
-0.390869	
-0.390808	
-0.390808	
-0.390381	
-0.390564	
-0.390564	
-0.390015	
-0.388855	
-0.389526	
-0.389221	
-0.390259	
-0.390137	
-0.389893	
-0.389038	
-0.390015	
-0.390198	
-0.391174	
-0.390564	
-0.391418	
-0.390259	
-0.391357	
-0.390808	
-0.391235	
-0.39093	
-0.39093	
-0.391846	
-0.391479	
-0.392395	
-0.391357	
-0.391602	
-0.39032	
-0.392273	
-0.391235	
-0.391418	
-0.391113	
-0.392029	
-0.392822	
-0.392578	
-0.391846	
-0.391357	
-0.391968	
-0.392639	
-0.392822	
-0.393433	
-0.393921	
-0.394043	
-0.395203	
-0.395325	
-0.397034	
-0.395813	
-0.396667	
-0.395569	
-0.397461	
-0.396423	
-0.397522	
-0.397339	
-0.397827	
-0.398743	
-0.398254	
-0.39856	
-0.39856	
-0.397827	
-0.396057	
-0.397522	
-0.396973	
-0.397644	
-0.395447	
-0.395752	
-0.396667	
-0.397156	
-0.395752	
-0.394775	
-0.394958	
-0.395935	
-0.395691	
-0.395386	
-0.394775	
-0.395386	
-0.39563	
-0.395142	
-0.395447	
-0.395386	
-0.395569	
-0.394348	
-0.395264	
-0.39386	
-0.39386	
-0.393677	
-0.394409	
-0.39563	
-0.394897	
-0.394165	
-0.393372	
-0.393311	
-0.39325	
-0.394104	
-0.393433	
-0.39325	
-0.392578	
-0.393555	
-0.393311	
-0.394592	
-0.394165	
-0.393555	
-0.392212	
-0.393738	
-0.392944	
-0.393005	
-0.393188	
-0.393616	
-0.394043	
-0.394226	
-0.395081	
-0.393921	
-0.394714	
-0.393799	
-0.394958	
-0.392944	
-0.394287	
-0.394287	
-0.395203	
-0.395691	
-0.395447	
-0.39563	
-0.39447	
-0.394409	
-0.394226	
-0.394775	
-0.395447	
-0.395264	
-0.394897	
-0.39563	
-0.395691	
-0.395996	
-0.395386	
-0.395569	
-0.393494	
-0.395569	
-0.394104	
-0.394531	
-0.394104	
-0.394775	
-0.394836	
-0.394409	
-0.394653	
-0.393738	
-0.3927	
-0.391907	
-0.392395	
-0.391174	
-0.391052	
-0.39032	
-0.391296	
-0.39209	
-0.392273	
-0.39093	
-0.390381	
-0.390381	
-0.391418	
-0.391113	
-0.391541	
-0.391174	
-0.391174	
-0.392395	
-0.391663	
-0.392029	
-0.391663	
-0.392273	
-0.391724	
-0.392517	
-0.391479	
-0.391785	
-0.391907	
-0.392151	
-0.392639	
-0.393127	
-0.392883	
-0.392334	
-0.392212	
-0.391479	
-0.393616	
-0.392578	
-0.392883	
-0.3927	
-0.394287	
-0.394775	
-0.395935	
-0.395386	
-0.395081	
-0.394714	
-0.397156	
-0.397095	
-0.396667	
-0.397522	
-0.398254	
-0.398865	
-0.398804	
-0.399536	
-0.399536	
-0.399475	
-0.398926	
-0.399963	
-0.398621	
-0.39978	
-0.399719	
-0.399658	
-0.400696	
-0.400452	
-0.399902	
-0.399231	
-0.398682	
-0.398926	
-0.399902	
-0.398254	
-0.398071	
-0.397644	
-0.398621	
-0.398682	
-0.399048	
-0.396912	
-0.397034	
-0.395691	
-0.397461	
-0.396423	
-0.397827	
-0.397278	
-0.39624	
-0.396606	
-0.396912	
-0.396912	
-0.396057	
-0.395691	
-0.395386	
-0.396423	
-0.395813	
-0.395447	
-0.395142	
-0.394958	
-0.395325	
-0.39447	
-0.393127	
-0.393433	
-0.392334	
-0.393127	
-0.393188	
-0.392822	
-0.393127	
-0.392029	
-0.393188	
-0.392883	
-0.393127	
-0.391724	
-0.3927	
-0.390686	
-0.392456	
-0.392578	
-0.39325	
-0.393066	
-0.392944	
-0.393066	
-0.393188	
-0.39325	
-0.393311	
-0.392883	
-0.392212	
-0.394104	
-0.393616	
-0.393127	
-0.393372	
-0.393311	
-0.394531	
-0.395081	
-0.394958	
-0.393799	
-0.393311	
-0.394409	
-0.393738	
-0.393982	
-0.394165	
-0.393127	
-0.394531	
-0.39447	
-0.395752	
-0.394653	
-0.394592	
-0.3927	
-0.394653	
-0.394104	
-0.394836	
-0.394653	
-0.394348	
-0.395447	
-0.394836	
-0.394653	
-0.394653	
-0.39447	
-0.394348	
-0.394836	
-0.393921	
-0.393982	
-0.394104	
-0.394104	
-0.394531	
-0.395447	
-0.393677	
-0.392395	
-0.392517	
-0.392334	
-0.391479	
-0.393005	
-0.392395	
-0.392029	
-0.3927	
-0.392334	
-0.392517	
-0.392273	
-0.391724	
-0.39093	
-0.392212	
-0.391846	
-0.392151	
-0.391785	
-0.391907	
-0.3927	
-0.392822	
-0.391724	
-0.392273	
-0.392334	
-0.392517	
-0.392639	
-0.392822	
-0.393188	
-0.392883	
-0.394165	
-0.394714	
-0.395874	
-0.395203	
-0.395325	
-0.394836	
-0.395874	
-0.396484	
-0.396729	
-0.396423	
-0.396545	
-0.397095	
-0.396179	
-0.396118	
-0.396301	
-0.39563	
-0.394653	
-0.39624	
-0.395325	
-0.395325	
-0.395081	
-0.395386	
-0.395813	
-0.395935	
-0.395569	
-0.395142	
-0.393982	
-0.394958	
-0.394409	
-0.394897	
-0.394226	
-0.393616	
-0.394531	
-0.394287	
-0.395935	
-0.394226	
-0.393555	
-0.392273	
-0.394287	
-0.394043	
-0.393433	
-0.393494	
-0.393494	
-0.393616	
-0.392944	
-0.392517	
-0.392151	
-0.390259	
-0.389954	
-0.390747	
-0.389587	
-0.389709	
-0.388977	
-0.38916	
-0.389648	
-0.389648	
-0.388916	
-0.387939	
-0.388123	
-0.388611	
-0.388123	
-0.388611	
-0.389038	
-0.389038	
-0.389709	
-0.390137	
-0.391418	
-0.390625	
-0.389954	
-0.38916	
-0.391052	
-0.390564	
-0.390503	
-0.390442	
-0.390747	
-0.391663	
-0.391174	
-0.390808	
-0.390564	
-0.391052	
-0.389221	
-0.390076	
-0.391418	
-0.391296	
-0.390015	
-0.391907	
-0.391541	
-0.392334	
-0.392151	
-0.392395	
-0.391541	
-0.392029	
-0.392151	
-0.392334	
-0.391846	
-0.392151	
-0.393311	
-0.392456	
-0.394104	
-0.393127	
-0.392761	
-0.391663	
-0.393066	
-0.392578	
-0.392456	
-0.392883	
-0.393127	
-0.3927	
-0.393188	
-0.393372	
-0.392151	
-0.392883	
-0.390503	
-0.391724	
-0.39209	
-0.391724	
-0.390442	
-0.391663	
-0.391174	
-0.392151	
-0.391785	
-0.390869	
-0.390686	
-0.391174	
-0.390808	
-0.390503	
-0.390442	
-0.390564	
-0.391724	
-0.391418	
-0.392273	
-0.391052	
-0.390564	
-0.389832	
-0.391052	
-0.390442	
-0.390869	
-0.391296	
-0.391663	
-0.391724	
-0.391907	
-0.392456	
-0.391846	
-0.391907	
-0.391113	
-0.392273	
-0.392883	
-0.393127	
-0.393372	
-0.39447	
-0.39447	
-0.395325	
-0.394714	
-0.395203	
-0.39447	
-0.394714	
-0.394531	
-0.395386	
-0.394226	
-0.394653	
-0.395874	
-0.394531	
-0.395935	
-0.394714	
-0.394592	
-0.393738	
-0.394531	
-0.39447	
-0.394409	
-0.39386	
-0.394348	
-0.394226	
-0.394043	
-0.395508	
-0.393372	
-0.39325	
-0.391724	
-0.393616	
-0.393127	
-0.393616	
-0.392578	
-0.392944	
-0.393127	
-0.393066	
-0.39209	
-0.391479	
-0.390869	
-0.390808	
-0.390259	
-0.389221	
-0.389099	
-0.388611	
-0.389404	
-0.388306	
-0.389893	
	
