E:\DOCUMENTS AND SETTINGS\JPOTAS\MEUS DOCUMENTOS\UFRJ\RSCI-BM 12 WK SERIES\070723-RSCI-BM-06\RSCI-BM-06-LEMG\070723-RSCI-BM-LEMG-0014.ACQ
0.025000 msec/sample
1 channel
Analog input
Volts
CH1	
2000	
-0.400269	
-0.39917	
-0.399231	
-0.398682	
-0.39917	
-0.399902	
-0.3974	
-0.396667	
-0.39624	
-0.398315	
-0.397888	
-0.3974	
-0.397461	
-0.397278	
-0.396118	
-0.396484	
-0.396179	
-0.393616	
-0.394226	
-0.391479	
-0.393127	
-0.393127	
-0.392151	
-0.391968	
-0.392029	
-0.39209	
-0.391968	
-0.391418	
-0.390686	
-0.390564	
-0.389587	
-0.390869	
-0.390503	
-0.39032	
-0.390259	
-0.39032	
-0.390869	
-0.391113	
-0.390198	
-0.390076	
-0.390137	
-0.38916	
-0.390625	
-0.391113	
-0.390259	
-0.390991	
-0.391296	
-0.391541	
-0.392761	
-0.391357	
-0.39093	
-0.391235	
-0.392578	
-0.392212	
-0.3927	
-0.392517	
-0.392395	
-0.393616	
-0.394714	
-0.394592	
-0.393005	
-0.393555	
-0.393188	
-0.395264	
-0.395325	
-0.396484	
-0.395569	
-0.395996	
-0.396423	
-0.39679	
-0.396118	
-0.395203	
-0.396057	
-0.395752	
-0.396362	
-0.396606	
-0.397461	
-0.397156	
-0.396606	
-0.396667	
-0.397461	
-0.396667	
-0.39502	
-0.394714	
-0.395142	
-0.39502	
-0.395569	
-0.395996	
-0.394714	
-0.394836	
-0.394653	
-0.395996	
-0.395569	
-0.394226	
-0.394043	
-0.395264	
-0.395508	
-0.395203	
-0.396179	
-0.394958	
-0.395203	
-0.394104	
-0.395508	
-0.395508	
-0.39447	
-0.393311	
-0.393677	
-0.393738	
-0.393616	
-0.394348	
-0.393311	
-0.393555	
-0.392273	
-0.393799	
-0.393494	
-0.393066	
-0.392578	
-0.392456	
-0.393921	
-0.393433	
-0.393005	
-0.393372	
-0.393982	
-0.393188	
-0.393982	
-0.393066	
-0.393433	
-0.392761	
-0.393005	
-0.394165	
-0.394897	
-0.39447	
-0.394958	
-0.395935	
-0.395203	
-0.395386	
-0.395508	
-0.395569	
-0.394714	
-0.394958	
-0.396423	
-0.396301	
-0.39624	
-0.395874	
-0.396606	
-0.39679	
-0.396545	
-0.39624	
-0.396179	
-0.39502	
-0.396362	
-0.396301	
-0.39679	
-0.396179	
-0.39624	
-0.396362	
-0.396729	
-0.397034	
-0.39624	
-0.395325	
-0.393982	
-0.395691	
-0.395142	
-0.395935	
-0.394592	
-0.393982	
-0.394653	
-0.394836	
-0.394104	
-0.392456	
-0.392029	
-0.390808	
-0.392456	
-0.39209	
-0.392822	
-0.392151	
-0.392029	
-0.39209	
-0.392944	
-0.392334	
-0.390442	
-0.391113	
-0.390564	
-0.391418	
-0.391418	
-0.391907	
-0.391724	
-0.391296	
-0.391235	
-0.393433	
-0.392761	
-0.390686	
-0.391724	
-0.392273	
-0.392273	
-0.392639	
-0.393372	
-0.390381	
-0.389587	
-0.388916	
-0.391724	
-0.391418	
-0.390198	
-0.393921	
-0.395447	
-0.396118	
-0.396667	
-0.396545	
-0.396912	
-0.397522	
-0.396545	
-0.397888	
-0.397827	
-0.397522	
-0.39679	
-0.397888	
-0.39801	
-0.398682	
-0.398621	
-0.397888	
-0.398132	
-0.397522	
-0.399414	
-0.398438	
-0.397705	
-0.395996	
-0.397522	
-0.397583	
-0.397766	
-0.397827	
-0.397278	
-0.397827	
-0.39679	
-0.397827	
-0.397217	
-0.395813	
-0.394043	
-0.395813	
-0.39624	
-0.396179	
-0.395264	
-0.394714	
-0.395447	
-0.395386	
-0.39679	
-0.397583	
-0.398499	
-0.39917	
-0.402344	
-0.405823	
-0.409363	
-0.412598	
-0.416931	
-0.421936	
-0.427307	
-0.430847	
-0.435242	
-0.439758	
-0.44519	
-0.450806	
-0.457397	
-0.465637	
-0.471863	
-0.481201	
-0.491455	
-0.5047	
-0.517517	
-0.529114	
-0.5401	
-0.550659	
-0.559448	
-0.567322	
-0.573669	
-0.579529	
-0.584045	
-0.587952	
-0.589478	
-0.591553	
-0.591309	
-0.590759	
-0.588379	
-0.588135	
-0.58667	
-0.584656	
-0.582703	
-0.581238	
-0.581238	
-0.579773	
-0.577515	
-0.576355	
-0.576416	
-0.576355	
-0.575256	
-0.575256	
-0.572937	
-0.572327	
-0.570129	
-0.569763	
-0.567688	
-0.56366	
-0.562561	
-0.561218	
-0.558899	
-0.55719	
-0.555115	
-0.552307	
-0.549316	
-0.545837	
-0.541565	
-0.535889	
-0.529541	
-0.523315	
-0.517212	
-0.511108	
-0.505249	
-0.499878	
-0.494812	
-0.487427	
-0.482971	
-0.479309	
-0.475952	
-0.472717	
-0.469055	
-0.468994	
-0.467957	
-0.466309	
-0.462219	
-0.459351	
-0.457031	
-0.454773	
-0.450867	
-0.447815	
-0.445129	
-0.442383	
-0.440918	
-0.439819	
-0.439026	
-0.436096	
-0.434326	
-0.432739	
-0.430481	
-0.428223	
-0.423401	
-0.419495	
-0.416199	
-0.41272	
-0.407959	
-0.403137	
-0.397217	
-0.391357	
-0.38562	
-0.379578	
-0.372559	
-0.364624	
-0.356201	
-0.348389	
-0.341003	
-0.332214	
-0.323425	
-0.312317	
-0.302063	
-0.292358	
-0.282959	
-0.274963	
-0.266663	
-0.260498	
-0.255859	
-0.25415	
-0.253357	
-0.254333	
-0.256042	
-0.259155	
-0.26416	
-0.26947	
-0.274597	
-0.279785	
-0.286682	
-0.292419	
-0.301025	
-0.309021	
-0.317444	
-0.326599	
-0.335571	
-0.345154	
-0.356567	
-0.366028	
-0.378784	
-0.390564	
-0.404907	
-0.418457	
-0.430725	
-0.442871	
-0.453979	
-0.462708	
-0.471313	
-0.476929	
-0.484253	
-0.488342	
-0.492676	
-0.496033	
-0.497253	
-0.498352	
-0.500122	
-0.500305	
-0.500854	
-0.500488	
-0.500061	
-0.500427	
-0.50116	
-0.50061	
-0.499817	
-0.499329	
-0.497925	
-0.496582	
-0.494629	
-0.494019	
-0.49115	
-0.490173	
-0.48761	
-0.487122	
-0.486206	
-0.48407	
-0.481445	
-0.479065	
-0.47821	
-0.476135	
-0.474365	
-0.472717	
-0.471619	
-0.469177	
-0.469604	
-0.468811	
-0.466614	
-0.465759	
-0.464539	
-0.463196	
-0.462585	
-0.458862	
-0.456665	
-0.454224	
-0.452087	
-0.449707	
-0.447021	
-0.444092	
-0.441589	
-0.439392	
-0.436462	
-0.434753	
-0.430725	
-0.428528	
-0.424927	
-0.422485	
-0.419067	
-0.41571	
-0.412415	
-0.408447	
-0.403259	
-0.397644	
-0.393127	
-0.383606	
-0.375793	
-0.366699	
-0.357117	
-0.347168	
-0.336548	
-0.325806	
-0.314575	
-0.304321	
-0.293884	
-0.285828	
-0.274475	
-0.267212	
-0.258789	
-0.251953	
-0.246277	
-0.23999	
-0.235596	
-0.2323	
-0.231018	
-0.230103	
-0.230469	
-0.231079	
-0.233582	
-0.235413	
-0.239868	
-0.243042	
-0.246948	
-0.251709	
-0.255615	
-0.259277	
-0.264038	
-0.266174	
-0.269958	
-0.2724	
-0.277832	
-0.281311	
-0.284363	
-0.287537	
-0.290955	
-0.294739	
-0.298462	
-0.301331	
-0.304993	
-0.307922	
-0.311646	
-0.315063	
-0.318115	
-0.320679	
-0.323242	
-0.325562	
-0.328247	
-0.328186	
-0.330322	
-0.332397	
-0.333557	
-0.336182	
-0.337524	
-0.339355	
-0.340881	
-0.343872	
-0.344849	
-0.346497	
-0.348022	
-0.349915	
-0.351013	
-0.354126	
-0.355164	
-0.356812	
-0.357361	
-0.35968	
-0.360352	
-0.361572	
-0.361877	
-0.362732	
-0.362305	
-0.364746	
-0.36554	
-0.365356	
-0.365234	
-0.366577	
-0.366516	
-0.367615	
-0.366638	
-0.366882	
-0.367432	
-0.367432	
-0.368347	
-0.368347	
-0.36853	
-0.368896	
-0.370056	
-0.370056	
-0.370178	
-0.370178	
-0.370422	
-0.370422	
-0.372192	
-0.371887	
-0.37207	
-0.372192	
-0.374146	
-0.373535	
-0.37439	
-0.373474	
-0.374146	
-0.374329	
-0.374573	
-0.375732	
-0.375854	
-0.376221	
-0.377319	
-0.377563	
-0.377197	
-0.37738	
-0.376343	
-0.377502	
-0.376587	
-0.378662	
-0.378418	
-0.378479	
-0.37793	
-0.379822	
-0.378357	
-0.37915	
-0.378845	
-0.379333	
-0.379517	
-0.379822	
-0.379883	
-0.380249	
-0.380005	
-0.381104	
-0.380737	
-0.381042	
-0.382813	
-0.382202	
-0.381653	
-0.381042	
-0.382263	
-0.382141	
-0.382141	
-0.382874	
-0.382263	
-0.382019	
-0.382507	
-0.382141	
-0.382507	
-0.382385	
-0.383484	
-0.383179	
-0.383484	
-0.383545	
-0.384216	
-0.383911	
-0.383972	
-0.383728	
-0.384521	
-0.38385	
-0.385071	
-0.384155	
-0.384949	
-0.384216	
-0.384399	
-0.384888	
-0.384583	
-0.385193	
-0.384399	
-0.384155	
-0.385803	
-0.384827	
-0.384827	
-0.384766	
-0.385925	
-0.385071	
-0.38501	
-0.385254	
-0.385498	
-0.385498	
-0.385071	
-0.385803	
-0.385925	
-0.385254	
-0.38678	
-0.386169	
-0.386169	
-0.387451	
-0.386963	
-0.386719	
-0.386658	
-0.387695	
-0.387817	
-0.388184	
-0.390076	
-0.389526	
-0.389648	
-0.391113	
-0.390198	
-0.390076	
-0.390076	
-0.390747	
-0.390015	
-0.389954	
-0.391907	
-0.390686	
-0.390503	
-0.389832	
-0.391602	
-0.390808	
-0.391052	
-0.389587	
-0.390503	
-0.390442	
-0.390991	
-0.391418	
-0.390625	
-0.390747	
-0.390686	
-0.389771	
-0.389893	
-0.389832	
-0.389526	
-0.388977	
-0.387207	
-0.388733	
-0.387817	
-0.387146	
-0.386597	
-0.386536	
-0.385986	
-0.385986	
-0.384155	
-0.384583	
-0.384583	
-0.384766	
-0.385864	
-0.384949	
-0.384583	
-0.384583	
-0.385376	
-0.384827	
-0.38446	
-0.383362	
-0.384216	
-0.383179	
-0.384766	
-0.385681	
-0.384094	
-0.384277	
-0.38446	
-0.385132	
-0.385498	
-0.384277	
-0.385742	
-0.385498	
-0.385986	
-0.386353	
-0.385315	
-0.386719	
-0.387634	
-0.388611	
-0.387268	
-0.387451	
-0.38623	
-0.387817	
-0.388245	
-0.389221	
-0.389771	
-0.389465	
-0.390137	
-0.389893	
-0.390381	
-0.392029	
-0.391052	
-0.391479	
-0.39093	
-0.392151	
-0.39325	
-0.39209	
-0.392273	
-0.391541	
-0.393555	
-0.393616	
-0.392517	
-0.390808	
-0.3927	
-0.392761	
-0.393066	
-0.392395	
-0.392029	
-0.391724	
-0.393311	
-0.391174	
-0.391357	
-0.390625	
-0.390869	
-0.390686	
-0.390503	
-0.391602	
-0.391174	
-0.391174	
-0.390686	
-0.391479	
-0.391541	
-0.390869	
-0.390625	
-0.389526	
-0.39093	
-0.391479	
-0.390991	
-0.390625	
-0.389282	
-0.392212	
-0.390991	
-0.389954	
-0.388672	
-0.389282	
-0.389648	
-0.390564	
-0.389709	
-0.389343	
-0.388672	
-0.388977	
-0.389771	
-0.389343	
-0.389526	
-0.389099	
-0.389648	
-0.389893	
-0.390015	
-0.390076	
-0.389954	
-0.389465	
-0.390991	
-0.390686	
-0.390442	
-0.389526	
-0.389709	
-0.391602	
-0.3927	
-0.391541	
-0.391113	
-0.391541	
-0.391052	
-0.394287	
-0.392273	
-0.392517	
-0.391602	
-0.392517	
-0.393311	
-0.393372	
-0.392761	
-0.392395	
-0.392273	
-0.392639	
-0.394653	
-0.39325	
-0.3927	
-0.390686	
-0.393005	
-0.393372	
-0.393127	
-0.392639	
-0.392639	
-0.392639	
-0.393311	
-0.393372	
-0.39209	
-0.392029	
-0.390381	
-0.391846	
-0.392456	
-0.392212	
-0.390808	
-0.390198	
-0.390442	
-0.390808	
-0.389587	
-0.389221	
-0.38855	
-0.388672	
-0.389038	
-0.388794	
-0.389343	
-0.388733	
-0.388489	
-0.387695	
-0.390808	
-0.388245	
-0.388367	
-0.387573	
-0.388306	
-0.388611	
-0.388672	
-0.388672	
-0.388428	
-0.388916	
-0.388916	
-0.39093	
-0.388916	
-0.38855	
-0.386597	
-0.389221	
-0.389771	
-0.390198	
-0.389648	
-0.389832	
-0.390381	
-0.391724	
-0.391296	
-0.391479	
-0.391357	
-0.392517	
-0.39386	
-0.393616	
-0.393555	
-0.393433	
-0.394043	
-0.393555	
-0.396118	
-0.394287	
-0.394836	
-0.393982	
-0.395752	
-0.396179	
-0.395569	
-0.394714	
-0.394653	
-0.395081	
-0.395264	
-0.395752	
-0.394836	
-0.394226	
-0.394104	
-0.395569	
-0.395142	
-0.395386	
-0.39447	
-0.394531	
-0.394165	
-0.395752	
-0.39447	
-0.394165	
-0.392029	
-0.393005	
-0.393982	
-0.392822	
-0.393005	
-0.391296	
-0.392456	
-0.392151	
-0.392578	
-0.392212	
-0.392212	
-0.390686	
-0.391907	
-0.392151	
-0.392395	
-0.391968	
-0.391785	
-0.391296	
-0.391541	
-0.392029	
-0.390625	
-0.390503	
-0.390686	
-0.391174	
-0.390686	
-0.391907	
-0.391357	
-0.39093	
-0.390747	
-0.392517	
-0.391907	
-0.390808	
-0.389526	
-0.391296	
-0.392883	
-0.392212	
-0.392944	
-0.391785	
-0.391846	
-0.391846	
-0.391785	
-0.392273	
-0.391235	
-0.39032	
-0.390381	
-0.39209	
-0.391357	
-0.392212	
-0.391602	
-0.391785	
-0.392517	
-0.392151	
-0.391968	
-0.392029	
-0.392029	
-0.391785	
-0.392761	
-0.393005	
-0.392639	
-0.393188	
-0.392944	
-0.393066	
-0.392639	
-0.3927	
-0.390991	
-0.392517	
-0.393372	
-0.392761	
-0.393555	
-0.393005	
-0.392944	
-0.3927	
-0.392883	
-0.393372	
-0.392517	
-0.391602	
-0.392395	
-0.393005	
-0.392639	
-0.392944	
-0.391296	
-0.391785	
-0.392639	
-0.390991	
-0.391602	
-0.389221	
-0.389404	
-0.388916	
-0.389404	
-0.389771	
-0.389648	
-0.388855	
-0.389221	
-0.389832	
-0.389099	
-0.38916	
-0.388306	
-0.38855	
-0.388916	
-0.38916	
-0.389526	
-0.388794	
-0.389221	
-0.39032	
-0.388855	
-0.389954	
-0.389648	
-0.388794	
-0.39032	
-0.390808	
-0.391418	
-0.391296	
-0.391052	
-0.39325	
-0.393921	
-0.393494	
-0.394287	
-0.392944	
-0.395142	
-0.395691	
-0.395264	
-0.395752	
-0.396667	
-0.396362	
-0.396301	
-0.397339	
-0.397034	
-0.397766	
-0.3974	
-0.397827	
-0.397583	
-0.397705	
-0.3974	
-0.398499	
-0.398132	
-0.398315	
-0.398132	
-0.397705	
-0.398315	
-0.397583	
-0.398254	
-0.397522	
-0.397766	
-0.397522	
-0.396606	
-0.397461	
-0.398499	
-0.39679	
-0.3974	
-0.396667	
-0.395996	
-0.39563	
-0.394409	
-0.395569	
-0.395142	
-0.395447	
-0.394775	
-0.394531	
-0.392944	
-0.393738	
-0.393433	
-0.392761	
-0.393433	
-0.392944	
-0.392639	
-0.39209	
-0.391907	
-0.392395	
-0.391785	
-0.391846	
-0.392578	
-0.390747	
-0.391907	
-0.392395	
-0.391907	
-0.391235	
-0.391235	
-0.392212	
-0.392395	
-0.392273	
-0.392395	
-0.39209	
-0.392883	
-0.393311	
-0.392639	
-0.393433	
-0.39325	
-0.393311	
-0.393616	
-0.393799	
-0.392639	
-0.393616	
-0.393311	
-0.393005	
-0.392822	
-0.391846	
-0.393005	
-0.393188	
-0.393738	
-0.393799	
-0.394226	
-0.391418	
-0.393433	
-0.393372	
-0.393738	
-0.39447	
-0.393311	
-0.394348	
-0.394653	
-0.394836	
-0.395996	
-0.395264	
-0.394348	
-0.394897	
-0.394043	
-0.39447	
-0.395569	
-0.394897	
-0.395081	
-0.395325	
-0.395264	
-0.395325	
-0.394714	
-0.395142	
-0.394836	
-0.394775	
-0.394287	
-0.394043	
-0.39386	
-0.393372	
-0.392212	
-0.393372	
-0.393616	
-0.392639	
-0.392578	
-0.393066	
-0.392151	
-0.392212	
-0.391235	
-0.392395	
-0.391602	
-0.392273	
-0.393188	
-0.392273	
-0.391479	
-0.391724	
-0.390564	
-0.391541	
-0.392029	
-0.390381	
-0.391296	
-0.391907	
-0.392883	
-0.392456	
-0.391846	
-0.391724	
-0.391418	
-0.392334	
-0.392883	
-0.393433	
-0.392822	
-0.392639	
-0.392883	
-0.394714	
-0.394958	
-0.394653	
-0.394165	
-0.394897	
-0.395996	
-0.39624	
-0.395691	
-0.395935	
-0.395813	
-0.395935	
-0.396667	
-0.39679	
-0.395874	
-0.394897	
-0.395752	
-0.396179	
-0.396423	
-0.396118	
-0.39679	
-0.39624	
-0.397034	
-0.397583	
-0.396179	
-0.395935	
-0.394836	
-0.396851	
-0.395752	
-0.396423	
-0.395264	
-0.395447	
-0.394958	
-0.39563	
-0.395996	
-0.395081	
-0.394409	
-0.392883	
-0.394104	
-0.393188	
-0.394104	
-0.391541	
-0.391663	
-0.390564	
-0.392029	
-0.391724	
-0.390686	
-0.390259	
-0.390808	
-0.390564	
-0.390381	
-0.389771	
-0.38916	
-0.389709	
-0.389648	
-0.390198	
-0.390686	
-0.389709	
-0.389648	
-0.389404	
-0.390015	
-0.391052	
-0.390686	
-0.39032	
-0.390381	
-0.390808	
-0.392517	
-0.390747	
-0.39093	
-0.39093	
-0.391663	
-0.391724	
-0.392761	
-0.392151	
-0.392395	
-0.391724	
-0.392517	
-0.393494	
-0.392517	
-0.392578	
-0.392151	
-0.394104	
-0.393005	
-0.392944	
-0.392639	
-0.393555	
-0.393005	
-0.393494	
-0.394104	
-0.39325	
-0.392944	
-0.392822	
-0.395203	
-0.394409	
-0.39447	
-0.393433	
-0.394226	
-0.394043	
-0.395203	
-0.395264	
-0.393799	
-0.3927	
-0.392639	
-0.394287	
-0.395447	
-0.393433	
-0.393311	
-0.39209	
-0.392578	
-0.393616	
-0.393799	
-0.393005	
-0.392639	
-0.393494	
-0.393494	
-0.393555	
-0.392944	
-0.393433	
-0.392822	
-0.393494	
-0.393738	
-0.393127	
-0.393188	
-0.392273	
-0.392395	
-0.392944	
-0.3927	
-0.391785	
-0.392395	
-0.392883	
-0.393311	
-0.392944	
-0.392029	
-0.391663	
-0.391541	
-0.392761	
-0.3927	
-0.391968	
-0.391602	
-0.392212	
-0.392334	
-0.3927	
-0.393311	
-0.392517	
-0.391235	
-0.391357	
-0.392456	
-0.392639	
-0.392151	
-0.392395	
-0.391663	
-0.393066	
-0.393494	
-0.394653	
-0.393799	
-0.394043	
-0.394226	
-0.395264	
-0.39563	
-0.395325	
-0.395447	
-0.395508	
-0.39624	
-0.396301	
-0.396851	
-0.395691	
-0.395996	
-0.396057	
-0.39679	
-0.395996	
-0.395813	
-0.395508	
-0.395874	
-0.39679	
-0.395874	
-0.395935	
-0.393921	
-0.395142	
-0.394958	
-0.395264	
-0.394409	
-0.393188	
-0.3927	
-0.394043	
-0.393188	
-0.392944	
-0.391541	
-0.391724	
-0.39032	
-0.390137	
-0.389893	
-0.389038	
-0.387695	
-0.388916	
-0.389404	
-0.388306	
-0.389221	
-0.388	
-0.388306	
-0.387268	
-0.388428	
-0.387634	
-0.387146	
-0.387207	
-0.38739	
-0.387634	
-0.387146	
-0.389038	
-0.386536	
-0.386658	
-0.386658	
-0.387756	
-0.387024	
-0.387268	
-0.387451	
-0.388306	
-0.388916	
-0.388306	
-0.389343	
-0.387756	
-0.388672	
-0.388428	
-0.389221	
-0.389282	
-0.38916	
-0.388428	
-0.390198	
-0.390503	
-0.390869	
-0.391052	
-0.391663	
-0.391724	
-0.390625	
-0.392334	
-0.392822	
-0.391174	
-0.391968	
-0.393433	
-0.393066	
-0.393677	
-0.393799	
-0.393616	
-0.392944	
-0.39447	
-0.39386	
-0.393555	
-0.392212	
-0.393799	
-0.394104	
-0.39325	
-0.394775	
-0.391724	
-0.392639	
-0.392822	
-0.392212	
-0.391418	
-0.391296	
-0.389648	
-0.391541	
-0.391663	
-0.392273	
-0.393494	
-0.391785	
-0.391785	
-0.391174	
-0.391663	
-0.391602	
-0.391785	
-0.392334	
-0.392273	
-0.39209	
-0.391663	
-0.392334	
-0.391602	
-0.391296	
-0.390137	
-0.390686	
-0.390808	
-0.390442	
-0.390442	
-0.39093	
-0.390015	
-0.390503	
-0.390076	
-0.390015	
-0.389526	
-0.389465	
-0.390259	
-0.39032	
-0.389038	
-0.391052	
-0.390808	
-0.390808	
-0.390808	
-0.389771	
-0.390198	
-0.390747	
-0.391602	
-0.391296	
-0.391052	
-0.391113	
-0.392273	
-0.391663	
-0.392029	
-0.39325	
-0.392151	
-0.392578	
-0.393188	
-0.393311	
-0.393188	
-0.393127	
-0.392212	
-0.394043	
-0.39325	
-0.393005	
-0.394592	
-0.393738	
-0.39325	
-0.392883	
-0.394104	
-0.392944	
-0.392883	
-0.392761	
-0.39325	
-0.393311	
-0.393127	
-0.392944	
-0.392883	
-0.392456	
-0.390625	
-0.392761	
-0.391968	
-0.391296	
-0.391174	
-0.391357	
-0.391052	
-0.391602	
-0.390686	
-0.389954	
-0.389954	
-0.388733	
-0.389099	
-0.388672	
-0.38855	
-0.389526	
-0.388855	
-0.388855	
-0.389587	
-0.38855	
-0.389099	
-0.389465	
-0.389404	
-0.388367	
-0.389038	
-0.388794	
-0.388977	
-0.388672	
-0.388794	
-0.389404	
-0.388672	
-0.389099	
-0.389221	
-0.390259	
-0.389282	
-0.388794	
-0.389221	
-0.389648	
-0.390808	
-0.39032	
-0.391602	
-0.391296	
-0.391907	
-0.391113	
-0.3927	
-0.392883	
-0.391907	
-0.392761	
-0.393433	
-0.393982	
-0.394348	
-0.394409	
-0.395203	
-0.394958	
-0.394775	
-0.395691	
-0.395508	
-0.395081	
-0.395264	
-0.395508	
-0.395508	
-0.395996	
-0.395203	
-0.395935	
-0.395691	
-0.395264	
-0.395203	
-0.394653	
-0.395142	
-0.395569	
-0.394958	
-0.394287	
-0.395142	
-0.394714	
-0.393982	
-0.394104	
-0.394043	
-0.393127	
-0.392944	
-0.392883	
-0.392639	
-0.392639	
-0.393066	
-0.394714	
-0.392883	
-0.392761	
-0.391541	
-0.393066	
-0.392395	
-0.391968	
-0.392578	
-0.391418	
-0.39209	
-0.392334	
-0.391846	
-0.391296	
-0.391785	
-0.391296	
-0.392212	
-0.39093	
-0.390625	
-0.392273	
-0.391785	
-0.391663	
-0.391724	
-0.391846	
-0.391907	
-0.391785	
-0.39209	
-0.392639	
-0.392395	
-0.3927	
-0.392334	
-0.392517	
-0.392944	
-0.393799	
-0.3927	
-0.392456	
-0.391296	
-0.392273	
-0.393127	
-0.392273	
-0.392761	
-0.392151	
-0.392456	
-0.392578	
-0.393799	
-0.393005	
-0.393005	
-0.391846	
-0.393188	
-0.394226	
-0.393127	
-0.394714	
-0.393005	
-0.393555	
-0.393127	
-0.393738	
-0.393677	
-0.393494	
-0.393188	
-0.394043	
-0.394409	
-0.393311	
-0.393921	
-0.39325	
-0.393311	
-0.394043	
-0.393555	
-0.393555	
-0.392883	
-0.393616	
-0.393372	
-0.393921	
-0.392578	
-0.393127	
-0.392029	
-0.392517	
-0.393066	
-0.391846	
-0.391479	
-0.390747	
-0.39032	
-0.390503	
-0.390869	
-0.391418	
-0.389832	
-0.388794	
-0.389954	
-0.391785	
-0.389648	
-0.389526	
-0.389343	
-0.39032	
-0.390076	
-0.389648	
-0.390259	
-0.389954	
-0.390137	
-0.389404	
-0.392334	
-0.390869	
-0.39093	
-0.390442	
-0.391174	
-0.392639	
-0.39209	
-0.392395	
-0.392456	
-0.393066	
-0.393982	
-0.39502	
-0.394836	
-0.395508	
-0.394958	
-0.396301	
-0.397278	
-0.397583	
-0.397339	
-0.3974	
-0.396729	
-0.398376	
-0.398193	
-0.397766	
-0.397949	
-0.397705	
-0.398621	
-0.39978	
-0.398071	
-0.398682	
-0.398438	
-0.397827	
-0.399475	
-0.398682	
-0.398621	
-0.398682	
-0.399048	
-0.399292	
-0.399597	
-0.398621	
-0.398376	
-0.397461	
-0.398193	
-0.399109	
-0.398254	
-0.397827	
-0.396973	
-0.396851	
-0.397217	
-0.397156	
-0.396423	
-0.396362	
-0.394592	
-0.395752	
-0.396301	
-0.394653	
-0.394409	
-0.393433	
-0.393738	
-0.393616	
-0.393799	
-0.393921	
-0.393311	
-0.392456	
-0.392944	
-0.394226	
-0.392761	
-0.392944	
-0.392334	
-0.393005	
-0.393372	
-0.393677	
-0.392639	
-0.392639	
-0.392761	
-0.39386	
-0.394653	
-0.394226	
-0.394104	
-0.394714	
-0.394653	
-0.395569	
-0.395142	
-0.394897	
-0.39386	
-0.393616	
-0.395325	
-0.39502	
-0.394165	
-0.393982	
-0.39502	
-0.394775	
-0.394897	
-0.394409	
-0.39447	
-0.393311	
-0.394226	
-0.395935	
-0.39563	
-0.395142	
-0.39447	
-0.394836	
-0.396179	
-0.395996	
-0.394836	
-0.396423	
-0.396057	
-0.396729	
-0.396423	
-0.396423	
-0.396606	
-0.396484	
-0.395752	
-0.397278	
-0.397949	
-0.395386	
-0.396545	
-0.396912	
-0.397095	
-0.396912	
-0.396729	
-0.395935	
-0.395752	
-0.395569	
-0.396057	
-0.395874	
-0.393433	
-0.393738	
-0.394775	
-0.395081	
-0.394897	
-0.393372	
-0.392883	
-0.393677	
-0.393555	
-0.393677	
-0.394409	
-0.393005	
-0.392395	
-0.392883	
-0.393005	
-0.393433	
-0.393127	
-0.392395	
-0.392578	
-0.393677	
-0.393738	
-0.393921	
-0.393311	
-0.393433	
-0.393433	
-0.394104	
-0.393982	
-0.393799	
-0.394287	
-0.394592	
-0.395569	
-0.395142	
-0.395142	
-0.395203	
-0.39563	
-0.396423	
-0.396912	
-0.396729	
-0.396545	
-0.397217	
-0.398499	
-0.398682	
-0.397888	
-0.397461	
-0.396912	
-0.398315	
-0.398438	
-0.398804	
-0.397949	
-0.397278	
-0.398132	
-0.398682	
-0.398499	
-0.39856	
-0.397888	
-0.397156	
-0.398132	
-0.397644	
-0.398499	
-0.397949	
-0.3974	
-0.397217	
-0.39801	
-0.397644	
-0.398499	
-0.395935	
-0.396851	
-0.396301	
-0.396912	
-0.39679	
-0.394836	
-0.394592	
-0.393799	
-0.394897	
-0.394287	
-0.393738	
-0.391907	
-0.393127	
-0.3927	
-0.393127	
-0.392761	
-0.391968	
-0.391724	
-0.391602	
-0.392578	
-0.391907	
-0.391296	
-0.391602	
-0.392334	
-0.392334	
-0.392639	
-0.392029	
-0.391602	
-0.392639	
-0.393188	
-0.393494	
-0.393372	
-0.393188	
-0.392151	
-0.392883	
-0.393677	
-0.394287	
-0.393616	
-0.392578	
-0.394287	
-0.394958	
-0.394714	
-0.395447	
-0.394348	
-0.393799	
-0.39502	
-0.394958	
-0.395447	
-0.39502	
-0.394531	
-0.394592	
-0.396179	
-0.395569	
-0.395264	
-0.394897	
-0.395386	
-0.394653	
-0.395935	
-0.396606	
-0.39624	
-0.39624	
-0.395935	
-0.39801	
-0.397034	
-0.396362	
-0.395691	
-0.396667	
-0.397095	
-0.396606	
-0.396973	
-0.395874	
-0.395874	
-0.395691	
-0.396545	
-0.395996	
-0.395203	
-0.393677	
-0.395386	
-0.396057	
-0.395386	
-0.396362	
-0.395935	
-0.395569	
-0.395325	
-0.395691	
-0.396423	
-0.395325	
-0.394104	
-0.395264	
-0.395813	
-0.395203	
-0.39563	
-0.39447	
-0.394714	
-0.394409	
-0.394836	
-0.39563	
-0.394043	
-0.394226	
-0.393799	
-0.395325	
-0.394653	
-0.394897	
-0.394531	
-0.394592	
-0.394775	
-0.39447	
-0.394836	
-0.394348	
-0.394409	
-0.393127	
-0.39563	
-0.395264	
-0.394348	
-0.39447	
-0.395386	
-0.396484	
-0.395142	
-0.395203	
-0.395081	
-0.396667	
-0.396423	
-0.397522	
-0.397705	
-0.397461	
-0.397278	
-0.39801	
-0.398804	
-0.398376	
-0.398193	
-0.396301	
-0.39801	
-0.398438	
-0.398438	
-0.399353	
-0.398376	
	
