E:\DOCUMENTS AND SETTINGS\JPOTAS\MEUS DOCUMENTOS\UFRJ\RSCI-BM 12 WK SERIES\070723-RSCI-BM-06\RSCI-BM-06-LEMG\070723-RSCI-BM-LEMG-0015.ACQ
0.025000 msec/sample
1 channel
Analog input
Volts
CH1	
2000	
-0.396057	
-0.397339	
-0.396423	
-0.396118	
-0.397217	
-0.397461	
-0.397644	
-0.397888	
-0.398804	
-0.397827	
-0.398438	
-0.39801	
-0.398804	
-0.398132	
-0.398804	
-0.398621	
-0.399231	
-0.398621	
-0.399048	
-0.399536	
-0.398865	
-0.398987	
-0.398438	
-0.399353	
-0.398193	
-0.398499	
-0.396851	
-0.397766	
-0.398315	
-0.39856	
-0.398499	
-0.398071	
-0.39917	
-0.397095	
-0.397949	
-0.397461	
-0.398499	
-0.396057	
-0.397888	
-0.397461	
-0.397888	
-0.397583	
-0.398132	
-0.398987	
-0.39801	
-0.398254	
-0.397522	
-0.397888	
-0.398071	
-0.398193	
-0.396545	
-0.397888	
-0.398132	
-0.398071	
-0.399353	
-0.397949	
-0.39801	
-0.396851	
-0.397644	
-0.398193	
-0.397217	
-0.397217	
-0.39801	
-0.3974	
-0.39679	
-0.397644	
-0.396851	
-0.395996	
-0.394592	
-0.395142	
-0.395081	
-0.394714	
-0.395386	
-0.396301	
-0.394775	
-0.394958	
-0.395569	
-0.395386	
-0.394226	
-0.394104	
-0.394409	
-0.394592	
-0.394409	
-0.394714	
-0.39563	
-0.394653	
-0.394653	
-0.394958	
-0.395508	
-0.394775	
-0.394226	
-0.393799	
-0.395508	
-0.395142	
-0.39563	
-0.396118	
-0.395691	
-0.395935	
-0.394958	
-0.395386	
-0.395447	
-0.394348	
-0.394226	
-0.394958	
-0.395264	
-0.396301	
-0.396729	
-0.396423	
-0.397278	
-0.396545	
-0.397278	
-0.397034	
-0.397644	
-0.397705	
-0.397949	
-0.397339	
-0.397888	
-0.398926	
-0.39856	
-0.399231	
-0.398132	
-0.398621	
-0.397766	
-0.398987	
-0.398376	
-0.398315	
-0.396912	
-0.39801	
-0.398315	
-0.397522	
-0.398438	
-0.397461	
-0.3974	
-0.396545	
-0.396301	
-0.396118	
-0.395691	
-0.394714	
-0.396057	
-0.396057	
-0.395264	
-0.397095	
-0.394409	
-0.394531	
-0.393982	
-0.393433	
-0.394165	
-0.394836	
-0.393555	
-0.394531	
-0.393921	
-0.393921	
-0.395447	
-0.392334	
-0.392883	
-0.391602	
-0.393066	
-0.393494	
-0.392822	
-0.392395	
-0.392639	
-0.393005	
-0.39325	
-0.393738	
-0.391846	
-0.392395	
-0.391174	
-0.3927	
-0.393188	
-0.392456	
-0.392151	
-0.392395	
-0.392517	
-0.39325	
-0.393311	
-0.391541	
-0.392029	
-0.390503	
-0.392029	
-0.39209	
-0.391785	
-0.391968	
-0.391846	
-0.391724	
-0.392944	
-0.392151	
-0.391846	
-0.391174	
-0.390564	
-0.391602	
-0.392334	
-0.391113	
-0.39209	
-0.392273	
-0.391724	
-0.392883	
-0.391602	
-0.388916	
-0.387085	
-0.388916	
-0.388611	
-0.388855	
-0.38855	
-0.391907	
-0.392822	
-0.392151	
-0.393066	
-0.391174	
-0.391113	
-0.390076	
-0.391968	
-0.391785	
-0.391785	
-0.391174	
-0.392517	
-0.393066	
-0.393127	
-0.394409	
-0.391907	
-0.392944	
-0.392761	
-0.393799	
-0.394043	
-0.393616	
-0.393799	
-0.39447	
-0.394348	
-0.395203	
-0.396118	
-0.393738	
-0.394348	
-0.394043	
-0.394531	
-0.394775	
-0.39386	
-0.393738	
-0.394165	
-0.394226	
-0.394836	
-0.394287	
-0.393066	
-0.393066	
-0.393066	
-0.393494	
-0.393799	
-0.394897	
-0.396362	
-0.399048	
-0.401184	
-0.404724	
-0.407715	
-0.410278	
-0.413452	
-0.418396	
-0.422913	
-0.427246	
-0.431091	
-0.437012	
-0.441772	
-0.448364	
-0.454895	
-0.460388	
-0.467834	
-0.47644	
-0.487183	
-0.499084	
-0.512451	
-0.524475	
-0.535706	
-0.544922	
-0.554077	
-0.562012	
-0.567749	
-0.572876	
-0.578247	
-0.581909	
-0.584656	
-0.584961	
-0.587036	
-0.586609	
-0.585571	
-0.584167	
-0.580811	
-0.580627	
-0.578674	
-0.576599	
-0.576355	
-0.575317	
-0.574585	
-0.575073	
-0.574951	
-0.574646	
-0.573853	
-0.572021	
-0.570068	
-0.570435	
-0.56897	
-0.567139	
-0.564941	
-0.564026	
-0.562744	
-0.56073	
-0.558228	
-0.55658	
-0.553772	
-0.551453	
-0.547485	
-0.54364	
-0.539612	
-0.533447	
-0.529053	
-0.523743	
-0.518066	
-0.511169	
-0.505432	
-0.499146	
-0.494141	
-0.489868	
-0.486267	
-0.481934	
-0.478271	
-0.476013	
-0.473938	
-0.472229	
-0.469116	
-0.465637	
-0.46283	
-0.460938	
-0.457031	
-0.454712	
-0.452026	
-0.449768	
-0.447205	
-0.44458	
-0.442017	
-0.440735	
-0.437927	
-0.435791	
-0.43396	
-0.43042	
-0.428101	
-0.424316	
-0.422058	
-0.418518	
-0.413696	
-0.408569	
-0.404114	
-0.397644	
-0.391724	
-0.385925	
-0.378784	
-0.373108	
-0.364929	
-0.3573	
-0.348938	
-0.341309	
-0.332214	
-0.322266	
-0.311523	
-0.300964	
-0.290833	
-0.279968	
-0.27179	
-0.263184	
-0.256165	
-0.25116	
-0.24585	
-0.241455	
-0.239075	
-0.237915	
-0.238037	
-0.23761	
-0.238892	
-0.240417	
-0.24176	
-0.243713	
-0.245544	
-0.24762	
-0.25061	
-0.253296	
-0.257019	
-0.259521	
-0.264282	
-0.269165	
-0.273438	
-0.278809	
-0.283813	
-0.288391	
-0.293884	
-0.298157	
-0.302551	
-0.306396	
-0.309448	
-0.313965	
-0.316528	
-0.320129	
-0.323547	
-0.323364	
-0.324341	
-0.325256	
-0.327454	
-0.329834	
-0.330383	
-0.334717	
-0.335693	
-0.337097	
-0.339233	
-0.339417	
-0.340454	
-0.339844	
-0.340515	
-0.342224	
-0.343323	
-0.344238	
-0.345215	
-0.346619	
-0.34845	
-0.350159	
-0.349976	
-0.351257	
-0.351501	
-0.353821	
-0.354431	
-0.355591	
-0.356567	
-0.357544	
-0.359131	
-0.360291	
-0.361389	
-0.362488	
-0.362854	
-0.363403	
-0.363708	
-0.364624	
-0.365662	
-0.364929	
-0.367249	
-0.368042	
-0.367004	
-0.367737	
-0.366821	
-0.367249	
-0.367676	
-0.368042	
-0.369507	
-0.369995	
-0.372192	
-0.374939	
-0.378174	
-0.380737	
-0.384827	
-0.388367	
-0.3927	
-0.397461	
-0.401367	
-0.407532	
-0.412415	
-0.418457	
-0.425171	
-0.430908	
-0.43811	
-0.444885	
-0.452393	
-0.461243	
-0.471863	
-0.485107	
-0.497192	
-0.509583	
-0.521606	
-0.529419	
-0.53772	
-0.543152	
-0.548767	
-0.553345	
-0.556763	
-0.559814	
-0.559753	
-0.560425	
-0.560791	
-0.560608	
-0.558655	
-0.556702	
-0.555786	
-0.554382	
-0.553162	
-0.551819	
-0.551514	
-0.550476	
-0.549255	
-0.548096	
-0.546387	
-0.544617	
-0.541504	
-0.537842	
-0.537781	
-0.5354	
-0.534546	
-0.532104	
-0.530212	
-0.52832	
-0.526184	
-0.521606	
-0.517578	
-0.513428	
-0.508301	
-0.503418	
-0.49823	
-0.493774	
-0.489563	
-0.485046	
-0.480774	
-0.477844	
-0.474121	
-0.470093	
-0.466553	
-0.463623	
-0.460144	
-0.45636	
-0.452698	
-0.450867	
-0.448303	
-0.44635	
-0.443054	
-0.440308	
-0.437866	
-0.434937	
-0.432068	
-0.429443	
-0.426392	
-0.42395	
-0.420776	
-0.416931	
-0.414063	
-0.409424	
-0.404297	
-0.398499	
-0.392273	
-0.384766	
-0.376221	
-0.366821	
-0.358337	
-0.348816	
-0.339294	
-0.330322	
-0.318665	
-0.307007	
-0.296021	
-0.28418	
-0.274292	
-0.263855	
-0.254028	
-0.246704	
-0.239868	
-0.234619	
-0.230652	
-0.226257	
-0.224365	
-0.22345	
-0.223572	
-0.225098	
-0.224854	
-0.227539	
-0.229553	
-0.233032	
-0.237854	
-0.239929	
-0.244263	
-0.248474	
-0.253479	
-0.258179	
-0.262024	
-0.26825	
-0.273193	
-0.278809	
-0.284546	
-0.288574	
-0.293335	
-0.29718	
-0.301147	
-0.304871	
-0.307861	
-0.310913	
-0.314209	
-0.316528	
-0.320251	
-0.322815	
-0.324951	
-0.326965	
-0.329163	
-0.33197	
-0.334961	
-0.336487	
-0.338379	
-0.341248	
-0.343811	
-0.346069	
-0.347534	
-0.349426	
-0.351013	
-0.353088	
-0.354492	
-0.356506	
-0.357849	
-0.359802	
-0.360596	
-0.362427	
-0.36261	
-0.363953	
-0.363892	
-0.366089	
-0.366943	
-0.367554	
-0.367737	
-0.368103	
-0.369446	
-0.371033	
-0.370728	
-0.369629	
-0.369202	
-0.3703	
-0.370239	
-0.370728	
-0.369507	
-0.370667	
-0.370972	
-0.371216	
-0.371704	
-0.371704	
-0.371155	
-0.371094	
-0.370483	
-0.371094	
-0.371399	
-0.371399	
-0.371643	
-0.371948	
-0.372559	
-0.372437	
-0.372559	
-0.371704	
-0.372375	
-0.373169	
-0.373718	
-0.372742	
-0.374084	
-0.374451	
-0.375488	
-0.375854	
-0.376038	
-0.375916	
-0.375305	
-0.375732	
-0.376831	
-0.37738	
-0.377319	
-0.378052	
-0.378418	
-0.379211	
-0.379211	
-0.378784	
-0.377625	
-0.378601	
-0.378113	
-0.379333	
-0.378479	
-0.380066	
-0.380554	
-0.380676	
-0.38147	
-0.381714	
-0.380676	
-0.380615	
-0.381409	
-0.382324	
-0.382019	
-0.382507	
-0.38269	
-0.383057	
-0.383789	
-0.383484	
-0.38324	
-0.383911	
-0.383972	
-0.384277	
-0.384338	
-0.38446	
-0.385193	
-0.384949	
-0.384705	
-0.385071	
-0.384827	
-0.384277	
-0.384338	
-0.385254	
-0.384827	
-0.384827	
-0.385132	
-0.385559	
-0.385742	
-0.385193	
-0.385559	
-0.385132	
-0.385254	
-0.385193	
-0.385864	
-0.38501	
-0.386353	
-0.38678	
-0.386597	
-0.386597	
-0.387146	
-0.386536	
-0.387695	
-0.386169	
-0.386902	
-0.386475	
-0.388184	
-0.387451	
-0.387878	
-0.387634	
-0.387451	
-0.387024	
-0.386536	
-0.386902	
-0.387512	
-0.387512	
-0.387451	
-0.388062	
-0.389099	
-0.388306	
-0.387573	
-0.387024	
-0.386902	
-0.386536	
-0.385681	
-0.385986	
-0.385254	
-0.38623	
-0.385925	
-0.385803	
-0.385193	
-0.386169	
-0.385742	
-0.385864	
-0.386169	
-0.385681	
-0.385559	
-0.386169	
-0.385742	
-0.385986	
-0.386047	
-0.386353	
-0.385681	
-0.386719	
-0.386658	
-0.385681	
-0.386658	
-0.387451	
-0.387756	
-0.388367	
-0.387207	
-0.386963	
-0.387573	
-0.388245	
-0.388367	
-0.387878	
-0.388	
-0.387756	
-0.389221	
-0.388123	
-0.388184	
-0.388855	
-0.389465	
-0.390442	
-0.389893	
-0.390015	
-0.389771	
-0.390259	
-0.390747	
-0.391113	
-0.391785	
-0.391296	
-0.391846	
-0.391235	
-0.391907	
-0.392029	
-0.392273	
-0.392395	
-0.391357	
-0.393494	
-0.392883	
-0.392334	
-0.392151	
-0.391846	
-0.392639	
-0.391907	
-0.391968	
-0.390808	
-0.391602	
-0.39209	
-0.391296	
-0.391235	
-0.390137	
-0.390808	
-0.389832	
-0.39032	
-0.389038	
-0.390076	
-0.389099	
-0.389709	
-0.390198	
-0.389465	
-0.389282	
-0.389526	
-0.389038	
-0.389343	
-0.389587	
-0.388611	
-0.388123	
-0.387329	
-0.388855	
-0.388489	
-0.389526	
-0.388123	
-0.388733	
-0.388062	
-0.388245	
-0.387695	
-0.38739	
-0.388245	
-0.388489	
-0.388794	
-0.389099	
-0.388794	
-0.387756	
-0.387817	
-0.388	
-0.387024	
-0.387817	
-0.388184	
-0.388245	
-0.388428	
-0.389282	
-0.388245	
-0.388062	
-0.387512	
-0.388611	
-0.388672	
-0.388062	
-0.387146	
-0.387329	
-0.388184	
-0.389099	
-0.388367	
-0.387573	
-0.386597	
-0.387634	
-0.388489	
-0.38739	
-0.387756	
-0.387451	
-0.387939	
-0.388916	
-0.388733	
-0.388123	
-0.388306	
-0.387817	
-0.388916	
-0.388428	
-0.387817	
-0.388245	
-0.386902	
-0.388306	
-0.389282	
-0.388062	
-0.387878	
-0.387573	
-0.388062	
-0.388977	
-0.387329	
-0.38855	
-0.388367	
-0.389465	
-0.390076	
-0.39032	
-0.389832	
-0.390381	
-0.390503	
-0.390991	
-0.391296	
-0.39032	
-0.390808	
-0.389709	
-0.390991	
-0.391907	
-0.392029	
-0.391052	
-0.391357	
-0.390015	
-0.391357	
-0.390625	
-0.391174	
-0.390686	
-0.38916	
-0.390564	
-0.390869	
-0.389954	
-0.390259	
-0.389954	
-0.390015	
-0.390137	
-0.389648	
-0.389893	
-0.388916	
-0.389221	
-0.390503	
-0.390137	
-0.388489	
-0.388794	
-0.387695	
-0.387451	
-0.388428	
-0.387268	
-0.386536	
-0.384705	
-0.387878	
-0.387146	
-0.386963	
-0.386353	
-0.38623	
-0.385254	
-0.386353	
-0.384888	
-0.385376	
-0.38446	
-0.38501	
-0.386047	
-0.385925	
-0.385498	
-0.385315	
-0.384705	
-0.385803	
-0.38678	
-0.385681	
-0.385559	
-0.384827	
-0.386597	
-0.386841	
-0.387024	
-0.386963	
-0.386353	
-0.387268	
-0.388367	
-0.386414	
-0.386658	
-0.387695	
-0.388123	
-0.388977	
-0.390015	
-0.389587	
-0.390015	
-0.39032	
-0.390259	
-0.391602	
-0.390747	
-0.390686	
-0.390686	
-0.391418	
-0.392273	
-0.391602	
-0.391541	
-0.391907	
-0.391174	
-0.392151	
-0.391357	
-0.391602	
-0.391907	
-0.391052	
-0.392212	
-0.392761	
-0.391541	
-0.391479	
-0.389893	
-0.391052	
-0.391541	
-0.390869	
-0.390564	
-0.389526	
-0.389893	
-0.389648	
-0.390564	
-0.389343	
-0.389709	
-0.388428	
-0.389282	
-0.389465	
-0.389282	
-0.388672	
-0.38739	
-0.388611	
-0.389465	
-0.38916	
-0.38855	
-0.388733	
-0.388123	
-0.387695	
-0.387695	
-0.387451	
-0.387024	
-0.386658	
-0.387207	
-0.388062	
-0.387024	
-0.386719	
-0.385986	
-0.386536	
-0.387512	
-0.385986	
-0.386597	
-0.386047	
-0.386475	
-0.387329	
-0.387878	
-0.387207	
-0.38739	
-0.386597	
-0.387207	
-0.388428	
-0.38739	
-0.386475	
-0.385559	
-0.38739	
-0.388184	
-0.38739	
-0.387634	
-0.388062	
-0.386963	
-0.387573	
-0.388123	
-0.387146	
-0.386658	
-0.386169	
-0.387268	
-0.387085	
-0.387024	
-0.386963	
-0.385864	
-0.386902	
-0.387268	
-0.386047	
-0.387085	
-0.386963	
-0.386841	
-0.387756	
-0.388306	
-0.387512	
-0.387695	
-0.386963	
-0.387451	
-0.388367	
-0.387756	
-0.387207	
-0.387268	
-0.387573	
-0.388977	
-0.388977	
-0.389038	
-0.388672	
-0.388611	
-0.390198	
-0.39093	
-0.389832	
-0.389709	
-0.388428	
-0.390259	
-0.390198	
-0.390381	
-0.390198	
-0.390503	
-0.390137	
-0.390564	
-0.390198	
-0.390991	
-0.39032	
-0.389832	
-0.391724	
-0.390625	
-0.389954	
-0.390198	
-0.389771	
-0.390076	
-0.390869	
-0.390076	
-0.389526	
-0.389954	
-0.389648	
-0.389893	
-0.389771	
-0.389404	
-0.38916	
-0.388245	
-0.390198	
-0.391174	
-0.389404	
-0.388733	
-0.388	
-0.388611	
-0.388855	
-0.388184	
-0.388062	
-0.388245	
-0.387695	
-0.387939	
-0.387634	
-0.386902	
-0.387512	
-0.386108	
-0.387817	
-0.387207	
-0.386169	
-0.386108	
-0.386169	
-0.386414	
-0.387146	
-0.387146	
-0.387573	
-0.387146	
-0.386902	
-0.388184	
-0.387939	
-0.387756	
-0.387817	
-0.38739	
-0.388611	
-0.389832	
-0.389648	
-0.389954	
-0.388367	
-0.388916	
-0.389404	
-0.390015	
-0.390015	
-0.390869	
-0.39032	
-0.390259	
-0.390442	
-0.390564	
-0.390808	
-0.389587	
-0.392029	
-0.392456	
-0.391296	
-0.391602	
-0.391724	
-0.391602	
-0.392212	
-0.392517	
-0.39209	
-0.392273	
-0.391907	
-0.393738	
-0.39325	
-0.392456	
-0.39209	
-0.392334	
-0.393555	
-0.393738	
-0.392822	
-0.393127	
-0.391907	
-0.39325	
-0.393799	
-0.392517	
-0.392761	
-0.393311	
-0.392334	
-0.393494	
-0.3927	
-0.393372	
-0.393188	
-0.3927	
-0.393677	
-0.393738	
-0.393005	
-0.393555	
-0.393311	
-0.393372	
-0.394104	
-0.394165	
-0.39325	
-0.393372	
-0.392578	
-0.39447	
-0.394043	
-0.393555	
-0.393311	
-0.392517	
-0.393372	
-0.393677	
-0.393433	
-0.393677	
-0.393127	
-0.392944	
-0.393921	
-0.393494	
-0.393738	
-0.393066	
-0.39325	
-0.393921	
-0.393982	
-0.393066	
-0.393372	
-0.392334	
-0.393005	
-0.392944	
-0.392273	
-0.39209	
-0.391541	
-0.391724	
-0.391602	
-0.390991	
-0.391296	
-0.390991	
-0.389709	
-0.391357	
-0.391235	
-0.390198	
-0.390137	
-0.389893	
-0.390259	
-0.391052	
-0.390198	
-0.39032	
-0.39032	
-0.390747	
-0.391968	
-0.391541	
-0.39093	
-0.391052	
-0.390625	
-0.391907	
-0.392639	
-0.391846	
-0.391724	
-0.391113	
-0.392395	
-0.392395	
-0.392395	
-0.392151	
-0.391602	
-0.392639	
-0.393372	
-0.39386	
-0.393555	
-0.393982	
-0.393494	
-0.395386	
-0.394653	
-0.394531	
-0.395081	
-0.394653	
-0.39502	
-0.395874	
-0.395935	
-0.396057	
-0.39624	
-0.395508	
-0.39679	
-0.397705	
-0.39679	
-0.397034	
-0.396057	
-0.39679	
-0.397644	
-0.396179	
-0.396729	
-0.396729	
-0.396423	
-0.397278	
-0.396423	
-0.395752	
-0.395508	
-0.394958	
-0.395264	
-0.394653	
-0.394836	
-0.394592	
-0.393921	
-0.394409	
-0.39386	
-0.393433	
-0.392822	
-0.391724	
-0.392578	
-0.39209	
-0.392944	
-0.391602	
-0.391235	
-0.388977	
-0.391541	
-0.39209	
-0.390869	
-0.390686	
-0.390503	
-0.390442	
-0.390198	
-0.390259	
-0.390259	
-0.390625	
-0.388977	
-0.391724	
-0.390686	
-0.391052	
-0.391357	
-0.391113	
-0.391113	
-0.391113	
-0.391785	
-0.391541	
-0.392334	
-0.39209	
-0.392883	
-0.392883	
-0.392883	
-0.391418	
-0.3927	
-0.392517	
-0.393799	
-0.393005	
-0.393005	
-0.393066	
-0.39386	
-0.394348	
-0.393616	
-0.39386	
-0.392761	
-0.393799	
-0.394226	
-0.395752	
-0.394775	
-0.394531	
-0.393494	
-0.395813	
-0.395264	
-0.394958	
-0.395813	
-0.394226	
-0.395569	
-0.395203	
-0.396545	
-0.395813	
-0.39624	
-0.39563	
-0.397461	
-0.395752	
-0.395386	
-0.39502	
-0.395508	
-0.395081	
-0.395203	
-0.395874	
-0.395081	
-0.395203	
-0.394531	
-0.396301	
-0.395081	
-0.394897	
-0.393616	
-0.394836	
-0.395081	
-0.395752	
-0.394714	
-0.394897	
-0.394958	
-0.395203	
-0.395508	
-0.394775	
-0.395813	
-0.394104	
-0.395447	
-0.394714	
-0.39563	
-0.395142	
-0.395203	
-0.393188	
-0.395813	
-0.394897	
-0.394897	
-0.394409	
-0.39447	
-0.394775	
-0.393982	
-0.395752	
-0.394897	
-0.394592	
-0.394409	
-0.395691	
-0.393738	
-0.393555	
-0.39209	
-0.393066	
-0.391968	
-0.393127	
-0.392883	
-0.392212	
-0.392151	
-0.391846	
-0.392822	
-0.392456	
-0.392212	
-0.390869	
-0.391479	
-0.391724	
-0.392822	
-0.391113	
-0.391602	
-0.39093	
-0.391907	
-0.391541	
-0.392334	
-0.392212	
-0.391724	
-0.391968	
-0.391174	
-0.392639	
-0.392395	
-0.39209	
-0.392212	
-0.393799	
-0.393066	
-0.392883	
-0.391235	
-0.392029	
-0.392334	
-0.392639	
-0.393127	
-0.392517	
-0.392822	
-0.393066	
-0.394653	
-0.393677	
-0.393616	
-0.393921	
-0.394043	
-0.394226	
-0.395386	
-0.395569	
-0.39447	
-0.394409	
-0.394165	
-0.395996	
-0.395508	
-0.396179	
-0.395691	
-0.395813	
-0.395752	
-0.396301	
-0.395752	
-0.395325	
-0.394409	
-0.395935	
-0.394775	
-0.39502	
-0.394897	
-0.394287	
-0.394531	
-0.393005	
-0.393738	
-0.393311	
-0.392883	
-0.392456	
-0.393677	
-0.393188	
-0.3927	
-0.391113	
-0.392212	
-0.391541	
-0.392517	
-0.392761	
-0.391541	
-0.391174	
-0.391357	
-0.392212	
-0.390686	
-0.391235	
-0.39032	
-0.390991	
-0.390015	
-0.391479	
-0.390564	
-0.390076	
-0.389038	
-0.389709	
-0.39032	
-0.39032	
-0.390381	
-0.389526	
-0.390015	
-0.389221	
-0.390625	
-0.389526	
-0.389404	
-0.389038	
-0.390381	
-0.389282	
-0.390137	
-0.388184	
-0.388428	
-0.389343	
-0.390076	
-0.389954	
-0.38916	
-0.389099	
-0.388794	
-0.389709	
-0.388855	
-0.388977	
-0.388672	
-0.389282	
-0.388977	
-0.389465	
-0.389221	
-0.388794	
-0.388367	
-0.388672	
-0.389465	
-0.388916	
-0.389465	
-0.389404	
-0.388367	
-0.387573	
-0.389648	
-0.38916	
-0.388916	
-0.388184	
-0.389526	
-0.390137	
-0.38916	
-0.388123	
-0.388611	
-0.388855	
-0.389038	
-0.389526	
-0.389099	
-0.388672	
-0.38916	
-0.389771	
-0.390137	
-0.391052	
-0.390747	
-0.389404	
-0.391418	
-0.392456	
-0.391602	
-0.391357	
-0.391357	
-0.391602	
-0.39209	
-0.39209	
-0.39209	
-0.391724	
-0.392578	
-0.391846	
-0.392761	
-0.391785	
-0.391968	
-0.391296	
-0.391663	
-0.392578	
-0.391479	
-0.390442	
-0.391052	
-0.390991	
-0.389832	
-0.391296	
-0.390808	
-0.390625	
-0.390564	
-0.390625	
-0.390747	
-0.390503	
-0.390503	
-0.389404	
-0.389709	
-0.389893	
-0.389648	
-0.388916	
-0.387939	
-0.388245	
-0.388062	
-0.387939	
-0.388123	
-0.38739	
-0.387817	
-0.386963	
-0.387817	
-0.388245	
-0.387146	
-0.385559	
-0.386719	
-0.386902	
-0.386047	
-0.385925	
-0.385986	
-0.38562	
-0.385559	
-0.38678	
-0.386475	
-0.386047	
-0.386169	
-0.385925	
-0.387634	
-0.387024	
-0.386047	
-0.38678	
-0.387573	
-0.388062	
-0.388672	
-0.387817	
-0.388	
-0.388977	
-0.388489	
-0.389709	
-0.389709	
-0.389771	
-0.389099	
-0.389954	
-0.391724	
-0.391968	
-0.391113	
-0.390808	
-0.392578	
-0.391602	
-0.391907	
-0.392578	
-0.391663	
-0.392029	
-0.392395	
-0.3927	
-0.393433	
-0.392517	
-0.392334	
-0.3927	
-0.392822	
-0.392395	
-0.391968	
-0.391907	
-0.391968	
-0.391541	
-0.391846	
-0.391724	
-0.391785	
-0.391541	
-0.390564	
-0.391541	
-0.391052	
-0.390076	
-0.389832	
-0.390381	
-0.391724	
-0.39093	
-0.390076	
-0.389587	
-0.389465	
-0.389709	
-0.389954	
-0.389893	
-0.389343	
-0.388489	
-0.388855	
-0.389404	
-0.390137	
-0.388489	
-0.386841	
-0.388306	
-0.388184	
-0.388245	
-0.388428	
-0.387451	
-0.387817	
-0.387451	
-0.387939	
-0.387817	
-0.387451	
-0.38678	
-0.387695	
-0.388062	
-0.387756	
-0.387268	
-0.387695	
-0.388306	
-0.387695	
-0.388916	
-0.387939	
-0.387817	
-0.388367	
-0.388	
-0.389099	
-0.388245	
-0.388	
-0.387451	
-0.387878	
-0.388977	
-0.388916	
-0.388855	
-0.387878	
-0.388123	
-0.387939	
-0.388428	
-0.387878	
-0.38739	
-0.387024	
-0.387939	
-0.388611	
-0.388184	
-0.388062	
-0.386902	
-0.38916	
-0.388916	
-0.388367	
-0.388428	
-0.388428	
-0.388245	
-0.388367	
-0.388977	
-0.388794	
-0.388489	
-0.388245	
-0.388794	
-0.390076	
-0.389282	
-0.390686	
-0.390076	
-0.39032	
-0.390076	
-0.391296	
-0.390747	
-0.390625	
-0.39032	
-0.391418	
-0.39209	
-0.391052	
-0.391235	
-0.391052	
-0.391907	
-0.392517	
-0.392212	
-0.39209	
-0.390808	
-0.391907	
-0.391724	
-0.391785	
-0.391602	
-0.391113	
-0.391174	
-0.391418	
-0.391724	
-0.391541	
-0.391052	
-0.390137	
-0.391663	
-0.391296	
-0.390991	
-0.390625	
-0.390808	
-0.390869	
-0.390747	
-0.392029	
-0.390808	
-0.390625	
-0.390686	
-0.390503	
-0.390747	
-0.390137	
-0.389709	
-0.388916	
-0.388733	
-0.38916	
-0.389282	
-0.388489	
-0.388489	
-0.387878	
-0.388306	
-0.388794	
-0.388245	
-0.388	
-0.387024	
-0.387634	
-0.388794	
-0.388123	
-0.388123	
-0.387878	
-0.389709	
-0.389038	
-0.389282	
-0.389526	
-0.388855	
-0.389465	
-0.389771	
-0.389954	
-0.390625	
-0.390198	
-0.390198	
-0.391602	
-0.391418	
-0.390686	
-0.390991	
-0.391418	
-0.391296	
-0.391296	
-0.392517	
-0.392029	
-0.391418	
-0.391846	
-0.392395	
-0.393372	
-0.393127	
-0.391846	
-0.392395	
-0.392761	
-0.393799	
-0.393799	
-0.393433	
-0.392517	
-0.392395	
-0.394348	
-0.394287	
-0.394104	
-0.394043	
-0.39325	
-0.394165	
-0.394775	
-0.394653	
-0.394348	
-0.394531	
-0.394958	
-0.394714	
-0.39447	
-0.395691	
-0.394104	
-0.394287	
-0.394897	
-0.394897	
-0.394348	
-0.39386	
-0.394714	
-0.395569	
-0.39502	
-0.394592	
-0.395264	
-0.394287	
-0.39502	
-0.39447	
-0.395813	
-0.39502	
-0.394348	
-0.394043	
-0.395935	
-0.395935	
-0.395264	
-0.394409	
-0.39447	
-0.39502	
-0.395447	
-0.39502	
-0.394897	
-0.394958	
-0.394592	
-0.395081	
-0.395508	
-0.395325	
-0.393982	
-0.393799	
-0.395386	
-0.395996	
-0.395508	
-0.394897	
-0.394775	
-0.395325	
-0.395325	
-0.394714	
-0.394653	
-0.392944	
-0.39386	
-0.39386	
-0.393738	
-0.393433	
-0.392395	
-0.391907	
-0.392822	
-0.393066	
-0.392395	
-0.392639	
-0.39209	
-0.391968	
-0.392029	
-0.392212	
-0.392334	
-0.390747	
-0.391968	
-0.392761	
-0.393188	
-0.392639	
-0.392456	
-0.39209	
-0.393311	
-0.39386	
-0.39325	
-0.392944	
-0.393188	
-0.394043	
-0.394348	
-0.393982	
-0.394714	
-0.393372	
-0.39325	
-0.394592	
-0.395508	
-0.394958	
-0.394958	
-0.395386	
-0.395996	
-0.397278	
-0.396179	
-0.397156	
-0.395935	
-0.396851	
-0.397278	
-0.397156	
-0.397705	
-0.397461	
-0.39801	
-0.398315	
-0.39978	
-0.398315	
-0.39856	
-0.397644	
-0.398865	
-0.39978	
-0.398743	
-0.398804	
-0.397156	
-0.39856	
-0.398926	
-0.399475	
-0.398438	
-0.397583	
-0.396973	
-0.397522	
-0.39856	
-0.397339	
-0.396912	
-0.39563	
-0.396301	
-0.39679	
-0.396057	
-0.395569	
-0.394714	
-0.394165	
-0.394226	
-0.394287	
-0.393127	
-0.393188	
-0.392456	
-0.393555	
-0.393677	
-0.393127	
-0.393066	
-0.392517	
-0.392212	
-0.392029	
-0.392029	
-0.391968	
-0.391907	
-0.391968	
-0.392944	
-0.394043	
-0.393005	
-0.39325	
-0.392334	
-0.393188	
-0.394165	
-0.393311	
-0.39325	
-0.393005	
-0.394409	
-0.394836	
-0.395752	
-0.395325	
-0.395142	
-0.392761	
-0.394836	
-0.395935	
-0.394775	
-0.394897	
-0.394409	
-0.395508	
-0.395813	
-0.395691	
-0.396545	
	
