E:\DOCUMENTS AND SETTINGS\JPOTAS\MEUS DOCUMENTOS\UFRJ\RSCI-BM 12 WK SERIES\070723-RSCI-BM-06\RSCI-BM-06-LEMG\070723-RSCI-BM-LEMG-0007.ACQ
0.025000 msec/sample
1 channel
Analog input
Volts
CH1	
2000	
-0.395874	
-0.396301	
-0.396362	
-0.395691	
-0.396667	
-0.394409	
-0.396362	
-0.395081	
-0.396179	
-0.39563	
-0.396301	
-0.395569	
-0.396179	
-0.396912	
-0.395874	
-0.396484	
-0.395691	
-0.395752	
-0.39502	
-0.396118	
-0.395935	
-0.394958	
-0.395752	
-0.395996	
-0.396729	
-0.396179	
-0.397156	
-0.396423	
-0.396667	
-0.396057	
-0.395386	
-0.396362	
-0.395691	
-0.396667	
-0.395813	
-0.396912	
-0.396484	
-0.396729	
-0.396973	
-0.39624	
-0.396973	
-0.396179	
-0.396667	
-0.395264	
-0.396545	
-0.395691	
-0.396851	
-0.396362	
-0.396179	
-0.397034	
-0.395691	
-0.39679	
-0.395874	
-0.397095	
-0.39563	
-0.396301	
-0.395691	
-0.396545	
-0.396301	
-0.396179	
-0.396118	
-0.395386	
-0.396973	
-0.394958	
-0.39679	
-0.395813	
-0.395325	
-0.395447	
-0.395508	
-0.396301	
-0.395996	
-0.395996	
-0.395142	
-0.396057	
-0.394714	
-0.39563	
-0.394958	
-0.395752	
-0.395691	
-0.395447	
-0.396729	
-0.396362	
-0.395996	
-0.396057	
-0.396423	
-0.395325	
-0.395691	
-0.395569	
-0.395752	
-0.395813	
-0.395569	
-0.395996	
-0.395935	
-0.396301	
-0.396484	
-0.395935	
-0.394836	
-0.395691	
-0.39563	
-0.395081	
-0.395203	
-0.39447	
-0.395447	
-0.39502	
-0.395813	
-0.39502	
-0.394409	
-0.39447	
-0.394287	
-0.394653	
-0.393005	
-0.394531	
-0.393433	
-0.394165	
-0.394104	
-0.394165	
-0.394043	
-0.392761	
-0.394043	
-0.393372	
-0.394043	
-0.392639	
-0.39325	
-0.392578	
-0.393005	
-0.393494	
-0.393311	
-0.39325	
-0.392273	
-0.39325	
-0.391418	
-0.391602	
-0.391846	
-0.391418	
-0.390991	
-0.390991	
-0.391968	
-0.390991	
-0.392151	
-0.391602	
-0.392456	
-0.391724	
-0.392212	
-0.392944	
-0.393555	
-0.393738	
-0.394531	
-0.394958	
-0.394287	
-0.395935	
-0.395386	
-0.395142	
-0.395386	
-0.395447	
-0.394714	
-0.395569	
-0.396057	
-0.395508	
-0.395447	
-0.395386	
-0.395874	
-0.395996	
-0.395508	
-0.394775	
-0.394531	
-0.394958	
-0.395264	
-0.394409	
-0.393066	
-0.394348	
-0.394409	
-0.39447	
-0.39447	
-0.393372	
-0.393799	
-0.393127	
-0.393677	
-0.393799	
-0.393982	
-0.393372	
-0.394104	
-0.39386	
-0.393616	
-0.394226	
-0.393005	
-0.393372	
-0.392578	
-0.392273	
-0.391724	
-0.392334	
-0.392151	
-0.392456	
-0.392761	
-0.391724	
-0.393005	
-0.391785	
-0.391846	
-0.386963	
-0.385559	
-0.38501	
-0.38678	
-0.386658	
-0.386475	
-0.391418	
-0.391663	
-0.39209	
-0.3927	
-0.3927	
-0.391174	
-0.391907	
-0.391418	
-0.391907	
-0.391846	
-0.391479	
-0.393005	
-0.39209	
-0.392456	
-0.392944	
-0.392578	
-0.391724	
-0.392578	
-0.391846	
-0.391479	
-0.391479	
-0.391785	
-0.392273	
-0.39209	
-0.392273	
-0.392456	
-0.388977	
-0.387207	
-0.387756	
-0.387634	
-0.387573	
-0.387878	
-0.392273	
-0.393005	
-0.392761	
-0.392883	
-0.392395	
-0.391602	
-0.391479	
-0.390686	
-0.390869	
-0.392273	
-0.393188	
-0.394348	
-0.39624	
-0.399414	
-0.401978	
-0.405701	
-0.408752	
-0.413025	
-0.417114	
-0.42218	
-0.427734	
-0.432007	
-0.437561	
-0.442383	
-0.44696	
-0.453186	
-0.459229	
-0.465454	
-0.472534	
-0.48291	
-0.492798	
-0.506226	
-0.518738	
-0.530945	
-0.541504	
-0.549622	
-0.558472	
-0.565857	
-0.570374	
-0.575439	
-0.580383	
-0.583435	
-0.585022	
-0.5849	
-0.584717	
-0.583801	
-0.581177	
-0.579712	
-0.577637	
-0.574707	
-0.572021	
-0.57019	
-0.568787	
-0.568115	
-0.566528	
-0.566711	
-0.566162	
-0.564392	
-0.564087	
-0.562439	
-0.56073	
-0.558777	
-0.557312	
-0.556274	
-0.554382	
-0.551697	
-0.550781	
-0.549255	
-0.546448	
-0.544678	
-0.542664	
-0.539673	
-0.536316	
-0.532227	
-0.528625	
-0.523926	
-0.517456	
-0.512756	
-0.507874	
-0.502808	
-0.498779	
-0.494568	
-0.490173	
-0.486206	
-0.483093	
-0.479431	
-0.477661	
-0.474121	
-0.473999	
-0.472351	
-0.469727	
-0.468628	
-0.466064	
-0.46344	
-0.461182	
-0.459229	
-0.456543	
-0.455688	
-0.453125	
-0.453125	
-0.452515	
-0.450745	
-0.451111	
-0.450073	
-0.448669	
-0.447754	
-0.447144	
-0.445496	
-0.445129	
-0.443542	
-0.441833	
-0.43988	
-0.436768	
-0.434326	
-0.430603	
-0.42688	
-0.421997	
-0.418396	
-0.41272	
-0.406982	
-0.40094	
-0.393616	
-0.386047	
-0.377563	
-0.368164	
-0.358215	
-0.348633	
-0.33783	
-0.328552	
-0.318542	
-0.311584	
-0.304688	
-0.298523	
-0.294067	
-0.289978	
-0.288147	
-0.286377	
-0.285583	
-0.284729	
-0.286255	
-0.286377	
-0.28833	
-0.289673	
-0.29248	
-0.2948	
-0.296753	
-0.299927	
-0.302124	
-0.306458	
-0.309143	
-0.313843	
-0.316833	
-0.320984	
-0.324036	
-0.329102	
-0.333557	
-0.337097	
-0.340332	
-0.342896	
-0.347107	
-0.35083	
-0.353149	
-0.356995	
-0.360596	
-0.364441	
-0.367798	
-0.370544	
-0.374512	
-0.377502	
-0.380493	
-0.381531	
-0.384399	
-0.385437	
-0.387573	
-0.388611	
-0.390259	
-0.39209	
-0.392395	
-0.392578	
-0.393311	
-0.394104	
-0.392578	
-0.392273	
-0.391907	
-0.392212	
-0.392029	
-0.392212	
-0.392212	
-0.391235	
-0.390076	
-0.388916	
-0.389221	
-0.387939	
-0.386047	
-0.384583	
-0.38446	
-0.383423	
-0.382568	
-0.380981	
-0.380432	
-0.378357	
-0.374939	
-0.373962	
-0.372437	
-0.369263	
-0.365112	
-0.362488	
-0.358826	
-0.354492	
-0.350464	
-0.347351	
-0.342712	
-0.339111	
-0.335876	
-0.334839	
-0.332214	
-0.331055	
-0.330383	
-0.331726	
-0.333496	
-0.333801	
-0.335205	
-0.33728	
-0.339722	
-0.341064	
-0.342407	
-0.345947	
-0.348816	
-0.35083	
-0.354736	
-0.356628	
-0.359192	
-0.361145	
-0.362305	
-0.365784	
-0.367004	
-0.369019	
-0.369995	
-0.371826	
-0.373779	
-0.374817	
-0.375305	
-0.378052	
-0.378784	
-0.379089	
-0.381287	
-0.382751	
-0.38324	
-0.384094	
-0.385986	
-0.387451	
-0.38916	
-0.390015	
-0.392639	
-0.393005	
-0.392883	
-0.393127	
-0.394348	
-0.395447	
-0.39502	
-0.394958	
-0.396851	
-0.397827	
-0.397278	
-0.397034	
-0.396545	
-0.397705	
-0.397949	
-0.396729	
-0.3974	
-0.397156	
-0.397888	
-0.398254	
-0.397888	
-0.397949	
-0.39801	
-0.398438	
-0.399475	
-0.398987	
-0.398804	
-0.399475	
-0.399536	
-0.400208	
-0.401367	
-0.40094	
-0.40094	
-0.400757	
-0.401367	
-0.400879	
-0.402039	
-0.401978	
-0.40094	
-0.40155	
-0.4021	
-0.402222	
-0.402527	
-0.403015	
-0.403137	
-0.403198	
-0.403503	
-0.403076	
-0.403381	
-0.403503	
-0.402466	
-0.404236	
-0.402893	
-0.402405	
-0.4021	
-0.401672	
-0.401611	
-0.401062	
-0.400024	
-0.399475	
-0.400024	
-0.398682	
-0.400269	
-0.39917	
-0.400757	
-0.399902	
-0.399109	
-0.397949	
-0.39917	
-0.398193	
-0.397217	
-0.397827	
-0.397095	
-0.397461	
-0.396301	
-0.395386	
-0.39447	
-0.394653	
-0.392151	
-0.392578	
-0.392334	
-0.39209	
-0.391418	
-0.391541	
-0.392212	
-0.39093	
-0.389709	
-0.389709	
-0.389587	
-0.388123	
-0.388245	
-0.386658	
-0.385925	
-0.385071	
-0.384338	
-0.384277	
-0.382935	
-0.381653	
-0.38147	
-0.381104	
-0.380127	
-0.380371	
-0.379944	
-0.379822	
-0.379395	
-0.380005	
-0.380554	
-0.379944	
-0.380432	
-0.381592	
-0.381714	
-0.380798	
-0.381958	
-0.381531	
-0.382202	
-0.382813	
-0.383667	
-0.384644	
-0.384583	
-0.385132	
-0.385803	
-0.385559	
-0.38446	
-0.385071	
-0.38501	
-0.385559	
-0.386169	
-0.38623	
-0.386658	
-0.386353	
-0.386963	
-0.386658	
-0.387085	
-0.386108	
-0.385803	
-0.385498	
-0.385559	
-0.386353	
-0.385803	
-0.387146	
-0.386597	
-0.386841	
-0.387634	
-0.388733	
-0.387146	
-0.388123	
-0.388123	
-0.387634	
-0.388489	
-0.38855	
-0.389221	
-0.388672	
-0.389404	
-0.390015	
-0.390015	
-0.388	
-0.388855	
-0.389587	
-0.389771	
-0.389709	
-0.390625	
-0.390503	
-0.389954	
-0.391113	
-0.39032	
-0.390503	
-0.390015	
-0.389099	
-0.389832	
-0.389832	
-0.39032	
-0.390137	
-0.390625	
-0.391357	
-0.391968	
-0.390991	
-0.39093	
-0.39032	
-0.389648	
-0.390381	
-0.389954	
-0.39093	
-0.39093	
-0.391235	
-0.391541	
-0.391968	
-0.391968	
-0.39093	
-0.390625	
-0.390259	
-0.391418	
-0.389648	
-0.391235	
-0.391541	
-0.391418	
-0.391052	
-0.391785	
-0.392212	
-0.391541	
-0.390686	
-0.390503	
-0.39093	
-0.389587	
-0.391968	
-0.391785	
-0.393127	
-0.392639	
-0.392883	
-0.393555	
-0.392883	
-0.392273	
-0.392273	
-0.392639	
-0.391052	
-0.39325	
-0.39386	
-0.393555	
-0.393127	
-0.393188	
-0.394043	
-0.393555	
-0.39386	
-0.39325	
-0.393127	
-0.392151	
-0.394226	
-0.393799	
-0.394104	
-0.394287	
-0.394531	
-0.39447	
-0.393982	
-0.394287	
-0.394592	
-0.394348	
-0.392822	
-0.394348	
-0.394226	
-0.395447	
-0.395569	
-0.394592	
-0.395081	
-0.394653	
-0.39447	
-0.393982	
-0.394226	
-0.393799	
-0.393738	
-0.39447	
-0.395447	
-0.394104	
-0.394348	
-0.394653	
-0.39386	
-0.39447	
-0.393311	
-0.394226	
-0.394531	
-0.394958	
-0.394348	
-0.395264	
-0.394897	
-0.395203	
-0.394226	
-0.394897	
-0.394897	
-0.393433	
-0.394592	
-0.394409	
-0.394531	
-0.394531	
-0.395874	
-0.394897	
-0.394897	
-0.393921	
-0.395447	
-0.394958	
-0.393494	
-0.394287	
-0.394348	
-0.394226	
-0.394226	
-0.395447	
-0.393921	
-0.393433	
-0.392822	
-0.394836	
-0.39325	
-0.392273	
-0.393127	
-0.393433	
-0.393494	
-0.393677	
-0.394104	
-0.39325	
-0.393127	
-0.392151	
-0.394043	
-0.392639	
-0.393066	
-0.392761	
-0.392578	
-0.392761	
-0.393005	
-0.393188	
-0.392578	
-0.392151	
-0.39093	
-0.392944	
-0.39209	
-0.391907	
-0.390625	
-0.390381	
-0.391113	
-0.391174	
-0.391235	
-0.390991	
-0.391296	
-0.390198	
-0.393311	
-0.392456	
-0.392639	
-0.392578	
-0.393127	
-0.393494	
-0.394104	
-0.394775	
-0.394897	
-0.394592	
-0.393311	
-0.395996	
-0.394714	
-0.395142	
-0.395203	
-0.394897	
-0.395386	
-0.395813	
-0.39624	
-0.39563	
-0.395386	
-0.393066	
-0.39563	
-0.395386	
-0.394165	
-0.393494	
-0.393616	
-0.394531	
-0.39563	
-0.395447	
-0.393555	
-0.394104	
-0.392212	
-0.394409	
-0.393738	
-0.39325	
-0.393127	
-0.39325	
-0.394165	
-0.394287	
-0.393982	
-0.393494	
-0.393066	
-0.391479	
-0.393433	
-0.393738	
-0.393127	
-0.391785	
-0.391296	
-0.393005	
-0.393188	
-0.392761	
-0.39209	
-0.391602	
-0.390015	
-0.39209	
-0.391724	
-0.391602	
-0.390503	
-0.389648	
-0.390442	
-0.391235	
-0.391174	
-0.390442	
-0.391113	
-0.390076	
-0.391174	
-0.390991	
-0.391418	
-0.391663	
-0.391541	
-0.392151	
-0.392212	
-0.391968	
-0.392395	
-0.393005	
-0.391663	
-0.392395	
-0.39209	
-0.391663	
-0.392334	
-0.391052	
-0.392517	
-0.392517	
-0.392456	
-0.391846	
-0.392639	
-0.391479	
-0.392395	
-0.393066	
-0.392029	
-0.391907	
-0.391968	
-0.393066	
-0.393188	
-0.393555	
-0.392578	
-0.393555	
-0.391846	
-0.391968	
-0.3927	
-0.391052	
-0.391602	
-0.392151	
-0.392212	
-0.392517	
-0.393372	
-0.392883	
-0.39325	
-0.392578	
-0.39325	
-0.39386	
-0.393127	
-0.39386	
-0.393494	
-0.393677	
-0.394165	
-0.394287	
-0.39325	
-0.393982	
-0.39325	
-0.393738	
-0.394592	
-0.393616	
-0.393555	
-0.393616	
-0.393555	
-0.393555	
-0.394165	
-0.393616	
-0.393555	
-0.392029	
-0.392822	
-0.392883	
-0.392517	
-0.3927	
-0.392395	
-0.392883	
-0.392517	
-0.393066	
-0.392883	
-0.392883	
-0.391357	
-0.3927	
-0.392883	
-0.392883	
-0.393127	
-0.392578	
-0.393616	
-0.394531	
-0.395142	
-0.394531	
-0.395386	
-0.393433	
-0.395508	
-0.395874	
-0.394531	
-0.394592	
-0.394348	
-0.394897	
-0.394592	
-0.394836	
-0.394165	
-0.394531	
-0.3927	
-0.394531	
-0.394775	
-0.394104	
-0.39502	
-0.394531	
-0.394836	
-0.395325	
-0.395386	
-0.394897	
-0.39502	
-0.39325	
-0.394226	
-0.394836	
-0.394592	
-0.39447	
-0.393921	
-0.393921	
-0.394836	
-0.395508	
-0.394653	
-0.39502	
-0.393066	
-0.394653	
-0.395081	
-0.394653	
-0.393738	
-0.394165	
-0.394348	
-0.394653	
-0.395752	
-0.394836	
-0.394714	
-0.392944	
-0.394958	
-0.394958	
-0.39447	
-0.393188	
-0.394165	
-0.394226	
-0.394043	
-0.395264	
-0.39447	
-0.394592	
-0.393066	
-0.394836	
-0.395264	
-0.394775	
-0.393738	
-0.394043	
-0.394653	
-0.395142	
-0.395386	
-0.394409	
-0.394287	
-0.393494	
-0.395874	
-0.394958	
-0.394226	
-0.394043	
-0.394043	
-0.394043	
-0.394348	
-0.395447	
-0.394348	
-0.394287	
-0.393127	
-0.394714	
-0.393799	
-0.3927	
-0.394104	
-0.393738	
-0.393616	
-0.393921	
-0.394348	
-0.393677	
-0.393982	
-0.392151	
-0.394226	
-0.394043	
-0.392883	
-0.393311	
-0.393188	
-0.39325	
-0.393799	
-0.394653	
-0.393127	
-0.393372	
-0.393127	
-0.394592	
-0.394226	
-0.392334	
-0.393799	
-0.394104	
-0.393982	
-0.393799	
-0.394531	
-0.39447	
-0.393738	
-0.393372	
-0.39447	
-0.394287	
-0.3927	
-0.393799	
-0.39386	
-0.393799	
-0.394104	
-0.394775	
-0.393677	
-0.393982	
-0.393005	
-0.393799	
-0.394287	
-0.392334	
-0.393616	
-0.393799	
-0.393616	
-0.393921	
-0.394775	
-0.394287	
-0.393799	
-0.393127	
-0.394226	
-0.394287	
-0.39325	
-0.393921	
-0.393433	
-0.393372	
-0.394043	
-0.394714	
-0.394348	
-0.394653	
-0.393799	
-0.394165	
-0.395203	
-0.394653	
-0.395081	
-0.39386	
-0.393982	
-0.395874	
-0.396179	
-0.395447	
-0.395508	
-0.395142	
-0.395508	
-0.396179	
-0.395752	
-0.39563	
-0.394775	
-0.395691	
-0.395874	
-0.397278	
-0.396912	
-0.396301	
-0.396667	
-0.396423	
-0.397156	
-0.396545	
-0.397034	
-0.395935	
-0.396423	
-0.398071	
-0.399048	
-0.397766	
-0.398193	
-0.398926	
-0.397827	
-0.398254	
-0.397888	
-0.397705	
-0.39563	
-0.395874	
-0.395874	
-0.395813	
-0.394714	
-0.394531	
-0.394409	
-0.393616	
-0.395325	
-0.394287	
-0.393555	
-0.393555	
-0.393433	
-0.393433	
-0.393799	
-0.393372	
-0.393738	
-0.393616	
-0.393372	
-0.393982	
-0.393188	
-0.393677	
-0.393677	
-0.393921	
-0.394287	
-0.395447	
-0.394714	
-0.39447	
-0.394348	
-0.394531	
-0.39502	
-0.394897	
-0.394897	
-0.394592	
-0.39502	
-0.394836	
-0.39563	
-0.394897	
-0.395325	
-0.394897	
-0.394348	
-0.395691	
-0.39624	
-0.396362	
-0.395569	
-0.396484	
-0.395081	
-0.396667	
-0.396912	
-0.397095	
-0.397095	
-0.396484	
-0.397949	
-0.397827	
-0.39917	
-0.398193	
-0.3974	
-0.397217	
-0.399597	
-0.400452	
-0.399658	
-0.39917	
-0.397949	
-0.399536	
-0.398743	
-0.39917	
-0.398132	
-0.397522	
-0.396912	
-0.397766	
-0.397583	
-0.397095	
-0.396423	
-0.396667	
-0.397156	
-0.39679	
-0.396301	
-0.396729	
-0.395508	
-0.396301	
-0.397522	
-0.397156	
-0.396606	
-0.39679	
-0.396179	
-0.396545	
-0.396912	
-0.395508	
-0.396545	
-0.395325	
-0.395813	
-0.397034	
-0.397278	
-0.396606	
-0.396179	
-0.39624	
-0.396667	
-0.397583	
-0.395691	
-0.397034	
-0.39624	
-0.396301	
-0.397827	
-0.398315	
-0.397034	
-0.396912	
-0.396423	
-0.396667	
-0.397095	
-0.395386	
-0.395386	
-0.395142	
-0.394165	
-0.395569	
-0.395996	
-0.395081	
-0.395142	
-0.39563	
-0.39563	
-0.396301	
-0.395996	
-0.395264	
-0.394897	
-0.394958	
-0.396118	
-0.396545	
-0.395569	
-0.39563	
-0.395752	
-0.395813	
-0.39679	
-0.396973	
-0.396545	
-0.395447	
-0.396545	
-0.396667	
-0.397156	
-0.396606	
-0.396729	
-0.396606	
-0.396606	
-0.397095	
-0.397034	
-0.396179	
-0.395752	
-0.396362	
-0.396301	
-0.396545	
-0.395569	
-0.394897	
-0.394165	
-0.394897	
-0.395264	
-0.394531	
-0.393616	
-0.393188	
-0.393677	
-0.394287	
-0.395142	
-0.394897	
-0.394714	
-0.394714	
-0.395081	
-0.395813	
-0.395142	
-0.393799	
-0.394348	
-0.394653	
-0.39502	
-0.395386	
-0.394165	
-0.39386	
-0.394043	
-0.394775	
-0.394836	
-0.394226	
-0.392944	
-0.393982	
-0.393982	
-0.394836	
-0.394775	
-0.394409	
-0.394897	
-0.394653	
-0.39502	
-0.395325	
-0.394348	
-0.394165	
-0.394104	
-0.394287	
-0.393494	
-0.39502	
-0.39447	
-0.394897	
-0.394165	
-0.395691	
-0.395752	
-0.394958	
-0.394958	
-0.394287	
-0.394348	
-0.394165	
-0.394775	
-0.394958	
-0.394653	
-0.394165	
-0.395752	
-0.39563	
-0.394836	
-0.395081	
-0.394348	
-0.394531	
-0.393921	
-0.394653	
-0.395081	
-0.393982	
-0.39447	
-0.394897	
-0.396057	
-0.395691	
-0.39624	
-0.394043	
-0.395447	
-0.395447	
-0.395752	
-0.395691	
-0.395325	
-0.395935	
-0.395386	
-0.394897	
-0.395386	
-0.395386	
-0.394592	
-0.39563	
-0.395447	
-0.395081	
-0.394958	
-0.395386	
-0.395386	
-0.393921	
-0.395935	
-0.395325	
-0.395264	
-0.394348	
-0.395386	
-0.395203	
-0.394714	
-0.395874	
-0.394897	
-0.395386	
-0.395142	
-0.396179	
-0.395447	
-0.395508	
-0.393494	
-0.39502	
-0.39502	
-0.393799	
-0.395691	
-0.394348	
-0.394531	
-0.394592	
-0.395874	
-0.394775	
-0.394653	
-0.394531	
-0.394958	
-0.395325	
-0.394287	
-0.395386	
-0.394226	
-0.394653	
-0.394592	
-0.396118	
-0.394775	
-0.395142	
-0.394348	
-0.395386	
-0.395447	
-0.394592	
-0.39563	
-0.394714	
-0.394226	
-0.394653	
-0.395203	
-0.394592	
-0.394592	
-0.394165	
-0.394348	
-0.395386	
-0.394409	
-0.394531	
-0.394165	
-0.39447	
-0.394226	
-0.394287	
-0.39386	
-0.393616	
-0.393616	
-0.393616	
-0.393677	
-0.39325	
-0.393555	
-0.392883	
-0.393677	
-0.393188	
-0.392212	
-0.392944	
-0.393677	
-0.392334	
-0.392456	
-0.393005	
-0.392944	
-0.393005	
-0.392395	
-0.392334	
-0.391907	
-0.391907	
-0.392517	
-0.391785	
-0.390564	
-0.39093	
-0.392029	
-0.391479	
-0.390991	
-0.390625	
-0.390381	
-0.390869	
-0.390015	
-0.390137	
-0.390137	
-0.390076	
-0.389893	
-0.392212	
-0.391663	
-0.391235	
-0.392944	
-0.393005	
-0.393494	
-0.393433	
-0.394592	
-0.394287	
-0.393738	
-0.393921	
-0.394775	
-0.394531	
-0.394287	
-0.39563	
-0.39447	
-0.394836	
-0.394531	
-0.395142	
-0.394714	
-0.394104	
-0.394958	
-0.395142	
-0.394897	
-0.393982	
-0.395264	
-0.39386	
-0.394104	
-0.393738	
-0.393799	
-0.39325	
-0.3927	
-0.393738	
-0.394165	
-0.393921	
-0.393311	
-0.393921	
-0.392212	
-0.393066	
-0.394104	
-0.393494	
-0.393005	
-0.392395	
-0.392029	
-0.393311	
-0.393066	
-0.391724	
-0.392334	
-0.390808	
-0.392273	
-0.392456	
-0.392517	
-0.391663	
-0.390442	
-0.389893	
-0.390991	
-0.391235	
-0.39032	
-0.390991	
-0.390015	
-0.39032	
-0.390564	
-0.390442	
-0.389587	
-0.389465	
-0.390442	
-0.391296	
-0.39209	
-0.391541	
-0.390747	
-0.391357	
-0.391296	
-0.392639	
-0.393066	
-0.392456	
-0.391418	
-0.390869	
-0.39209	
-0.3927	
-0.392029	
-0.391724	
-0.391479	
-0.392456	
-0.392883	
-0.392639	
-0.392212	
-0.391235	
-0.391174	
-0.393005	
-0.393005	
-0.39209	
-0.392151	
-0.392273	
-0.392761	
-0.393188	
-0.392456	
-0.391846	
-0.391113	
-0.391052	
-0.392944	
-0.392639	
-0.391602	
-0.392334	
-0.391907	
-0.392151	
-0.393188	
-0.392578	
-0.392822	
-0.392029	
-0.39209	
-0.393616	
-0.393616	
-0.393372	
-0.393433	
-0.393616	
-0.394104	
-0.394714	
-0.393616	
-0.393555	
-0.39325	
-0.392761	
-0.394043	
-0.393921	
-0.39386	
-0.393799	
-0.393005	
-0.393311	
-0.394104	
-0.392517	
-0.392883	
-0.393066	
-0.392029	
-0.393188	
-0.393799	
-0.393433	
-0.392578	
-0.391785	
-0.392639	
-0.393433	
-0.392273	
-0.393005	
-0.391785	
-0.391907	
-0.39325	
-0.393982	
-0.393311	
-0.393494	
-0.393066	
-0.393555	
-0.395386	
-0.394348	
-0.39502	
-0.394348	
-0.394897	
-0.395874	
-0.395691	
-0.395081	
-0.395508	
-0.394531	
-0.393921	
-0.395386	
-0.393616	
-0.394653	
-0.394653	
-0.393738	
-0.394409	
-0.396057	
-0.395752	
-0.395203	
-0.394897	
-0.393677	
-0.395508	
-0.394226	
-0.395081	
-0.395142	
-0.393982	
-0.395081	
-0.396301	
-0.395874	
-0.395142	
-0.395691	
-0.394592	
-0.396057	
-0.394775	
-0.39502	
-0.394714	
-0.393738	
-0.395203	
-0.396301	
-0.395691	
-0.395142	
-0.395996	
-0.394592	
-0.395874	
-0.39502	
-0.395142	
-0.395447	
-0.39447	
-0.395203	
-0.395447	
-0.395813	
-0.39502	
-0.395874	
-0.39447	
-0.395569	
-0.395996	
-0.395081	
-0.395447	
-0.39447	
-0.394897	
-0.395569	
-0.395813	
-0.39563	
-0.395996	
-0.39502	
-0.39624	
-0.395935	
-0.395203	
-0.395325	
-0.394165	
-0.395935	
-0.395813	
-0.396118	
-0.395996	
-0.397278	
-0.395203	
-0.395325	
-0.395508	
-0.394897	
-0.395325	
-0.393921	
-0.395325	
-0.395264	
-0.395203	
-0.395264	
-0.395386	
-0.393372	
-0.394775	
-0.396179	
-0.395691	
-0.394287	
-0.393494	
-0.395447	
-0.395325	
-0.395508	
-0.394897	
-0.39563	
-0.393677	
-0.395691	
-0.396423	
-0.395203	
-0.394592	
-0.393616	
-0.395264	
-0.394775	
-0.396118	
-0.395081	
-0.396118	
-0.394531	
-0.396301	
-0.396667	
-0.395996	
-0.395874	
-0.394348	
-0.396057	
-0.395508	
-0.396179	
-0.395569	
-0.396301	
-0.395264	
-0.395508	
-0.396057	
-0.395935	
-0.395691	
-0.394043	
-0.39563	
-0.39563	
-0.396179	
-0.395508	
-0.396606	
-0.395264	
-0.395691	
-0.395874	
-0.395874	
-0.395691	
-0.394409	
-0.394592	
-0.395874	
-0.396484	
-0.395508	
-0.396423	
-0.395447	
-0.395691	
-0.396484	
-0.39679	
-0.396301	
-0.395203	
-0.395996	
-0.397339	
-0.397705	
-0.397339	
-0.397522	
-0.396362	
-0.395935	
-0.398315	
-0.398071	
-0.397217	
-0.396606	
-0.397522	
-0.397583	
-0.398132	
-0.398376	
-0.397888	
-0.397461	
-0.397644	
-0.398743	
-0.398621	
-0.398315	
-0.397949	
-0.39801	
-0.398743	
-0.399475	
-0.399536	
-0.399231	
-0.399719	
-0.398987	
-0.40033	
-0.400452	
-0.400024	
-0.39917	
-0.399475	
-0.399597	
-0.399414	
-0.399658	
-0.398499	
-0.398254	
-0.39679	
-0.398193	
-0.39679	
-0.396362	
-0.396606	
-0.396179	
-0.395874	
-0.395996	
-0.396423	
-0.395569	
-0.39563	
-0.39386	
-0.396423	
-0.394653	
-0.39563	
-0.395386	
-0.395813	
-0.396118	
-0.396606	
-0.396912	
-0.396057	
-0.396423	
-0.394958	
-0.396851	
-0.396057	
-0.396912	
-0.39679	
-0.397095	
-0.397827	
-0.397705	
-0.398682	
-0.396973	
-0.397644	
-0.395752	
-0.397217	
-0.397095	
-0.398254	
-0.398071	
-0.397339	
-0.397156	
-0.397949	
-0.398926	
-0.39856	
-0.399292	
-0.397095	
-0.398987	
-0.399536	
-0.400208	
-0.399963	
-0.398376	
-0.398376	
-0.400391	
-0.401489	
-0.401062	
-0.402161	
-0.400269	
-0.401611	
-0.402161	
-0.401245	
-0.40094	
-0.401306	
-0.400757	
-0.401611	
-0.402161	
-0.399902	
-0.400269	
-0.399719	
-0.39978	
-0.399658	
-0.399109	
-0.399292	
-0.399109	
-0.397888	
-0.398682	
-0.399841	
-0.398743	
-0.399292	
-0.398743	
-0.398865	
-0.400024	
-0.398926	
-0.398926	
-0.398193	
-0.3974	
-0.398987	
-0.400146	
-0.399658	
-0.398987	
-0.398254	
-0.398682	
-0.39978	
-0.398682	
-0.398193	
-0.398682	
-0.397949	
-0.399475	
-0.400208	
-0.399414	
-0.399414	
-0.400024	
-0.398621	
-0.399658	
-0.399109	
-0.399109	
-0.398315	
-0.396423	
-0.397888	
-0.398376	
-0.398315	
-0.398254	
-0.398376	
-0.396606	
-0.398132	
-0.398926	
-0.397583	
-0.3974	
-0.396606	
-0.397461	
-0.397827	
-0.398193	
-0.397583	
-0.398193	
-0.39679	
-0.397705	
-0.399292	
-0.398071	
-0.39856	
-0.397949	
-0.398743	
-0.398743	
-0.399292	
-0.398926	
-0.399475	
-0.398254	
-0.398865	
-0.399719	
-0.399109	
-0.398926	
-0.398499	
-0.39856	
-0.398926	
-0.399292	
-0.398682	
-0.399231	
-0.396545	
-0.397705	
-0.39801	
-0.397034	
-0.396729	
-0.396179	
-0.396423	
-0.39679	
-0.397827	
-0.396912	
-0.396606	
-0.395935	
-0.397644	
-0.397461	
-0.397156	
-0.397644	
-0.39679	
-0.395569	
-0.397278	
-0.398499	
-0.396118	
-0.397095	
-0.395386	
-0.396729	
-0.396851	
-0.396851	
-0.396606	
-0.396606	
-0.394653	
-0.39679	
-0.398743	
-0.396851	
-0.39679	
-0.395569	
-0.396667	
-0.397156	
-0.397156	
-0.396484	
-0.39624	
-0.395203	
-0.396973	
-0.397827	
-0.396423	
-0.396729	
-0.396667	
-0.397095	
	
