E:\DOCUMENTS AND SETTINGS\JPOTAS\MEUS DOCUMENTOS\UFRJ\RSCI-BM 12 WK SERIES\070723-RSCI-BM-06\RSCI-BM-06-LEMG\070723-RSCI-BM-LEMG-0011.ACQ
0.025000 msec/sample
1 channel
Analog input
Volts
CH1	
2000	
-0.396729	
-0.397461	
-0.396851	
-0.397217	
-0.397705	
-0.397095	
-0.396667	
-0.39801	
-0.397949	
-0.397705	
-0.398071	
-0.398193	
-0.398804	
-0.398804	
-0.398438	
-0.398743	
-0.398682	
-0.39856	
-0.39978	
-0.399109	
-0.399109	
-0.39917	
-0.399475	
-0.400208	
-0.400269	
-0.400146	
-0.399719	
-0.399414	
-0.399475	
-0.400208	
-0.399719	
-0.399841	
-0.399719	
-0.399963	
-0.400513	
-0.399841	
-0.39917	
-0.399475	
-0.39917	
-0.399109	
-0.399048	
-0.39856	
-0.398743	
-0.398682	
-0.398865	
-0.399719	
-0.39856	
-0.39856	
-0.398743	
-0.398071	
-0.397766	
-0.3974	
-0.396545	
-0.397705	
-0.397034	
-0.397461	
-0.398071	
-0.397095	
-0.397278	
-0.396912	
-0.396851	
-0.397583	
-0.397583	
-0.395874	
-0.397217	
-0.396545	
-0.396606	
-0.396912	
-0.395935	
-0.39563	
-0.396362	
-0.395813	
-0.395935	
-0.395935	
-0.393494	
-0.395874	
-0.394897	
-0.394836	
-0.395691	
-0.395325	
-0.395264	
-0.394836	
-0.395752	
-0.395325	
-0.394897	
-0.392456	
-0.394775	
-0.395325	
-0.394165	
-0.395142	
-0.395569	
-0.395203	
-0.395142	
-0.395508	
-0.395325	
-0.394836	
-0.393066	
-0.395508	
-0.395508	
-0.395081	
-0.395447	
-0.396118	
-0.395508	
-0.395386	
-0.395813	
-0.395325	
-0.395203	
-0.393127	
-0.395691	
-0.39563	
-0.395081	
-0.396545	
-0.397034	
-0.39679	
-0.396973	
-0.397278	
-0.396362	
-0.39679	
-0.395386	
-0.397766	
-0.397339	
-0.397827	
-0.398071	
-0.397949	
-0.397583	
-0.397888	
-0.397827	
-0.39801	
-0.398315	
-0.395874	
-0.397827	
-0.397766	
-0.398254	
-0.398132	
-0.398621	
-0.398438	
-0.39856	
-0.398132	
-0.397827	
-0.398315	
-0.396484	
-0.39917	
-0.399353	
-0.399231	
-0.399292	
-0.39978	
-0.400391	
-0.399719	
-0.399353	
-0.398682	
-0.400391	
-0.398315	
-0.400635	
-0.399902	
-0.400391	
-0.400269	
-0.401428	
-0.400818	
-0.400696	
-0.401428	
-0.399719	
-0.400635	
-0.399231	
-0.399597	
-0.399658	
-0.399841	
-0.400024	
-0.400879	
-0.400757	
-0.400391	
-0.400879	
-0.39978	
-0.400452	
-0.398071	
-0.399475	
-0.400085	
-0.39978	
-0.399475	
-0.399963	
-0.400269	
-0.399231	
-0.39978	
-0.39856	
-0.398804	
-0.396912	
-0.398071	
-0.398376	
-0.397461	
-0.398254	
-0.399231	
-0.399048	
-0.39801	
-0.399231	
-0.398376	
-0.398499	
-0.397888	
-0.398132	
-0.394592	
-0.393616	
-0.395203	
-0.396057	
-0.395691	
-0.395325	
-0.399902	
-0.398804	
-0.398315	
-0.397644	
-0.398132	
-0.397034	
-0.395996	
-0.395996	
-0.396667	
-0.397034	
-0.396362	
-0.396545	
-0.394836	
-0.395508	
-0.394348	
-0.394104	
-0.394165	
-0.394531	
-0.39502	
-0.394958	
-0.395752	
-0.395447	
-0.39563	
-0.394409	
-0.394836	
-0.39447	
-0.394775	
-0.39502	
-0.394592	
-0.395508	
-0.39563	
-0.395447	
-0.395142	
-0.395813	
-0.394958	
-0.395569	
-0.394348	
-0.394836	
-0.39563	
-0.395081	
-0.395874	
-0.397644	
-0.398438	
-0.399536	
-0.402161	
-0.404724	
-0.407227	
-0.411438	
-0.415405	
-0.41925	
-0.422974	
-0.428589	
-0.43457	
-0.439575	
-0.44397	
-0.449341	
-0.453613	
-0.459961	
-0.467163	
-0.474854	
-0.483154	
-0.494812	
-0.506775	
-0.520325	
-0.533264	
-0.5448	
-0.55072	
-0.558289	
-0.566895	
-0.572815	
-0.579346	
-0.58374	
-0.59082	
-0.59436	
-0.595337	
-0.596008	
-0.594482	
-0.59259	
-0.59137	
-0.589661	
-0.586792	
-0.585144	
-0.582825	
-0.582031	
-0.580627	
-0.579895	
-0.578796	
-0.577637	
-0.576538	
-0.575623	
-0.575012	
-0.573181	
-0.571411	
-0.569336	
-0.568787	
-0.568481	
-0.566467	
-0.564941	
-0.562317	
-0.559509	
-0.557617	
-0.555908	
-0.55365	
-0.550781	
-0.545959	
-0.543335	
-0.538696	
-0.532715	
-0.526917	
-0.520081	
-0.513184	
-0.507935	
-0.502563	
-0.497986	
-0.492859	
-0.487427	
-0.485107	
-0.482666	
-0.479492	
-0.477112	
-0.474182	
-0.471802	
-0.469971	
-0.468262	
-0.466553	
-0.465759	
-0.464355	
-0.463074	
-0.462585	
-0.462708	
-0.463013	
-0.462524	
-0.462463	
-0.462708	
-0.463196	
-0.464844	
-0.465149	
-0.464783	
-0.465576	
-0.465515	
-0.466003	
-0.463989	
-0.462158	
-0.460266	
-0.45813	
-0.454773	
-0.453003	
-0.450012	
-0.44696	
-0.443481	
-0.439697	
-0.435486	
-0.428955	
-0.423096	
-0.416809	
-0.410156	
-0.402527	
-0.39502	
-0.387146	
-0.380615	
-0.373718	
-0.368286	
-0.363403	
-0.359131	
-0.356384	
-0.354065	
-0.353394	
-0.354187	
-0.35553	
-0.356995	
-0.359314	
-0.36145	
-0.363525	
-0.367126	
-0.368774	
-0.369873	
-0.371948	
-0.376648	
-0.377808	
-0.381897	
-0.384705	
-0.389282	
-0.393677	
-0.398071	
-0.402344	
-0.405579	
-0.409424	
-0.412659	
-0.415527	
-0.418274	
-0.420654	
-0.422058	
-0.424988	
-0.427612	
-0.429321	
-0.432312	
-0.433533	
-0.435852	
-0.438354	
-0.439636	
-0.440979	
-0.441711	
-0.442383	
-0.44342	
-0.445007	
-0.444763	
-0.445251	
-0.445313	
-0.444153	
-0.442871	
-0.442993	
-0.4422	
-0.440369	
-0.438354	
-0.436646	
-0.43573	
-0.432983	
-0.430237	
-0.42749	
-0.424866	
-0.422363	
-0.419983	
-0.418091	
-0.415588	
-0.413147	
-0.410156	
-0.408447	
-0.405029	
-0.40155	
-0.396606	
-0.391418	
-0.386108	
-0.380371	
-0.37323	
-0.365967	
-0.358398	
-0.350281	
-0.343201	
-0.333862	
-0.325867	
-0.316589	
-0.307861	
-0.299988	
-0.293152	
-0.287231	
-0.280945	
-0.276428	
-0.271973	
-0.268799	
-0.266663	
-0.26416	
-0.262329	
-0.261719	
-0.262268	
-0.261292	
-0.262817	
-0.263062	
-0.264771	
-0.266296	
-0.26825	
-0.27002	
-0.270508	
-0.272278	
-0.273804	
-0.276184	
-0.278259	
-0.280212	
-0.283813	
-0.287292	
-0.289734	
-0.293335	
-0.295288	
-0.298279	
-0.301575	
-0.304871	
-0.30719	
-0.310486	
-0.3125	
-0.314941	
-0.318604	
-0.319702	
-0.321045	
-0.323242	
-0.324036	
-0.326294	
-0.326782	
-0.328918	
-0.330872	
-0.332336	
-0.33374	
-0.335144	
-0.337097	
-0.336914	
-0.33844	
-0.337158	
-0.340149	
-0.34137	
-0.341919	
-0.34259	
-0.344177	
-0.345886	
-0.347717	
-0.347778	
-0.348877	
-0.351074	
-0.353333	
-0.353699	
-0.356812	
-0.357117	
-0.359436	
-0.361328	
-0.362366	
-0.36438	
-0.364075	
-0.365601	
-0.365723	
-0.367432	
-0.368896	
-0.369812	
-0.369934	
-0.370911	
-0.372498	
-0.37262	
-0.372498	
-0.372681	
-0.372925	
-0.374329	
-0.374023	
-0.374756	
-0.374146	
-0.375305	
-0.376038	
-0.376343	
-0.37793	
-0.376709	
-0.376465	
-0.37677	
-0.37793	
-0.377991	
-0.378479	
-0.379761	
-0.380737	
-0.381042	
-0.38092	
-0.382385	
-0.381287	
-0.381348	
-0.381958	
-0.383057	
-0.38385	
-0.384155	
-0.38446	
-0.385193	
-0.385254	
-0.385681	
-0.385864	
-0.385132	
-0.384888	
-0.384827	
-0.386292	
-0.386108	
-0.386108	
-0.386292	
-0.38739	
-0.386902	
-0.387878	
-0.386597	
-0.386475	
-0.386597	
-0.387268	
-0.387207	
-0.386719	
-0.386963	
-0.387329	
-0.387207	
-0.387207	
-0.386475	
-0.386108	
-0.384888	
-0.38562	
-0.386047	
-0.385376	
-0.384277	
-0.385376	
-0.385925	
-0.386597	
-0.38623	
-0.384644	
-0.384277	
-0.385193	
-0.384521	
-0.384094	
-0.384155	
-0.385071	
-0.385559	
-0.385254	
-0.385986	
-0.384216	
-0.384216	
-0.383179	
-0.383545	
-0.383911	
-0.383728	
-0.384094	
-0.384888	
-0.383972	
-0.384949	
-0.385071	
-0.384827	
-0.384705	
-0.384827	
-0.384705	
-0.384949	
-0.384033	
-0.385071	
-0.386108	
-0.386169	
-0.386475	
-0.384827	
-0.385803	
-0.386047	
-0.38623	
-0.386597	
-0.386902	
-0.387268	
-0.387878	
-0.38855	
-0.38916	
-0.387146	
-0.386902	
-0.388	
-0.387939	
-0.387512	
-0.388611	
-0.387451	
-0.388367	
-0.388977	
-0.388977	
-0.389709	
-0.38855	
-0.388672	
-0.389343	
-0.389771	
-0.389648	
-0.390015	
-0.390259	
-0.391296	
-0.391052	
-0.39093	
-0.390808	
-0.390625	
-0.391052	
-0.391113	
-0.391846	
-0.391357	
-0.390259	
-0.391479	
-0.39209	
-0.391296	
-0.391663	
-0.390259	
-0.391296	
-0.390564	
-0.390381	
-0.390686	
-0.390442	
-0.390381	
-0.391174	
-0.391296	
-0.391174	
-0.393005	
-0.390747	
-0.391479	
-0.391357	
-0.39209	
-0.392273	
-0.392212	
-0.392578	
-0.393799	
-0.392883	
-0.392761	
-0.392822	
-0.393066	
-0.393372	
-0.392822	
-0.393372	
-0.393982	
-0.393616	
-0.393982	
-0.394287	
-0.394104	
-0.394592	
-0.39386	
-0.394043	
-0.394409	
-0.395081	
-0.394409	
-0.394653	
-0.393738	
-0.395691	
-0.395447	
-0.394836	
-0.395752	
-0.393738	
-0.394226	
-0.393921	
-0.393921	
-0.393982	
-0.393677	
-0.394043	
-0.39386	
-0.393738	
-0.393616	
-0.393127	
-0.393921	
-0.393494	
-0.393372	
-0.393372	
-0.393616	
-0.392578	
-0.393616	
-0.393921	
-0.393311	
-0.393921	
-0.392761	
-0.393127	
-0.393066	
-0.393372	
-0.393372	
-0.392761	
-0.392517	
-0.393372	
-0.392334	
-0.3927	
-0.392578	
-0.392273	
-0.392273	
-0.390747	
-0.392761	
-0.392883	
-0.392212	
-0.392456	
-0.393677	
-0.392395	
-0.391785	
-0.391052	
-0.391724	
-0.391602	
-0.391541	
-0.391724	
-0.392151	
-0.391418	
-0.392944	
-0.392151	
-0.392151	
-0.393372	
-0.391113	
-0.392212	
-0.391968	
-0.393066	
-0.392395	
-0.392273	
-0.392822	
-0.393127	
-0.392151	
-0.392273	
-0.392212	
-0.392395	
-0.392456	
-0.39209	
-0.392456	
-0.392639	
-0.3927	
-0.393433	
-0.394287	
-0.393372	
-0.394104	
-0.392578	
-0.394348	
-0.394836	
-0.394958	
-0.394531	
-0.394653	
-0.394775	
-0.395264	
-0.395935	
-0.395569	
-0.396301	
-0.39502	
-0.395813	
-0.395447	
-0.396362	
-0.395508	
-0.395386	
-0.394714	
-0.396362	
-0.396545	
-0.396118	
-0.396851	
-0.395203	
-0.395752	
-0.395508	
-0.396729	
-0.396484	
-0.396545	
-0.395691	
-0.397278	
-0.397461	
-0.396973	
-0.397461	
-0.396667	
-0.397949	
-0.397156	
-0.397644	
-0.397644	
-0.397644	
-0.397827	
-0.398315	
-0.398865	
-0.39856	
-0.399109	
-0.397278	
-0.39801	
-0.398315	
-0.398499	
-0.397705	
-0.397766	
-0.398682	
-0.398926	
-0.3974	
-0.398499	
-0.398071	
-0.397278	
-0.397888	
-0.398071	
-0.397644	
-0.398254	
-0.397339	
-0.397461	
-0.397766	
-0.397339	
-0.398071	
-0.395691	
-0.39624	
-0.395813	
-0.396912	
-0.396667	
-0.396606	
-0.396179	
-0.396545	
-0.396851	
-0.39679	
-0.396545	
-0.395935	
-0.395874	
-0.395752	
-0.395874	
-0.396484	
-0.396057	
-0.396301	
-0.396851	
-0.396729	
-0.397217	
-0.397095	
-0.395813	
-0.396301	
-0.396545	
-0.396667	
-0.396118	
-0.396057	
-0.395874	
-0.396606	
-0.395447	
-0.395447	
-0.39447	
-0.393677	
-0.393311	
-0.393372	
-0.393372	
-0.393555	
-0.393372	
-0.393677	
-0.393555	
-0.392883	
-0.392761	
-0.392029	
-0.392517	
-0.391479	
-0.392517	
-0.393005	
-0.39325	
-0.392944	
-0.393372	
-0.393799	
-0.393188	
-0.393372	
-0.393127	
-0.392578	
-0.392883	
-0.394409	
-0.393372	
-0.393127	
-0.392273	
-0.393311	
-0.394043	
-0.394104	
-0.393555	
-0.393433	
-0.393311	
-0.394348	
-0.395081	
-0.394287	
-0.394165	
-0.394226	
-0.394958	
-0.395752	
-0.395874	
-0.395386	
-0.394226	
-0.395325	
-0.395569	
-0.395752	
-0.395813	
-0.39563	
-0.395264	
-0.397278	
-0.39624	
-0.396851	
-0.396484	
-0.395996	
-0.396912	
-0.396606	
-0.397522	
-0.398071	
-0.397339	
-0.397766	
-0.399841	
-0.39801	
-0.398132	
-0.397583	
-0.397827	
-0.396301	
-0.397217	
-0.398071	
-0.398743	
-0.39801	
-0.398438	
-0.399963	
-0.39856	
-0.398132	
-0.397583	
-0.398071	
-0.398193	
-0.398804	
-0.398132	
-0.397949	
-0.398132	
-0.398376	
-0.398926	
-0.39856	
-0.398499	
-0.396545	
-0.397766	
-0.398315	
-0.397827	
-0.397888	
-0.398315	
-0.397583	
-0.397827	
-0.398315	
-0.398621	
-0.397705	
-0.395264	
-0.397644	
-0.397522	
-0.397705	
-0.396912	
-0.396729	
-0.396484	
-0.396851	
-0.397034	
-0.397278	
-0.395996	
-0.393677	
-0.395203	
-0.395508	
-0.396484	
-0.395691	
-0.39502	
-0.395508	
-0.395935	
-0.395508	
-0.395752	
-0.39624	
-0.394775	
-0.394104	
-0.395325	
-0.396667	
-0.395386	
-0.39563	
-0.396057	
-0.396057	
-0.395264	
-0.394897	
-0.395447	
-0.394287	
-0.393921	
-0.393372	
-0.394592	
-0.394348	
-0.394165	
-0.393555	
-0.393677	
-0.393677	
-0.393738	
-0.39325	
-0.392883	
-0.392578	
-0.391785	
-0.39386	
-0.392334	
-0.392761	
-0.392273	
-0.393311	
-0.393066	
-0.392761	
-0.39209	
-0.391724	
-0.392273	
-0.392029	
-0.393066	
-0.39209	
-0.392212	
-0.391663	
-0.393738	
-0.393066	
-0.3927	
-0.392517	
-0.392151	
-0.393005	
-0.393433	
-0.393494	
-0.394043	
-0.393616	
-0.39325	
-0.395935	
-0.394226	
-0.393921	
-0.393188	
-0.394043	
-0.39447	
-0.394775	
-0.395081	
-0.395081	
-0.394287	
-0.394775	
-0.397034	
-0.394836	
-0.395813	
-0.394287	
-0.395081	
-0.39502	
-0.395996	
-0.396057	
-0.396667	
-0.396667	
-0.396973	
-0.398926	
-0.396301	
-0.396973	
-0.394653	
-0.396301	
-0.396545	
-0.397461	
-0.396423	
-0.397095	
-0.396545	
-0.397034	
-0.399353	
-0.396973	
-0.397339	
-0.394592	
-0.396973	
-0.396851	
-0.398132	
-0.397095	
-0.397034	
-0.396729	
-0.397034	
-0.39801	
-0.39679	
-0.396667	
-0.393066	
-0.396667	
-0.396179	
-0.397461	
-0.396057	
-0.396729	
-0.396301	
-0.397278	
-0.397095	
-0.397278	
-0.396301	
-0.394958	
-0.396545	
-0.396729	
-0.396973	
-0.396301	
-0.395752	
-0.394714	
-0.395813	
-0.395081	
-0.395203	
-0.394348	
-0.394592	
-0.394226	
-0.394226	
-0.394775	
-0.394653	
-0.394958	
-0.393616	
-0.395752	
-0.394531	
-0.394775	
-0.393494	
-0.394165	
-0.394348	
-0.395081	
-0.393982	
-0.393982	
-0.39447	
-0.394714	
-0.396179	
-0.394165	
-0.394348	
-0.392212	
-0.393127	
-0.392639	
-0.393555	
-0.392944	
-0.392456	
-0.3927	
-0.3927	
-0.394287	
-0.391846	
-0.392273	
-0.390381	
-0.391846	
-0.391052	
-0.392151	
-0.391907	
-0.391174	
-0.390869	
-0.391602	
-0.393799	
-0.392029	
-0.391602	
-0.389771	
-0.392212	
-0.390747	
-0.392029	
-0.391602	
-0.392212	
-0.391785	
-0.391785	
-0.393494	
-0.391846	
-0.391785	
-0.390076	
-0.391785	
-0.391052	
-0.39209	
-0.392273	
-0.3927	
-0.392578	
-0.393066	
-0.394104	
-0.393066	
-0.3927	
-0.390808	
-0.392639	
-0.392883	
-0.393799	
-0.39386	
-0.393799	
-0.393738	
-0.393616	
-0.394348	
-0.39447	
-0.393494	
-0.391785	
-0.393799	
-0.394409	
-0.394775	
-0.39386	
-0.394592	
-0.393799	
-0.394165	
-0.393982	
-0.394531	
-0.393188	
-0.391907	
-0.394348	
-0.394714	
-0.395752	
-0.394775	
-0.394287	
-0.394958	
-0.396545	
-0.395508	
-0.396545	
-0.395508	
-0.395691	
-0.396484	
-0.396118	
-0.396851	
-0.396912	
-0.39679	
-0.396362	
-0.398438	
-0.396973	
-0.397278	
-0.395813	
-0.395874	
-0.395996	
-0.396179	
-0.396301	
-0.396423	
-0.396545	
-0.395935	
-0.398376	
-0.396362	
-0.397034	
-0.395569	
-0.395813	
-0.395935	
-0.396851	
-0.396484	
-0.396118	
-0.395569	
-0.395264	
-0.397461	
-0.395386	
-0.395569	
-0.39386	
-0.394775	
-0.393677	
-0.39502	
-0.394531	
-0.39447	
-0.394348	
-0.39447	
-0.396118	
-0.393799	
-0.394287	
-0.392029	
-0.39386	
-0.392944	
-0.394165	
-0.393311	
-0.393677	
-0.39325	
-0.393555	
-0.395203	
-0.39325	
-0.392456	
-0.390137	
-0.392029	
-0.390686	
-0.393005	
-0.391663	
-0.391968	
-0.392212	
-0.392517	
-0.393494	
-0.391602	
-0.391846	
-0.389587	
-0.391541	
-0.390869	
-0.392151	
-0.391174	
-0.390991	
-0.390503	
-0.391418	
-0.391968	
-0.390564	
-0.390747	
-0.389526	
-0.391602	
-0.389832	
-0.391479	
-0.391357	
-0.391052	
-0.390198	
-0.391846	
-0.392395	
-0.391663	
-0.391418	
-0.390015	
-0.390991	
-0.39093	
-0.392029	
-0.391296	
-0.391479	
-0.391235	
-0.392822	
-0.392334	
-0.392517	
-0.392029	
-0.391296	
-0.393127	
-0.392151	
-0.393433	
-0.392639	
-0.392944	
-0.39325	
-0.395325	
-0.393616	
-0.394226	
-0.393494	
-0.393738	
-0.39447	
-0.39325	
-0.394043	
-0.394226	
-0.394043	
-0.39447	
-0.395569	
-0.393799	
-0.394043	
-0.393188	
-0.394165	
-0.393982	
-0.393066	
-0.394409	
-0.395081	
-0.394714	
-0.394897	
-0.396606	
-0.39502	
-0.395447	
-0.393677	
-0.395264	
-0.395874	
-0.395447	
-0.39624	
-0.396118	
-0.396179	
-0.39679	
-0.397461	
-0.39679	
-0.396667	
-0.394775	
-0.396851	
-0.39679	
-0.397461	
-0.397583	
-0.397095	
-0.397217	
-0.397644	
-0.397522	
-0.396606	
-0.39679	
-0.396484	
-0.396851	
-0.396851	
-0.397949	
-0.397034	
-0.397217	
-0.396423	
-0.396545	
-0.397034	
-0.396484	
-0.395935	
-0.395325	
-0.395935	
-0.396179	
-0.396362	
-0.395203	
-0.395325	
-0.39447	
-0.396057	
-0.395691	
-0.395081	
-0.394958	
-0.394653	
-0.395203	
-0.394409	
-0.394958	
-0.394775	
-0.394775	
-0.39386	
-0.396057	
-0.395325	
-0.393799	
-0.394226	
-0.393738	
-0.393616	
-0.393372	
-0.393494	
-0.394348	
-0.393738	
-0.392761	
-0.394714	
-0.39386	
-0.393127	
-0.393311	
-0.391663	
-0.392822	
-0.393066	
-0.393066	
-0.392761	
-0.392944	
-0.392639	
-0.393311	
-0.392517	
-0.392395	
-0.392029	
-0.391663	
-0.392334	
-0.392395	
-0.393005	
-0.392517	
-0.391968	
-0.393311	
-0.395142	
-0.393311	
-0.39325	
-0.392578	
-0.392639	
-0.392944	
-0.392944	
-0.393494	
-0.392944	
-0.392822	
-0.392822	
-0.39502	
-0.392883	
-0.392822	
-0.3927	
-0.39325	
-0.393921	
-0.394714	
-0.394348	
-0.394531	
-0.394226	
-0.394714	
-0.395996	
-0.395264	
-0.395447	
-0.393799	
-0.395325	
-0.395386	
-0.395386	
-0.395081	
-0.396118	
-0.395386	
-0.395386	
-0.397217	
-0.395447	
-0.395508	
-0.394531	
-0.395752	
-0.395569	
-0.395569	
-0.395996	
-0.395996	
-0.395386	
-0.396301	
-0.397705	
-0.396484	
-0.39624	
-0.394531	
-0.396545	
-0.397278	
-0.396667	
-0.3974	
-0.397278	
-0.39679	
-0.397827	
-0.39801	
-0.397522	
-0.397705	
-0.396118	
-0.398193	
-0.398865	
-0.3974	
-0.398071	
-0.397888	
-0.397217	
-0.398682	
-0.398376	
-0.397705	
-0.3974	
-0.396484	
-0.397888	
-0.3974	
-0.396484	
-0.398315	
-0.397522	
-0.397278	
-0.398682	
-0.398132	
-0.397522	
-0.397034	
-0.396545	
-0.397156	
-0.397095	
-0.396484	
-0.396667	
-0.396484	
-0.395508	
-0.397217	
-0.396912	
-0.396118	
-0.395752	
-0.395447	
-0.396179	
-0.396362	
-0.395081	
-0.395813	
-0.395813	
-0.395813	
-0.396973	
-0.397156	
-0.396118	
-0.395447	
-0.395264	
-0.395691	
-0.396301	
-0.395386	
-0.396362	
-0.396301	
-0.396057	
-0.397339	
-0.396362	
-0.39502	
-0.394226	
-0.394714	
-0.394226	
-0.394287	
-0.393188	
-0.393677	
-0.393494	
-0.392822	
-0.395203	
-0.393494	
-0.392578	
-0.392395	
-0.391968	
-0.393188	
-0.393066	
-0.391052	
-0.393005	
-0.393127	
-0.3927	
-0.394409	
-0.393555	
-0.393066	
-0.391541	
-0.392761	
-0.393311	
-0.392761	
-0.39209	
-0.392578	
-0.393311	
-0.393127	
-0.394226	
-0.393127	
-0.393311	
-0.393372	
-0.393372	
-0.393616	
-0.39386	
-0.393433	
-0.394653	
-0.394226	
-0.393921	
-0.395508	
-0.394592	
-0.394653	
-0.394775	
-0.394592	
-0.395447	
-0.395874	
-0.394287	
-0.395813	
-0.395996	
-0.396667	
-0.396912	
-0.395935	
-0.395691	
-0.395691	
-0.395813	
-0.396423	
-0.397095	
-0.395935	
-0.3974	
-0.398254	
-0.398254	
-0.398499	
-0.397461	
-0.397461	
-0.396912	
-0.397278	
-0.397705	
-0.398071	
-0.397278	
-0.397278	
-0.397888	
-0.398621	
-0.398682	
-0.398193	
-0.396851	
-0.397827	
-0.398865	
-0.397949	
-0.398315	
-0.398254	
-0.398621	
-0.39801	
-0.399109	
-0.399109	
-0.398193	
-0.397095	
-0.397278	
-0.398132	
-0.397583	
-0.397888	
-0.397461	
-0.398438	
-0.39856	
-0.398438	
-0.399048	
-0.398071	
-0.396973	
-0.396545	
-0.397827	
-0.398071	
-0.397278	
-0.397583	
-0.397095	
-0.396606	
-0.396667	
-0.397644	
-0.396362	
-0.395996	
-0.395325	
-0.395813	
-0.395996	
-0.395996	
-0.395752	
-0.395996	
-0.395264	
-0.395691	
-0.39679	
-0.395325	
-0.395264	
-0.39502	
-0.395508	
-0.395935	
-0.395874	
-0.396118	
-0.396118	
-0.395996	
-0.395691	
-0.397034	
-0.395325	
-0.395325	
-0.394531	
-0.394226	
-0.394592	
-0.394714	
-0.394104	
-0.394165	
-0.394226	
-0.394348	
-0.394531	
-0.393311	
-0.393188	
-0.392578	
-0.392822	
-0.393311	
-0.393799	
-0.393127	
-0.392944	
-0.393311	
-0.392761	
-0.393616	
-0.392456	
-0.392395	
-0.391785	
-0.392639	
-0.392639	
-0.393188	
-0.393066	
-0.392822	
-0.393066	
-0.393005	
-0.394104	
-0.392212	
-0.392456	
-0.392273	
-0.393372	
-0.393066	
-0.394287	
-0.393677	
-0.393555	
-0.394226	
-0.394287	
-0.395203	
-0.393799	
-0.394348	
-0.393555	
-0.394348	
-0.394531	
-0.395203	
-0.394775	
-0.394836	
-0.394653	
-0.395142	
-0.395691	
-0.394531	
-0.395447	
-0.395081	
-0.395386	
-0.395203	
-0.39624	
-0.396545	
-0.396362	
-0.395996	
-0.396973	
-0.397949	
-0.397339	
-0.397644	
-0.396301	
-0.396362	
-0.396973	
-0.396606	
-0.396851	
-0.397156	
-0.396973	
-0.397217	
-0.397461	
-0.397339	
-0.3974	
-0.396851	
-0.397217	
-0.397888	
-0.397888	
-0.398315	
-0.397766	
-0.397461	
-0.398254	
-0.398071	
-0.397034	
-0.396667	
-0.396362	
-0.3974	
-0.396545	
-0.396606	
-0.3974	
-0.397827	
-0.395935	
-0.397888	
-0.397034	
-0.39679	
-0.39679	
-0.396606	
-0.396912	
-0.396912	
-0.39679	
-0.397034	
-0.397156	
-0.395203	
-0.396301	
-0.394958	
-0.395569	
-0.395569	
-0.394104	
-0.394592	
-0.395142	
-0.39386	
-0.395203	
-0.395386	
-0.393677	
-0.395081	
-0.394104	
-0.395508	
-0.394653	
-0.393738	
-0.394836	
-0.39502	
-0.394714	
-0.394897	
-0.394958	
-0.394348	
-0.396179	
-0.394592	
-0.394043	
-0.394226	
-0.393799	
-0.393677	
-0.393799	
-0.393738	
-0.393738	
-0.393066	
-0.391968	
-0.393982	
-0.393188	
-0.392578	
-0.392151	
-0.392822	
-0.392883	
-0.392944	
-0.392334	
-0.392639	
-0.392395	
-0.391235	
-0.3927	
-0.392273	
-0.392639	
-0.39209	
-0.392273	
-0.392883	
-0.392578	
-0.392334	
-0.392761	
-0.392395	
-0.392456	
-0.393555	
-0.392456	
-0.392517	
-0.392456	
-0.392944	
-0.392578	
-0.392944	
-0.392944	
-0.393433	
-0.393555	
-0.393188	
-0.394653	
-0.393127	
-0.39386	
-0.393555	
-0.393982	
-0.394043	
-0.393799	
-0.394043	
-0.395325	
-0.394653	
-0.394714	
-0.395813	
-0.394836	
-0.394531	
-0.393799	
-0.394714	
-0.395264	
-0.395569	
-0.394531	
-0.394592	
-0.395325	
-0.395813	
-0.395691	
-0.394897	
-0.394714	
-0.394043	
-0.39447	
-0.394958	
-0.395203	
-0.395935	
-0.39624	
-0.395813	
-0.396851	
-0.397217	
-0.396729	
-0.396667	
-0.396179	
-0.397095	
-0.397278	
-0.397522	
-0.397888	
-0.398865	
-0.397583	
-0.398621	
-0.398254	
-0.397888	
-0.398376	
-0.396729	
-0.396912	
-0.397766	
-0.398254	
-0.3974	
-0.398621	
-0.397278	
-0.397888	
-0.397644	
-0.397705	
-0.397888	
-0.396301	
-0.397644	
-0.397583	
-0.397827	
-0.396973	
-0.398193	
-0.396484	
-0.397583	
-0.396606	
-0.396606	
-0.396545	
-0.395508	
-0.396484	
-0.395874	
-0.396484	
-0.395813	
-0.396179	
-0.394104	
-0.396118	
-0.395081	
-0.394775	
-0.394714	
-0.394043	
-0.39502	
-0.394775	
-0.395081	
-0.395203	
-0.395264	
-0.393494	
-0.395081	
-0.394165	
-0.393982	
-0.392883	
-0.393066	
-0.39325	
-0.393494	
-0.393677	
-0.392822	
-0.393677	
-0.392639	
-0.394348	
-0.39325	
-0.393188	
-0.392578	
-0.392151	
-0.392517	
-0.392761	
-0.392822	
-0.392944	
-0.3927	
-0.392212	
-0.39325	
-0.391907	
-0.392639	
-0.391296	
-0.391724	
-0.392883	
-0.392883	
-0.3927	
-0.39325	
-0.394165	
-0.392517	
-0.393372	
-0.392944	
-0.392883	
-0.391479	
-0.392273	
-0.393372	
-0.393188	
-0.392761	
-0.393188	
-0.39386	
-0.393372	
-0.393494	
-0.393066	
-0.393616	
-0.39325	
-0.393677	
-0.394043	
-0.394836	
-0.394897	
-0.394836	
-0.395264	
-0.395325	
-0.395264	
-0.39386	
-0.395386	
-0.395447	
-0.395142	
-0.396057	
-0.39563	
-0.396118	
-0.396362	
-0.396118	
-0.396057	
-0.395508	
-0.394226	
	
