E:\DOCUMENTS AND SETTINGS\JPOTAS\MEUS DOCUMENTOS\UFRJ\RSCI-BM 12 WK SERIES\070723-RSCI-BM-06\RSCI-BM-06-LEMG\070723-RSCI-BM-LEMG-0005.ACQ
0.025000 msec/sample
1 channel
Analog input
Volts
CH1	
2000	
-0.396851	
-0.396667	
-0.396423	
-0.397522	
-0.397034	
-0.395874	
-0.396545	
-0.397949	
-0.396912	
-0.396179	
-0.3974	
-0.396851	
-0.397217	
-0.397888	
-0.395996	
-0.397705	
-0.397766	
-0.398254	
-0.397095	
-0.397827	
-0.398132	
-0.398132	
-0.399292	
-0.398743	
-0.398926	
-0.397339	
-0.399475	
-0.399109	
-0.398987	
-0.399292	
-0.399719	
-0.399475	
-0.399353	
-0.399292	
-0.398926	
-0.398987	
-0.399109	
-0.398621	
-0.398376	
-0.397156	
-0.398743	
-0.399231	
-0.397888	
-0.398315	
-0.398621	
-0.39917	
-0.397766	
-0.398254	
-0.396729	
-0.397156	
-0.396729	
-0.397339	
-0.3974	
-0.397339	
-0.397034	
-0.396851	
-0.397827	
-0.396851	
-0.397156	
-0.395935	
-0.396912	
-0.39679	
-0.39679	
-0.395935	
-0.397461	
-0.397827	
-0.397583	
-0.397583	
-0.397888	
-0.398132	
-0.398254	
-0.398376	
-0.398682	
-0.399475	
-0.399963	
-0.401062	
-0.400818	
-0.400635	
-0.401062	
-0.401672	
-0.401367	
-0.401733	
-0.401306	
-0.401428	
-0.400696	
-0.401428	
-0.402161	
-0.400574	
-0.400146	
-0.400696	
-0.401611	
-0.400208	
-0.40094	
-0.399597	
-0.399963	
-0.399292	
-0.399963	
-0.399353	
-0.399719	
-0.398987	
-0.398804	
-0.400146	
-0.400574	
-0.400574	
-0.399902	
-0.400269	
-0.400513	
-0.39978	
-0.400146	
-0.400879	
-0.400635	
-0.400818	
-0.401367	
-0.401367	
-0.40033	
-0.401062	
-0.400696	
-0.400635	
-0.399719	
-0.400146	
-0.401001	
-0.40033	
-0.399048	
-0.399231	
-0.400269	
-0.400208	
-0.399963	
-0.398743	
-0.399414	
-0.399719	
-0.400146	
-0.398926	
-0.399963	
-0.400146	
-0.40033	
-0.400818	
-0.401367	
-0.400696	
-0.399719	
-0.400818	
-0.400879	
-0.400208	
-0.402039	
-0.402161	
-0.401672	
-0.401489	
-0.401062	
-0.402954	
-0.402039	
-0.401489	
-0.400696	
-0.401001	
-0.400513	
-0.400696	
-0.401428	
-0.400574	
-0.400391	
-0.399597	
-0.400574	
-0.39978	
-0.40033	
-0.400146	
-0.39917	
-0.399048	
-0.399353	
-0.399658	
-0.399719	
-0.399658	
-0.39917	
-0.399841	
-0.400024	
-0.400146	
-0.399353	
-0.397522	
-0.398987	
-0.398132	
-0.398438	
-0.399109	
-0.399353	
-0.39917	
-0.398438	
-0.401855	
-0.400024	
-0.400757	
-0.399841	
-0.400146	
-0.399475	
-0.398987	
-0.400391	
-0.399353	
-0.39978	
-0.398804	
-0.399841	
-0.398743	
-0.398743	
-0.398682	
-0.397766	
-0.392944	
-0.391785	
-0.392639	
-0.392822	
-0.392456	
-0.391541	
-0.397705	
-0.39856	
-0.396973	
-0.396667	
-0.394714	
-0.395996	
-0.394897	
-0.396423	
-0.396423	
-0.39679	
-0.391418	
-0.390381	
-0.393799	
-0.392883	
-0.39386	
-0.393005	
-0.397949	
-0.398743	
-0.397888	
-0.399597	
-0.398804	
-0.398743	
-0.398438	
-0.399597	
-0.399658	
-0.399841	
-0.400391	
-0.399231	
-0.400208	
-0.400269	
-0.401123	
-0.400269	
-0.400818	
-0.400574	
-0.40033	
-0.40155	
-0.400513	
-0.400269	
-0.398682	
-0.399658	
-0.398621	
-0.399963	
-0.401062	
-0.402588	
-0.403992	
-0.403687	
-0.408875	
-0.410583	
-0.413879	
-0.416626	
-0.420044	
-0.423828	
-0.429871	
-0.434692	
-0.438904	
-0.44281	
-0.448181	
-0.454468	
-0.458801	
-0.465698	
-0.47113	
-0.481018	
-0.490662	
-0.504456	
-0.516724	
-0.527771	
-0.538452	
-0.547058	
-0.55603	
-0.561707	
-0.568359	
-0.572021	
-0.577209	
-0.579712	
-0.58313	
-0.583191	
-0.582886	
-0.581543	
-0.57959	
-0.578003	
-0.574585	
-0.57312	
-0.570313	
-0.56842	
-0.565125	
-0.565369	
-0.564026	
-0.563232	
-0.561768	
-0.560791	
-0.559631	
-0.557068	
-0.556885	
-0.554138	
-0.553223	
-0.552185	
-0.551453	
-0.550598	
-0.549561	
-0.547546	
-0.546143	
-0.545532	
-0.543518	
-0.541443	
-0.53772	
-0.534058	
-0.530579	
-0.525513	
-0.520874	
-0.515747	
-0.510193	
-0.50354	
-0.499878	
-0.495789	
-0.490479	
-0.485229	
-0.479675	
-0.477661	
-0.473938	
-0.471313	
-0.468689	
-0.466064	
-0.462769	
-0.461121	
-0.458557	
-0.455261	
-0.451782	
-0.447327	
-0.445618	
-0.442017	
-0.44043	
-0.437927	
-0.435913	
-0.433594	
-0.4328	
-0.432007	
-0.429138	
-0.427856	
-0.424622	
-0.422546	
-0.419373	
-0.419312	
-0.415039	
-0.411072	
-0.406738	
-0.402588	
-0.398315	
-0.392944	
-0.388245	
-0.381348	
-0.37384	
-0.367981	
-0.36084	
-0.353882	
-0.345764	
-0.336853	
-0.327332	
-0.31958	
-0.310669	
-0.299622	
-0.289917	
-0.280518	
-0.272339	
-0.263245	
-0.258484	
-0.252991	
-0.247986	
-0.244324	
-0.243225	
-0.242615	
-0.241516	
-0.242188	
-0.242554	
-0.245178	
-0.247559	
-0.25116	
-0.253845	
-0.25708	
-0.259521	
-0.263062	
-0.267273	
-0.271301	
-0.274048	
-0.277893	
-0.281982	
-0.287964	
-0.29248	
-0.296936	
-0.302124	
-0.307068	
-0.311768	
-0.315735	
-0.319641	
-0.321106	
-0.324585	
-0.327209	
-0.330872	
-0.332153	
-0.334045	
-0.334534	
-0.337463	
-0.339294	
-0.340637	
-0.340271	
-0.340881	
-0.341187	
-0.342773	
-0.343384	
-0.343933	
-0.345154	
-0.346008	
-0.347656	
-0.349243	
-0.35083	
-0.350342	
-0.35083	
-0.351746	
-0.355225	
-0.355347	
-0.356628	
-0.358093	
-0.360596	
-0.362671	
-0.363525	
-0.364868	
-0.365417	
-0.36731	
-0.367737	
-0.370178	
-0.370667	
-0.371216	
-0.371338	
-0.372009	
-0.373047	
-0.374695	
-0.373657	
-0.372681	
-0.374146	
-0.374817	
-0.375793	
-0.375183	
-0.374817	
-0.375305	
-0.376282	
-0.376526	
-0.377258	
-0.375977	
-0.374695	
-0.375427	
-0.375305	
-0.375427	
-0.375427	
-0.375427	
-0.374451	
-0.37561	
-0.376221	
-0.376404	
-0.374634	
-0.373657	
-0.37384	
-0.37439	
-0.374451	
-0.373718	
-0.373779	
-0.372314	
-0.37323	
-0.373779	
-0.374329	
-0.372559	
-0.371216	
-0.372192	
-0.371643	
-0.372314	
-0.371704	
-0.371765	
-0.370728	
-0.372131	
-0.373108	
-0.373718	
-0.372314	
-0.371277	
-0.373047	
-0.373779	
-0.374573	
-0.374207	
-0.374329	
-0.374817	
-0.375549	
-0.376282	
-0.377258	
-0.37677	
-0.375549	
-0.376587	
-0.377991	
-0.377319	
-0.377563	
-0.378113	
-0.379089	
-0.379517	
-0.379578	
-0.379761	
-0.379761	
-0.3797	
-0.379028	
-0.380615	
-0.381104	
-0.381348	
-0.380432	
-0.381714	
-0.383362	
-0.382874	
-0.381714	
-0.380066	
-0.380676	
-0.382629	
-0.382629	
-0.382629	
-0.382507	
-0.382935	
-0.383972	
-0.384949	
-0.385315	
-0.384399	
-0.384094	
-0.384949	
-0.386475	
-0.386597	
-0.386108	
-0.386536	
-0.387207	
-0.387695	
-0.387939	
-0.38855	
-0.386841	
-0.387024	
-0.387939	
-0.389404	
-0.389038	
-0.388733	
-0.388611	
-0.389771	
-0.389648	
-0.388855	
-0.388672	
-0.388	
-0.388489	
-0.388672	
-0.388184	
-0.388611	
-0.38855	
-0.386963	
-0.389099	
-0.389648	
-0.388367	
-0.387939	
-0.387817	
-0.387451	
-0.388367	
-0.388	
-0.387268	
-0.38739	
-0.386597	
-0.388428	
-0.38855	
-0.387939	
-0.387512	
-0.387024	
-0.387817	
-0.388306	
-0.388794	
-0.389099	
-0.389221	
-0.388184	
-0.389832	
-0.389587	
-0.389465	
-0.388672	
-0.389282	
-0.390198	
-0.391541	
-0.391846	
-0.3927	
-0.392639	
-0.392578	
-0.39447	
-0.394165	
-0.393921	
-0.393188	
-0.393616	
-0.394165	
-0.394653	
-0.395325	
-0.394836	
-0.39447	
-0.394775	
-0.397217	
-0.395752	
-0.395691	
-0.394531	
-0.39502	
-0.39563	
-0.395874	
-0.39563	
-0.395264	
-0.395508	
-0.395508	
-0.397278	
-0.396362	
-0.396729	
-0.394714	
-0.395752	
-0.396301	
-0.396545	
-0.396179	
-0.396057	
-0.396057	
-0.396606	
-0.397522	
-0.397156	
-0.396667	
-0.394531	
-0.395569	
-0.394836	
-0.397156	
-0.396057	
-0.396301	
-0.39563	
-0.395996	
-0.395447	
-0.395386	
-0.39447	
-0.393799	
-0.393738	
-0.394165	
-0.394592	
-0.394836	
-0.394531	
-0.394409	
-0.396179	
-0.395569	
-0.395813	
-0.395264	
-0.395203	
-0.395142	
-0.395081	
-0.395142	
-0.396179	
-0.395447	
-0.396423	
-0.397705	
-0.396667	
-0.397217	
-0.395081	
-0.396362	
-0.395874	
-0.396606	
-0.396851	
-0.396729	
-0.396423	
-0.397095	
-0.397644	
-0.397644	
-0.396912	
-0.395569	
-0.396606	
-0.396179	
-0.397705	
-0.396423	
-0.396362	
-0.397034	
-0.397705	
-0.397766	
-0.397583	
-0.396851	
-0.396973	
-0.397278	
-0.396912	
-0.398254	
-0.39801	
-0.397827	
-0.397461	
-0.39856	
-0.399292	
-0.399048	
-0.398499	
-0.398743	
-0.398315	
-0.399109	
-0.400146	
-0.399963	
-0.399536	
-0.398926	
-0.400391	
-0.401184	
-0.401184	
-0.399902	
-0.399719	
-0.398804	
-0.40033	
-0.400818	
-0.399719	
-0.399658	
-0.398682	
-0.399841	
-0.400085	
-0.400146	
-0.399536	
-0.398682	
-0.398071	
-0.399597	
-0.399292	
-0.398865	
-0.398865	
-0.39856	
-0.399353	
-0.399963	
-0.399719	
-0.398804	
-0.398132	
-0.397766	
-0.398621	
-0.398682	
-0.398438	
-0.398438	
-0.397888	
-0.399353	
-0.400208	
-0.399597	
-0.398621	
-0.398926	
-0.399109	
-0.400024	
-0.399841	
-0.400085	
-0.401001	
-0.399841	
-0.401672	
-0.402649	
-0.403076	
-0.402527	
-0.402161	
-0.401855	
-0.402954	
-0.403198	
-0.403442	
-0.403625	
-0.402283	
-0.403625	
-0.403809	
-0.403931	
-0.402893	
-0.403076	
-0.401794	
-0.4021	
-0.402771	
-0.402283	
-0.4021	
-0.400757	
-0.402466	
-0.402588	
-0.402344	
-0.401794	
-0.401672	
-0.400696	
-0.401917	
-0.402527	
-0.4021	
-0.401794	
-0.400757	
-0.402527	
-0.402832	
-0.403381	
-0.402588	
-0.402405	
-0.402222	
-0.402893	
-0.403381	
-0.401978	
-0.403076	
-0.402527	
-0.403687	
-0.403015	
-0.403442	
-0.402466	
-0.402466	
-0.401123	
-0.401855	
-0.401672	
-0.401672	
-0.401733	
-0.401184	
-0.401794	
-0.401794	
-0.402771	
-0.402344	
-0.402466	
-0.401245	
-0.401794	
-0.402405	
-0.402466	
-0.403015	
-0.401733	
-0.403503	
-0.403687	
-0.405396	
-0.404297	
-0.403687	
-0.402649	
-0.403442	
-0.40387	
-0.40448	
-0.404358	
-0.403748	
-0.403809	
-0.403687	
-0.405029	
-0.404297	
-0.402161	
-0.402222	
-0.403259	
-0.403015	
-0.402161	
-0.401794	
-0.401306	
-0.402527	
-0.402344	
-0.403564	
-0.402405	
-0.401184	
-0.401733	
-0.402588	
-0.402161	
-0.401367	
-0.40155	
-0.401367	
-0.401917	
-0.402283	
-0.402771	
-0.402344	
-0.401306	
-0.40155	
-0.401855	
-0.401978	
-0.402405	
-0.401733	
-0.401123	
-0.402466	
-0.402771	
-0.40271	
-0.402771	
-0.401428	
-0.402466	
-0.401428	
-0.402527	
-0.402466	
-0.402161	
-0.400085	
-0.401123	
-0.40094	
-0.401062	
-0.401428	
-0.399475	
-0.400391	
-0.398621	
-0.39917	
-0.399536	
-0.399475	
-0.398071	
-0.399353	
-0.399292	
-0.398987	
-0.399597	
-0.397949	
-0.398743	
-0.397888	
-0.398682	
-0.399536	
-0.399658	
-0.398682	
-0.400635	
-0.401184	
-0.400574	
-0.401917	
-0.400391	
-0.400757	
-0.400574	
-0.401062	
-0.40155	
-0.401672	
-0.401306	
-0.40271	
-0.403503	
-0.402893	
-0.403992	
-0.403503	
-0.402893	
-0.403015	
-0.403015	
-0.403442	
-0.403198	
-0.402649	
-0.403015	
-0.403564	
-0.403198	
-0.404663	
-0.403748	
-0.402588	
-0.402893	
-0.403076	
-0.403137	
-0.402954	
-0.401611	
-0.401978	
-0.40271	
-0.40155	
-0.401794	
-0.401733	
-0.400818	
-0.400208	
-0.399353	
-0.400024	
-0.399597	
-0.398743	
-0.399719	
-0.399597	
-0.399048	
-0.399902	
-0.399719	
-0.399719	
-0.399292	
-0.39801	
-0.39917	
-0.399109	
-0.398132	
-0.399414	
-0.398926	
-0.399353	
-0.39917	
-0.399658	
-0.398865	
-0.398804	
-0.399231	
-0.399353	
-0.399109	
-0.398376	
-0.399353	
-0.399597	
-0.399597	
-0.398987	
-0.399902	
-0.398499	
-0.399414	
-0.400513	
-0.399048	
-0.399719	
-0.399597	
-0.400879	
-0.400024	
-0.401184	
-0.400696	
-0.401672	
-0.401672	
-0.401917	
-0.401672	
-0.401062	
-0.401184	
-0.40155	
-0.4021	
-0.402161	
-0.402466	
-0.402222	
-0.402832	
-0.402893	
-0.402344	
-0.401489	
-0.401917	
-0.401672	
-0.400757	
-0.401489	
-0.40155	
-0.402039	
-0.401123	
-0.40155	
-0.401184	
-0.400818	
-0.401428	
-0.40033	
-0.401001	
-0.400574	
-0.400879	
-0.400696	
-0.400879	
-0.400635	
-0.401917	
-0.401062	
-0.400757	
-0.401306	
-0.400024	
-0.400574	
-0.400574	
-0.401123	
-0.40094	
-0.401062	
-0.400696	
-0.40155	
-0.401855	
-0.400452	
-0.401184	
-0.40033	
-0.399353	
-0.400269	
-0.400146	
-0.400269	
-0.399963	
-0.400269	
-0.400024	
-0.400452	
-0.39978	
-0.400269	
-0.398682	
-0.398804	
-0.398682	
-0.398804	
-0.398621	
-0.398682	
-0.399658	
-0.398926	
-0.399292	
-0.398499	
-0.399292	
-0.397461	
-0.39801	
-0.398132	
-0.39917	
-0.398621	
-0.398682	
-0.400024	
-0.399597	
-0.400574	
-0.399536	
-0.400024	
-0.398499	
-0.399292	
-0.399963	
-0.400391	
-0.400146	
-0.40033	
-0.40033	
-0.400269	
-0.401794	
-0.400757	
-0.400818	
-0.400513	
-0.400391	
-0.400818	
-0.400757	
-0.40094	
-0.401184	
-0.401062	
-0.400879	
-0.401367	
-0.401062	
-0.399109	
-0.399353	
-0.397888	
-0.39917	
-0.398315	
-0.398804	
-0.399048	
-0.399048	
-0.399109	
-0.397827	
-0.398193	
-0.397034	
-0.397217	
-0.395325	
-0.395142	
-0.395081	
-0.396545	
-0.396179	
-0.395813	
-0.396973	
-0.396606	
-0.397827	
-0.397278	
-0.3974	
-0.395752	
-0.397339	
-0.397156	
-0.397156	
-0.39801	
-0.397888	
-0.398376	
-0.397766	
-0.398743	
-0.398315	
-0.398071	
-0.397217	
-0.397766	
-0.397705	
-0.397949	
-0.397888	
-0.397217	
-0.397705	
-0.396851	
-0.398376	
-0.397522	
-0.396729	
-0.396423	
-0.397095	
-0.3974	
-0.397278	
-0.396973	
-0.397766	
-0.397278	
-0.397705	
-0.398438	
-0.398315	
-0.397278	
-0.397583	
-0.397644	
-0.398499	
-0.397522	
-0.398193	
-0.398865	
-0.398071	
-0.398499	
-0.398499	
-0.397644	
-0.396851	
-0.398682	
-0.3974	
-0.397461	
-0.396912	
-0.396667	
-0.396851	
-0.396729	
-0.396912	
-0.397522	
-0.397278	
-0.396851	
-0.397095	
-0.394714	
-0.395447	
-0.396484	
-0.396606	
-0.396912	
-0.396667	
-0.396667	
-0.397217	
-0.398193	
-0.397827	
-0.397156	
-0.395874	
-0.397156	
-0.397217	
-0.397217	
-0.398499	
-0.398071	
-0.397888	
-0.399048	
-0.399292	
-0.398621	
-0.397156	
-0.396912	
-0.398193	
-0.398376	
-0.39801	
-0.398682	
-0.398132	
-0.398254	
-0.399231	
-0.398682	
-0.398315	
-0.397766	
-0.397339	
-0.397644	
-0.398132	
-0.397461	
-0.397583	
-0.397766	
-0.397888	
-0.398743	
-0.398865	
-0.397522	
-0.397278	
-0.398376	
-0.397766	
-0.397949	
-0.398804	
-0.399475	
-0.399414	
-0.399597	
-0.399902	
-0.400269	
-0.39978	
-0.400146	
-0.40033	
-0.398621	
-0.400024	
-0.401001	
-0.400696	
-0.401001	
-0.401672	
-0.401306	
-0.401611	
-0.401855	
-0.401489	
-0.39978	
-0.399719	
-0.399353	
-0.400146	
-0.399536	
-0.399658	
-0.399353	
-0.39917	
-0.39978	
-0.400085	
-0.399353	
-0.3974	
-0.397034	
-0.397705	
-0.397949	
-0.396851	
-0.397278	
-0.397278	
-0.397522	
-0.398376	
-0.39856	
-0.397156	
-0.396423	
-0.396729	
-0.396301	
-0.396729	
-0.396179	
-0.396729	
-0.396912	
-0.397095	
-0.39801	
-0.398376	
-0.396545	
-0.396606	
-0.3974	
-0.396729	
-0.397461	
-0.397522	
-0.398254	
-0.39856	
-0.399292	
-0.39917	
-0.399658	
-0.39978	
-0.399658	
-0.399231	
-0.39856	
-0.400574	
-0.400574	
-0.400574	
-0.400452	
-0.40094	
-0.400513	
-0.400696	
-0.401367	
-0.400513	
-0.399414	
-0.399231	
-0.399292	
-0.400391	
-0.399719	
-0.400635	
-0.400574	
-0.401367	
-0.401672	
-0.402771	
-0.401306	
-0.40033	
-0.400452	
-0.399841	
-0.40033	
-0.400085	
-0.400879	
-0.400879	
-0.401184	
-0.401672	
-0.401428	
-0.401184	
-0.400574	
-0.401062	
-0.400085	
-0.399719	
-0.399414	
-0.399841	
-0.399597	
-0.399963	
-0.399292	
-0.398987	
-0.398987	
-0.398499	
-0.399048	
-0.396851	
-0.397644	
-0.397888	
-0.398376	
-0.398376	
-0.398376	
-0.39856	
-0.398376	
-0.39978	
-0.398499	
-0.398254	
-0.396423	
-0.398987	
-0.398315	
-0.39856	
-0.398682	
-0.39856	
-0.398865	
-0.399963	
-0.401062	
-0.399536	
-0.397949	
-0.397034	
-0.398499	
-0.39856	
-0.397766	
-0.399109	
-0.398926	
-0.399109	
-0.399231	
-0.399963	
-0.399048	
-0.398315	
-0.397888	
-0.398865	
-0.398743	
-0.397888	
-0.399292	
-0.398987	
-0.398926	
-0.399963	
-0.400146	
-0.398621	
-0.39856	
-0.399719	
-0.398132	
-0.399658	
-0.399292	
-0.400085	
-0.399963	
-0.399963	
-0.401123	
-0.400818	
-0.400696	
-0.400269	
-0.400757	
-0.398743	
-0.400391	
-0.401123	
-0.400818	
-0.400757	
-0.401245	
-0.402039	
-0.401428	
-0.40271	
-0.401428	
-0.401306	
-0.400146	
-0.400818	
-0.400635	
-0.39978	
-0.400574	
-0.400696	
-0.400208	
-0.400635	
-0.400574	
-0.399475	
-0.399414	
-0.398132	
-0.399292	
-0.399231	
-0.397827	
-0.399048	
-0.399109	
-0.399109	
-0.399109	
-0.400208	
-0.398315	
-0.397217	
-0.398254	
-0.397583	
-0.398315	
-0.398071	
-0.398926	
-0.398926	
-0.399109	
-0.400085	
-0.401062	
-0.400452	
-0.398865	
-0.400757	
-0.397949	
-0.400635	
-0.40033	
-0.401184	
-0.40155	
-0.402466	
-0.402954	
-0.403381	
-0.403992	
-0.402222	
-0.403137	
-0.402405	
-0.403198	
-0.403198	
-0.40271	
-0.40332	
-0.403198	
-0.403381	
-0.402588	
-0.402893	
-0.401917	
-0.402344	
-0.401306	
-0.400757	
-0.401062	
-0.401672	
-0.401794	
-0.401428	
-0.402161	
-0.401306	
-0.402527	
-0.401428	
-0.401611	
-0.401184	
-0.400513	
-0.401306	
-0.401367	
-0.401611	
-0.402222	
-0.402771	
-0.402039	
-0.40271	
-0.403259	
-0.40271	
-0.402588	
-0.401245	
-0.401917	
-0.401367	
-0.401917	
-0.401978	
-0.4021	
-0.402039	
-0.401428	
-0.402161	
-0.399719	
-0.401489	
-0.399963	
-0.400696	
-0.400696	
-0.401917	
-0.40155	
-0.401184	
-0.402466	
-0.401489	
-0.402161	
-0.401489	
-0.402954	
-0.401428	
-0.401245	
-0.401794	
-0.402771	
-0.402832	
-0.402954	
-0.403259	
-0.403442	
-0.404785	
-0.403198	
-0.403931	
-0.403076	
-0.402405	
-0.40271	
-0.402893	
-0.403076	
-0.402283	
-0.402466	
-0.401978	
-0.402161	
-0.402344	
-0.40155	
-0.401245	
-0.400391	
-0.401611	
-0.400879	
-0.400818	
-0.401001	
-0.401367	
-0.400574	
-0.401611	
-0.401794	
-0.401428	
-0.40094	
-0.399658	
-0.39978	
-0.399658	
-0.401123	
-0.400879	
-0.401001	
-0.401001	
-0.401489	
-0.4021	
-0.401489	
-0.401733	
-0.400085	
-0.400696	
-0.401184	
-0.401428	
-0.401428	
-0.40155	
-0.401245	
-0.401428	
-0.402344	
-0.401428	
-0.401611	
-0.399902	
-0.399292	
-0.399109	
-0.399109	
-0.399658	
-0.399231	
-0.398926	
-0.399109	
-0.399536	
-0.398254	
-0.398682	
-0.398071	
-0.396729	
-0.396973	
-0.397888	
-0.397705	
-0.397949	
-0.398376	
-0.398132	
-0.398438	
-0.398193	
-0.399292	
-0.399231	
-0.397827	
-0.398254	
-0.399719	
-0.39978	
-0.399536	
-0.401245	
-0.400391	
-0.400879	
-0.401611	
-0.401794	
-0.401367	
-0.400269	
-0.401062	
-0.400391	
-0.401794	
-0.401917	
-0.402588	
-0.402466	
-0.402344	
-0.403442	
-0.403015	
-0.403015	
-0.401917	
-0.401306	
-0.401733	
-0.40155	
-0.40155	
-0.402161	
-0.401733	
-0.401367	
-0.402283	
-0.400818	
-0.401978	
-0.401001	
-0.400452	
-0.398987	
-0.399597	
-0.399963	
-0.399475	
-0.39978	
-0.398499	
-0.398987	
-0.398621	
-0.399231	
-0.398315	
-0.396423	
-0.397339	
-0.397156	
-0.397888	
-0.39801	
-0.398987	
-0.397766	
-0.397888	
-0.399414	
-0.399109	
-0.397827	
-0.396606	
-0.39679	
-0.397034	
-0.397949	
-0.397583	
-0.397949	
-0.397949	
-0.39801	
-0.398743	
-0.398499	
-0.398254	
-0.398254	
-0.397034	
-0.396973	
-0.398376	
-0.398376	
-0.398804	
-0.398926	
-0.398499	
-0.399292	
-0.399292	
-0.400452	
-0.399353	
-0.39856	
-0.397949	
-0.39978	
-0.399902	
-0.39978	
-0.401245	
-0.400513	
-0.400452	
-0.400879	
-0.401733	
-0.400635	
-0.399292	
-0.400513	
-0.400696	
-0.401062	
-0.400696	
-0.401672	
-0.400452	
-0.400269	
-0.40094	
-0.40155	
-0.400208	
-0.399841	
-0.39856	
-0.399475	
-0.399292	
-0.399048	
-0.400391	
-0.399292	
-0.39978	
-0.400024	
-0.401123	
-0.399597	
-0.39917	
-0.398621	
-0.398315	
-0.399597	
-0.399658	
-0.399353	
-0.399536	
-0.399902	
-0.399597	
-0.398743	
-0.400208	
-0.399536	
-0.398315	
-0.396851	
-0.399109	
-0.399353	
-0.399353	
-0.399902	
-0.399048	
-0.398804	
-0.399231	
-0.400574	
-0.39856	
-0.397766	
-0.396057	
-0.397888	
-0.39856	
-0.398254	
-0.398254	
-0.397278	
-0.397827	
-0.397705	
-0.399902	
-0.397217	
-0.396912	
-0.396057	
-0.397095	
-0.397278	
-0.396912	
-0.397095	
-0.397461	
-0.397034	
-0.3974	
-0.398865	
-0.397827	
-0.3974	
-0.396851	
-0.398438	
-0.398071	
-0.398132	
-0.398254	
-0.398926	
-0.398865	
-0.398621	
-0.398254	
-0.399292	
-0.398621	
-0.397827	
-0.396362	
-0.399597	
-0.399902	
-0.399902	
-0.400024	
-0.399597	
-0.399841	
-0.400635	
-0.401001	
-0.398865	
-0.398987	
-0.397644	
-0.398499	
-0.398682	
-0.398926	
-0.398865	
-0.397766	
-0.398743	
-0.398254	
-0.399658	
-0.396912	
-0.396545	
-0.39563	
-0.39563	
-0.39563	
-0.395325	
-0.395386	
-0.395203	
-0.39502	
-0.394409	
-0.394958	
-0.395325	
-0.394836	
-0.393372	
-0.394653	
-0.395813	
-0.395996	
-0.395874	
-0.395996	
-0.396423	
-0.39624	
-0.396667	
-0.397156	
-0.396301	
-0.396118	
-0.393616	
-0.396667	
-0.396362	
-0.396362	
-0.3974	
-0.396118	
-0.396179	
-0.396667	
-0.397949	
-0.395935	
-0.395264	
-0.394165	
-0.395264	
-0.395386	
-0.395569	
-0.39624	
-0.395569	
-0.396057	
-0.396057	
-0.399231	
-0.395813	
-0.395081	
-0.394104	
-0.396729	
-0.39679	
-0.396423	
-0.397278	
-0.397217	
-0.397095	
-0.39624	
-0.39679	
-0.39624	
-0.39679	
-0.395691	
-0.396606	
-0.396729	
-0.396362	
-0.395996	
-0.396484	
-0.395935	
-0.396118	
-0.396301	
-0.396118	
-0.395081	
-0.394592	
-0.392273	
-0.395203	
-0.394836	
-0.395264	
-0.395508	
-0.39447	
-0.395447	
-0.395874	
-0.397827	
-0.395447	
-0.395386	
-0.394165	
-0.396301	
-0.396057	
-0.396606	
-0.396667	
-0.396057	
-0.396179	
-0.395813	
-0.398438	
-0.396851	
-0.396729	
-0.394897	
-0.397095	
-0.396484	
-0.395935	
-0.396484	
-0.396973	
-0.396423	
-0.397034	
-0.397156	
-0.396851	
-0.397156	
-0.396118	
-0.395386	
-0.396423	
-0.39679	
-0.397278	
-0.3974	
-0.396179	
-0.396118	
-0.396912	
-0.396973	
-0.39624	
-0.395874	
-0.395325	
-0.396484	
-0.396851	
-0.396362	
-0.398071	
-0.396973	
-0.397705	
-0.39856	
-0.399231	
-0.398315	
-0.39856	
-0.39679	
-0.399109	
-0.39856	
-0.399048	
-0.399536	
-0.399414	
-0.399353	
-0.400391	
-0.400879	
-0.399536	
-0.399719	
-0.397339	
-0.398621	
-0.399536	
-0.398987	
-0.398804	
-0.399292	
-0.398376	
-0.397949	
-0.399597	
-0.398071	
-0.397461	
-0.396362	
-0.396912	
-0.397156	
-0.397095	
-0.396729	
-0.396973	
-0.396362	
-0.396301	
-0.397522	
-0.396606	
-0.395386	
-0.394592	
-0.394348	
-0.39502	
-0.395447	
-0.39563	
-0.395447	
-0.395203	
-0.395691	
-0.395996	
-0.395996	
-0.395569	
-0.395081	
-0.393372	
-0.39563	
-0.395142	
-0.395508	
-0.396057	
-0.396423	
-0.396301	
-0.397461	
-0.398438	
-0.398254	
-0.398254	
-0.396118	
-0.3974	
-0.397888	
-0.39917	
-0.398621	
-0.399963	
-0.398926	
-0.398804	
-0.401367	
-0.399719	
-0.398682	
-0.39917	
-0.398132	
-0.399475	
-0.398865	
-0.399536	
-0.399048	
-0.39917	
-0.398804	
-0.399902	
-0.400208	
-0.398926	
-0.398499	
-0.397339	
-0.399536	
-0.399475	
-0.399719	
-0.399292	
-0.399048	
-0.398499	
-0.39917	
-0.398621	
-0.39917	
-0.398254	
-0.39624	
-0.39856	
-0.398804	
-0.398376	
-0.398865	
-0.398804	
-0.398315	
-0.39801	
-0.40033	
-0.397644	
-0.397278	
-0.395386	
-0.395874	
-0.396606	
-0.396729	
-0.396484	
-0.396973	
-0.396606	
-0.3974	
-0.399353	
-0.398071	
-0.397034	
-0.395691	
-0.396118	
-0.396545	
-0.396851	
-0.397217	
-0.397278	
-0.397278	
-0.397339	
-0.398682	
-0.397827	
-0.397095	
-0.396545	
-0.395935	
-0.3974	
-0.397034	
-0.397034	
-0.397095	
-0.397644	
-0.397644	
-0.397827	
-0.397766	
-0.397339	
-0.397766	
	
