E:\DOCUMENTS AND SETTINGS\JPOTAS\MEUS DOCUMENTOS\UFRJ\RSCI-BM 12 WK SERIES\070723-RSCI-BM-06\RSCI-BM-06-LEMG\070723-RSCI-BM-LEMG-0018.ACQ
0.025000 msec/sample
1 channel
Analog input
Volts
CH1	
2000	
-0.39325	
-0.393066	
-0.393799	
-0.393066	
-0.391724	
-0.392883	
-0.393311	
-0.393494	
-0.393311	
-0.393066	
-0.392517	
-0.391785	
-0.392761	
-0.393127	
-0.392151	
-0.391785	
-0.392212	
-0.392212	
-0.39325	
-0.392456	
-0.391541	
-0.391724	
-0.392029	
-0.391785	
-0.3927	
-0.391541	
-0.392273	
-0.391479	
-0.391785	
-0.393188	
-0.393005	
-0.391846	
-0.391174	
-0.392029	
-0.392395	
-0.393127	
-0.392456	
-0.393127	
-0.392151	
-0.393372	
-0.394836	
-0.393921	
-0.39325	
-0.392334	
-0.393616	
-0.394348	
-0.394836	
-0.39386	
-0.393738	
-0.393372	
-0.395081	
-0.395752	
-0.394958	
-0.394409	
-0.394043	
-0.396606	
-0.395508	
-0.395081	
-0.394287	
-0.394714	
-0.394714	
-0.396301	
-0.395569	
-0.394775	
-0.39447	
-0.395203	
-0.395691	
-0.395264	
-0.394958	
-0.395142	
-0.396118	
-0.395996	
-0.397156	
-0.396729	
-0.39624	
-0.395264	
-0.395752	
-0.396973	
-0.398254	
-0.397766	
-0.397705	
-0.397034	
-0.397339	
-0.398926	
-0.398376	
-0.397583	
-0.397766	
-0.397644	
-0.398132	
-0.398132	
-0.397461	
-0.397583	
-0.397217	
-0.397644	
-0.398132	
-0.397339	
-0.397156	
-0.396301	
-0.397949	
-0.397095	
-0.398193	
-0.397217	
-0.397217	
-0.397034	
-0.398621	
-0.397339	
-0.396179	
-0.396179	
-0.395569	
-0.396362	
-0.395874	
-0.39563	
-0.394897	
-0.39502	
-0.393982	
-0.396667	
-0.395874	
-0.395081	
-0.39447	
-0.394226	
-0.394592	
-0.394653	
-0.39386	
-0.393616	
-0.394287	
-0.393616	
-0.395264	
-0.393188	
-0.393311	
-0.391235	
-0.392334	
-0.392944	
-0.392639	
-0.391602	
-0.392578	
-0.39325	
-0.393188	
-0.393433	
-0.393188	
-0.393433	
-0.390991	
-0.393494	
-0.3927	
-0.393494	
-0.392578	
-0.392822	
-0.3927	
-0.393494	
-0.393311	
-0.39209	
-0.392029	
-0.392395	
-0.392822	
-0.391724	
-0.392517	
-0.391968	
-0.393005	
-0.392212	
-0.394104	
-0.393738	
-0.392883	
-0.392395	
-0.391907	
-0.393311	
-0.39325	
-0.393494	
-0.392639	
-0.392944	
-0.392395	
-0.394104	
-0.392944	
-0.393005	
-0.392334	
-0.393616	
-0.393555	
-0.393738	
-0.394043	
-0.394714	
-0.394897	
-0.394165	
-0.396179	
-0.394775	
-0.394836	
-0.393677	
-0.395752	
-0.394714	
-0.395142	
-0.394165	
-0.39502	
-0.39502	
-0.395569	
-0.396179	
-0.394897	
-0.394165	
-0.392517	
-0.394653	
-0.394043	
-0.391418	
-0.389221	
-0.390076	
-0.390991	
-0.391968	
-0.391846	
-0.394897	
-0.395142	
-0.394897	
-0.395508	
-0.394897	
-0.396118	
-0.395203	
-0.395447	
-0.394836	
-0.397888	
-0.397034	
-0.39624	
-0.395996	
-0.397522	
-0.396667	
-0.396667	
-0.396667	
-0.39679	
-0.397339	
-0.396057	
-0.398926	
-0.397339	
-0.397034	
-0.395569	
-0.397766	
-0.396973	
-0.3974	
-0.397095	
-0.396423	
-0.396362	
-0.396545	
-0.397949	
-0.396362	
-0.395752	
-0.393982	
-0.396667	
-0.395996	
-0.395691	
-0.394226	
-0.395264	
-0.395264	
-0.397339	
-0.3974	
-0.398682	
-0.399902	
-0.402893	
-0.406372	
-0.409607	
-0.413513	
-0.417053	
-0.421509	
-0.425659	
-0.433594	
-0.436646	
-0.440796	
-0.445007	
-0.453735	
-0.459717	
-0.467529	
-0.473572	
-0.483765	
-0.49408	
-0.508484	
-0.519531	
-0.531128	
-0.541626	
-0.552307	
-0.560852	
-0.568176	
-0.574463	
-0.580444	
-0.584412	
-0.588684	
-0.59137	
-0.592163	
-0.592346	
-0.590576	
-0.591614	
-0.589539	
-0.588806	
-0.585388	
-0.585144	
-0.583374	
-0.583191	
-0.581848	
-0.581055	
-0.580139	
-0.580811	
-0.579956	
-0.578796	
-0.578064	
-0.575928	
-0.574341	
-0.57196	
-0.572876	
-0.568237	
-0.566162	
-0.562195	
-0.562683	
-0.560425	
-0.557678	
-0.55542	
-0.553528	
-0.550232	
-0.546143	
-0.542175	
-0.537537	
-0.531494	
-0.52478	
-0.520813	
-0.515015	
-0.509094	
-0.502991	
-0.499023	
-0.493958	
-0.491516	
-0.486572	
-0.483093	
-0.479736	
-0.478088	
-0.475891	
-0.472717	
-0.471375	
-0.467468	
-0.464844	
-0.462036	
-0.462097	
-0.457031	
-0.453186	
-0.448669	
-0.449585	
-0.446899	
-0.444702	
-0.442566	
-0.440491	
-0.43927	
-0.436523	
-0.434143	
-0.430481	
-0.427429	
-0.422729	
-0.421387	
-0.416138	
-0.411072	
-0.405334	
-0.400391	
-0.39386	
-0.38739	
-0.380676	
-0.372742	
-0.365051	
-0.355713	
-0.348877	
-0.339783	
-0.32959	
-0.318115	
-0.308838	
-0.297852	
-0.288147	
-0.277405	
-0.268433	
-0.260376	
-0.254211	
-0.249939	
-0.245972	
-0.243347	
-0.241211	
-0.240601	
-0.240662	
-0.24292	
-0.242249	
-0.243286	
-0.242859	
-0.248779	
-0.250977	
-0.25354	
-0.255127	
-0.260132	
-0.264038	
-0.270264	
-0.272156	
-0.276672	
-0.279602	
-0.28656	
-0.29071	
-0.296082	
-0.299072	
-0.305359	
-0.309631	
-0.315125	
-0.317566	
-0.320557	
-0.32251	
-0.326477	
-0.327393	
-0.329468	
-0.330322	
-0.332153	
-0.333374	
-0.335693	
-0.334717	
-0.335266	
-0.335144	
-0.337158	
-0.337219	
-0.33783	
-0.337708	
-0.339233	
-0.339966	
-0.341003	
-0.341309	
-0.342529	
-0.343506	
-0.345154	
-0.346191	
-0.348022	
-0.349915	
-0.350342	
-0.351196	
-0.352417	
-0.35376	
-0.355713	
-0.356506	
-0.356934	
-0.359009	
-0.360718	
-0.361572	
-0.362183	
-0.363037	
-0.364075	
-0.365845	
-0.365356	
-0.364807	
-0.364258	
-0.367126	
-0.367371	
-0.368408	
-0.367188	
-0.368652	
-0.369202	
-0.370911	
-0.369934	
-0.370178	
-0.370056	
-0.371338	
-0.37085	
-0.370972	
-0.371399	
-0.370972	
-0.370972	
-0.371094	
-0.371704	
-0.371338	
-0.370117	
-0.371277	
-0.372131	
-0.372681	
-0.372986	
-0.373047	
-0.37384	
-0.374207	
-0.374878	
-0.373718	
-0.373474	
-0.373474	
-0.375122	
-0.374023	
-0.37439	
-0.374756	
-0.37439	
-0.374084	
-0.374756	
-0.374756	
-0.375183	
-0.372925	
-0.375	
-0.375793	
-0.375366	
-0.375854	
-0.375793	
-0.375916	
-0.377319	
-0.377686	
-0.376892	
-0.375732	
-0.376343	
-0.377319	
-0.37677	
-0.376953	
-0.375732	
-0.377197	
-0.378052	
-0.378052	
-0.378296	
-0.376709	
-0.37738	
-0.378784	
-0.378296	
-0.378113	
-0.378845	
-0.379211	
-0.379578	
-0.378784	
-0.378662	
-0.377686	
-0.378052	
-0.37854	
-0.378601	
-0.378418	
-0.377991	
-0.378235	
-0.378601	
-0.377319	
-0.37854	
-0.377441	
-0.377869	
-0.379028	
-0.379028	
-0.378784	
-0.38031	
-0.380066	
-0.380371	
-0.379822	
-0.380127	
-0.379578	
-0.379883	
-0.380981	
-0.381714	
-0.381897	
-0.381104	
-0.380676	
-0.382568	
-0.382263	
-0.381226	
-0.380676	
-0.379822	
-0.380188	
-0.380737	
-0.380432	
-0.380188	
-0.380249	
-0.380615	
-0.380371	
-0.379883	
-0.380066	
-0.379211	
-0.378601	
-0.379517	
-0.379639	
-0.379517	
-0.380371	
-0.379517	
-0.380493	
-0.381348	
-0.380066	
-0.3797	
-0.37915	
-0.380432	
-0.381592	
-0.380798	
-0.380249	
-0.380737	
-0.381226	
-0.381531	
-0.381714	
-0.38208	
-0.381409	
-0.381836	
-0.383118	
-0.383057	
-0.382874	
-0.383545	
-0.38324	
-0.384644	
-0.384888	
-0.384033	
-0.383667	
-0.382385	
-0.384644	
-0.385559	
-0.384277	
-0.384583	
-0.384705	
-0.385498	
-0.385986	
-0.385986	
-0.385803	
-0.385132	
-0.386719	
-0.386963	
-0.386597	
-0.387024	
-0.387817	
-0.387085	
-0.388977	
-0.388855	
-0.388916	
-0.388672	
-0.386963	
-0.389526	
-0.389893	
-0.388916	
-0.38916	
-0.388855	
-0.389648	
-0.390625	
-0.389343	
-0.389954	
-0.389954	
-0.390686	
-0.391052	
-0.390869	
-0.391113	
-0.390991	
-0.390381	
-0.391174	
-0.389709	
-0.390381	
-0.388916	
-0.390503	
-0.39032	
-0.390442	
-0.389954	
-0.390625	
-0.389648	
-0.391052	
-0.390808	
-0.389954	
-0.390381	
-0.38916	
-0.391113	
-0.391663	
-0.390625	
-0.391968	
-0.390137	
-0.391418	
-0.392212	
-0.390381	
-0.389832	
-0.389099	
-0.390076	
-0.39032	
-0.390259	
-0.389709	
-0.388855	
-0.389709	
-0.391296	
-0.389709	
-0.389343	
-0.389038	
-0.389526	
-0.389404	
-0.389771	
-0.389954	
-0.389709	
-0.388977	
-0.389893	
-0.389465	
-0.389465	
-0.389954	
-0.38855	
-0.390137	
-0.39093	
-0.389282	
-0.389771	
-0.389099	
-0.389648	
-0.391174	
-0.389038	
-0.388733	
-0.387146	
-0.389099	
-0.388611	
-0.38916	
-0.388916	
-0.388367	
-0.388794	
-0.389526	
-0.388123	
-0.387939	
-0.387634	
-0.388245	
-0.388245	
-0.389343	
-0.388489	
-0.389404	
-0.387573	
-0.388489	
-0.389404	
-0.387878	
-0.388245	
-0.385986	
-0.388855	
-0.38855	
-0.388855	
-0.388977	
-0.388489	
-0.389038	
-0.38916	
-0.389465	
-0.389832	
-0.389282	
-0.389526	
-0.389709	
-0.391174	
-0.390259	
-0.391052	
-0.389954	
-0.39093	
-0.392334	
-0.391479	
-0.391113	
-0.388855	
-0.391418	
-0.39209	
-0.391968	
-0.391846	
-0.391968	
-0.392151	
-0.392334	
-0.39209	
-0.39209	
-0.391663	
-0.392273	
-0.3927	
-0.393494	
-0.392456	
-0.392761	
-0.391541	
-0.392517	
-0.393555	
-0.391968	
-0.392395	
-0.390137	
-0.393372	
-0.393616	
-0.393494	
-0.394165	
-0.394104	
-0.394226	
-0.394714	
-0.39447	
-0.394836	
-0.394226	
-0.395325	
-0.395508	
-0.396667	
-0.395142	
-0.39624	
-0.39447	
-0.394836	
-0.395447	
-0.395508	
-0.39502	
-0.394409	
-0.395813	
-0.39563	
-0.39502	
-0.395813	
-0.394836	
-0.394775	
-0.395447	
-0.395508	
-0.394836	
-0.393311	
-0.394836	
-0.394958	
-0.395691	
-0.394836	
-0.395081	
-0.393616	
-0.394775	
-0.393555	
-0.39386	
-0.393188	
-0.391968	
-0.393677	
-0.393677	
-0.392639	
-0.392639	
-0.392883	
-0.392456	
-0.393433	
-0.392883	
-0.392456	
-0.391052	
-0.391479	
-0.392151	
-0.391968	
-0.392578	
-0.392395	
-0.390808	
-0.391113	
-0.390015	
-0.390625	
-0.390259	
-0.390137	
-0.390381	
-0.391663	
-0.390991	
-0.391541	
-0.390625	
-0.390869	
-0.391846	
-0.391052	
-0.391052	
-0.390198	
-0.389587	
-0.390625	
-0.391602	
-0.391296	
-0.391113	
-0.389648	
-0.391357	
-0.390259	
-0.390564	
-0.390259	
-0.389404	
-0.390991	
-0.390869	
-0.39093	
-0.391113	
-0.390808	
-0.391235	
-0.39209	
-0.392029	
-0.391602	
-0.390076	
-0.39093	
-0.391052	
-0.391724	
-0.391235	
-0.391724	
-0.390076	
-0.391724	
-0.391541	
-0.39209	
-0.391785	
-0.390991	
-0.391113	
-0.392761	
-0.392456	
-0.392944	
-0.392761	
-0.393799	
-0.393921	
-0.393799	
-0.393555	
-0.392883	
-0.392883	
-0.394043	
-0.39502	
-0.393799	
-0.393555	
-0.391907	
-0.393188	
-0.393677	
-0.394714	
-0.392639	
-0.390076	
-0.391479	
-0.392517	
-0.391846	
-0.392761	
-0.392273	
-0.392395	
-0.393555	
-0.393311	
-0.393005	
-0.393555	
-0.393677	
-0.394043	
-0.395203	
-0.39447	
-0.39502	
-0.393677	
-0.394958	
-0.394897	
-0.395813	
-0.395569	
-0.39502	
-0.395264	
-0.39624	
-0.395996	
-0.395935	
-0.395874	
-0.396179	
-0.396545	
-0.395203	
-0.396118	
-0.395447	
-0.395813	
-0.394287	
-0.396179	
-0.395752	
-0.396851	
-0.395264	
-0.395325	
-0.395447	
-0.395081	
-0.394958	
-0.393555	
-0.394531	
-0.394348	
-0.395081	
-0.394287	
-0.393921	
-0.392822	
-0.394287	
-0.393799	
-0.394836	
-0.393738	
-0.393372	
-0.392578	
-0.394043	
-0.39386	
-0.39386	
-0.393127	
-0.393066	
-0.394531	
-0.393311	
-0.392761	
-0.391174	
-0.392273	
-0.392761	
-0.393005	
-0.392395	
-0.392639	
-0.390869	
-0.391785	
-0.390503	
-0.391479	
-0.390442	
-0.390076	
-0.389893	
-0.391174	
-0.391052	
-0.390747	
-0.39032	
-0.390503	
-0.391418	
-0.390625	
-0.390198	
-0.389038	
-0.390076	
-0.389648	
-0.390564	
-0.389709	
-0.390991	
-0.390381	
-0.390747	
-0.390991	
-0.39093	
-0.390259	
-0.389465	
-0.390442	
-0.391296	
-0.391479	
-0.390625	
-0.391113	
-0.390808	
-0.391968	
-0.390198	
-0.391907	
-0.39032	
-0.390564	
-0.390137	
-0.391296	
-0.390869	
-0.391174	
-0.390808	
-0.391846	
-0.393066	
-0.392517	
-0.392029	
-0.390686	
-0.392639	
-0.393372	
-0.393311	
-0.392639	
-0.393677	
-0.391846	
-0.39325	
-0.39325	
-0.394287	
-0.392944	
-0.393494	
-0.393372	
-0.394165	
-0.394531	
-0.394043	
-0.394104	
-0.393433	
-0.394592	
-0.392395	
-0.393738	
-0.3927	
-0.393738	
-0.394165	
-0.394531	
-0.394714	
-0.394226	
-0.393433	
-0.394165	
-0.395508	
-0.394836	
-0.394043	
-0.392822	
-0.395142	
-0.395508	
-0.395142	
-0.394897	
-0.395813	
-0.395447	
-0.396057	
-0.395386	
-0.396301	
-0.395508	
-0.39563	
-0.39447	
-0.396606	
-0.395996	
-0.395935	
-0.395325	
-0.396118	
-0.397217	
-0.394653	
-0.395569	
-0.39447	
-0.395813	
-0.395386	
-0.395569	
-0.395142	
-0.394836	
-0.394653	
-0.394897	
-0.395447	
-0.395447	
-0.394348	
-0.392822	
-0.393188	
-0.395081	
-0.39386	
-0.39325	
-0.393738	
-0.393982	
-0.393982	
-0.392456	
-0.393005	
-0.392761	
-0.392639	
-0.392395	
-0.393127	
-0.393127	
-0.393433	
-0.392944	
-0.393188	
-0.394592	
-0.392944	
-0.393372	
-0.392517	
-0.3927	
-0.393188	
-0.393005	
-0.392761	
-0.392944	
-0.392456	
-0.392395	
-0.392273	
-0.392395	
-0.390686	
-0.388672	
-0.389893	
-0.391663	
-0.390869	
-0.390686	
-0.389954	
-0.39032	
-0.390381	
-0.388794	
-0.389465	
-0.389587	
-0.389954	
-0.390503	
-0.390076	
-0.390442	
-0.390198	
-0.389893	
-0.390442	
-0.391418	
-0.390625	
-0.389893	
-0.390198	
-0.390381	
-0.391235	
-0.390869	
-0.390686	
-0.390747	
-0.390869	
-0.390808	
-0.391296	
-0.391052	
-0.391052	
-0.389343	
-0.390503	
-0.392151	
-0.392273	
-0.392151	
-0.391113	
-0.392944	
-0.392883	
-0.391968	
-0.392944	
-0.392761	
-0.392029	
-0.393494	
-0.393188	
-0.393494	
-0.393494	
-0.393494	
-0.393555	
-0.395325	
-0.395142	
-0.394592	
-0.393982	
-0.394409	
-0.396362	
-0.395447	
-0.395752	
-0.39624	
-0.396057	
-0.396118	
-0.39563	
-0.394592	
-0.39502	
-0.394104	
-0.395691	
-0.394958	
-0.395508	
-0.395325	
-0.395081	
-0.395691	
-0.395813	
-0.395752	
-0.395264	
-0.395081	
-0.395081	
-0.395874	
-0.395325	
-0.395935	
-0.396179	
-0.395752	
-0.395264	
-0.396301	
-0.395935	
-0.395264	
-0.393982	
-0.394165	
-0.396423	
-0.394958	
-0.394958	
-0.395264	
-0.394348	
-0.395447	
-0.39563	
-0.395264	
-0.394531	
-0.393555	
-0.394897	
-0.394836	
-0.394531	
-0.394409	
-0.393188	
-0.393738	
-0.39447	
-0.394592	
-0.393311	
-0.392029	
-0.39325	
-0.393188	
-0.393066	
-0.393188	
-0.393188	
-0.393433	
-0.393799	
-0.393677	
-0.393494	
-0.392944	
-0.39325	
-0.39325	
-0.39502	
-0.393677	
-0.394043	
-0.393921	
-0.394104	
-0.394958	
-0.394348	
-0.394043	
-0.39386	
-0.393311	
-0.393372	
-0.39325	
-0.393005	
-0.393066	
-0.391418	
-0.392273	
-0.392395	
-0.393066	
-0.391235	
-0.391174	
-0.389954	
-0.391602	
-0.39093	
-0.390808	
-0.391113	
-0.390808	
-0.391479	
-0.389404	
-0.390747	
-0.390137	
-0.389954	
-0.390198	
-0.391785	
-0.390808	
-0.390442	
-0.390015	
-0.391235	
-0.391235	
-0.392578	
-0.390991	
-0.391052	
-0.390686	
-0.391846	
-0.391785	
-0.391113	
-0.392517	
-0.391785	
-0.392639	
-0.391541	
-0.39209	
-0.392334	
-0.392273	
-0.391541	
-0.392883	
-0.3927	
-0.393311	
-0.392944	
-0.393311	
-0.393433	
-0.39386	
-0.392517	
-0.39209	
-0.393494	
-0.393982	
-0.394226	
-0.393616	
-0.394226	
-0.393188	
-0.39502	
-0.394653	
-0.396606	
-0.395203	
-0.39502	
-0.394531	
-0.396484	
-0.396301	
-0.396362	
-0.396729	
-0.395874	
-0.396973	
-0.395264	
-0.395813	
-0.396118	
-0.395752	
-0.395569	
-0.397156	
-0.396606	
-0.396912	
-0.39624	
-0.396851	
-0.397461	
-0.397522	
-0.39624	
-0.395386	
-0.396179	
-0.39624	
-0.39563	
-0.395752	
-0.396057	
-0.395752	
-0.396423	
-0.395935	
-0.397461	
-0.395813	
-0.396057	
-0.394775	
-0.396423	
-0.395996	
-0.395508	
-0.396179	
-0.396118	
-0.39624	
-0.395142	
-0.396606	
-0.394287	
-0.394714	
-0.393311	
-0.396179	
-0.394714	
-0.394348	
-0.393677	
-0.393799	
-0.393494	
-0.394165	
-0.393127	
-0.393311	
-0.393616	
-0.393372	
-0.394287	
-0.393616	
-0.393982	
-0.392822	
-0.394897	
-0.39325	
-0.39502	
-0.393005	
-0.393372	
-0.392395	
-0.393799	
-0.393372	
-0.393677	
-0.394043	
-0.393066	
-0.393188	
-0.391785	
-0.392334	
-0.392273	
-0.392273	
-0.39209	
-0.392883	
-0.392151	
-0.392334	
-0.391846	
-0.391968	
-0.391846	
-0.393066	
-0.391602	
-0.391663	
-0.391357	
-0.391541	
-0.391785	
-0.391113	
-0.391235	
-0.390259	
-0.391968	
-0.391418	
-0.391846	
-0.390259	
-0.391357	
-0.389648	
-0.391357	
-0.391541	
-0.391235	
-0.392029	
-0.391663	
-0.39209	
-0.392151	
-0.391846	
-0.392761	
-0.392212	
-0.3927	
-0.393188	
-0.393433	
-0.393127	
-0.392883	
-0.394165	
-0.393494	
-0.394043	
-0.393494	
-0.393555	
-0.392944	
-0.394348	
-0.39563	
-0.394226	
-0.394653	
-0.394531	
-0.39447	
-0.394592	
-0.395386	
-0.393738	
-0.39386	
-0.3927	
-0.395081	
-0.394653	
-0.394226	
-0.39563	
-0.394714	
-0.394836	
-0.394958	
-0.394531	
-0.394958	
-0.394653	
-0.395142	
-0.396118	
-0.396118	
-0.396545	
-0.397278	
-0.397461	
-0.396484	
-0.397278	
-0.39624	
-0.397095	
-0.396851	
-0.397583	
-0.398071	
-0.397522	
-0.397705	
-0.397217	
-0.397095	
-0.397278	
-0.397949	
-0.396973	
-0.397034	
-0.395325	
-0.397278	
-0.397949	
-0.396729	
-0.397339	
-0.396423	
-0.396851	
-0.396423	
-0.396484	
-0.396667	
-0.396484	
-0.396545	
-0.396729	
-0.396667	
-0.396423	
-0.396851	
-0.395813	
-0.395081	
-0.39563	
-0.393799	
-0.394714	
-0.394043	
-0.394531	
-0.395142	
-0.394592	
-0.394714	
-0.39447	
-0.394165	
-0.393921	
-0.394775	
-0.393311	
-0.393372	
-0.391785	
-0.393738	
-0.393494	
-0.392456	
-0.392578	
-0.391602	
-0.392273	
-0.392639	
-0.392212	
-0.391724	
-0.391663	
-0.391785	
-0.392517	
-0.392273	
-0.392639	
-0.393555	
-0.39325	
-0.392456	
-0.3927	
-0.392151	
-0.392029	
-0.391846	
-0.392334	
-0.393311	
-0.391907	
-0.392456	
-0.392517	
-0.39209	
-0.391785	
-0.392212	
-0.391846	
-0.391968	
-0.390808	
-0.391968	
-0.392822	
-0.392456	
-0.392334	
-0.391663	
-0.392334	
-0.392517	
-0.392822	
-0.392761	
-0.392578	
-0.391785	
-0.392273	
-0.392334	
-0.392578	
-0.393738	
-0.393799	
-0.393372	
-0.39447	
-0.392883	
-0.393555	
-0.393127	
-0.394104	
-0.394714	
-0.394531	
-0.394592	
-0.394836	
-0.395264	
-0.395203	
-0.393799	
-0.393677	
-0.394409	
-0.394348	
-0.394592	
-0.395691	
-0.394592	
-0.394226	
-0.392822	
-0.393921	
-0.394714	
-0.394165	
-0.393738	
-0.393005	
-0.392273	
-0.393494	
-0.393738	
-0.393921	
-0.394958	
-0.395935	
-0.394897	
-0.395325	
-0.395386	
-0.395264	
-0.394653	
-0.39447	
-0.396362	
-0.395996	
-0.396179	
-0.396606	
-0.397034	
-0.397278	
-0.395813	
-0.396179	
-0.396667	
-0.397034	
-0.397034	
-0.397705	
-0.397278	
-0.3974	
-0.396973	
-0.39679	
-0.397949	
-0.397827	
-0.396851	
-0.395569	
-0.396545	
-0.396851	
-0.396606	
-0.395874	
-0.396606	
-0.395996	
-0.395447	
-0.396057	
-0.39563	
-0.394958	
-0.394897	
-0.394531	
-0.395264	
-0.394836	
-0.395325	
-0.395691	
-0.395325	
-0.395081	
-0.39386	
-0.392761	
-0.393921	
-0.394592	
-0.393616	
-0.394409	
-0.393982	
-0.393677	
-0.394043	
-0.393555	
-0.394592	
-0.392761	
-0.39325	
-0.392273	
-0.3927	
-0.392883	
-0.392578	
-0.392273	
-0.391785	
-0.391113	
-0.391357	
-0.391663	
-0.392151	
-0.391907	
-0.391052	
-0.391113	
-0.391113	
-0.390625	
-0.390808	
-0.391235	
-0.391724	
-0.391296	
-0.390564	
-0.390564	
-0.391174	
-0.390442	
-0.390259	
-0.392334	
-0.391235	
-0.391724	
-0.392944	
-0.392151	
-0.392517	
-0.391357	
-0.391907	
-0.390991	
-0.390869	
-0.391602	
-0.392273	
-0.391357	
-0.39209	
-0.391602	
-0.391235	
-0.39209	
-0.391907	
-0.392151	
-0.390503	
-0.391602	
-0.392395	
-0.392456	
-0.392334	
-0.393555	
-0.393738	
-0.393494	
-0.393311	
-0.392456	
-0.393433	
-0.393555	
-0.39386	
-0.395264	
-0.393616	
-0.394409	
-0.395081	
-0.394104	
-0.395264	
-0.39447	
-0.394104	
-0.393677	
-0.393799	
-0.394409	
-0.39502	
-0.394714	
-0.394043	
-0.394287	
-0.394287	
-0.395508	
-0.394104	
-0.394104	
-0.394165	
-0.395081	
-0.395508	
-0.39502	
-0.395203	
-0.395081	
-0.395386	
-0.395752	
-0.395752	
-0.394714	
-0.395325	
-0.395935	
-0.395569	
-0.397217	
-0.396118	
-0.395996	
-0.396118	
-0.396667	
-0.397034	
-0.396545	
-0.396606	
-0.396301	
-0.395935	
-0.395996	
-0.396545	
-0.396057	
-0.395996	
-0.397339	
-0.395996	
-0.396545	
-0.395081	
-0.395752	
-0.394836	
-0.395508	
-0.395447	
-0.395081	
-0.395325	
-0.39502	
-0.394775	
-0.394653	
-0.394348	
-0.394409	
-0.394226	
-0.393311	
-0.393433	
-0.394348	
-0.394287	
-0.394348	
-0.393494	
-0.393127	
-0.393311	
-0.393921	
-0.393433	
-0.393494	
-0.39325	
-0.393738	
-0.393311	
-0.39386	
-0.393677	
-0.395203	
-0.394409	
-0.39447	
-0.392151	
-0.392761	
-0.392273	
-0.392578	
-0.393433	
-0.392334	
-0.392029	
-0.39209	
-0.391357	
-0.391663	
-0.390869	
-0.391296	
-0.390747	
-0.389954	
-0.389954	
-0.390625	
-0.390564	
-0.390381	
-0.390076	
-0.390198	
-0.390198	
-0.389893	
-0.390381	
-0.390259	
-0.390198	
-0.390442	
-0.390625	
-0.390686	
-0.390503	
-0.391602	
-0.39093	
-0.391846	
-0.388916	
-0.391235	
-0.390686	
-0.390686	
-0.391785	
-0.391296	
-0.391174	
-0.391174	
-0.391479	
-0.391846	
-0.391846	
-0.392944	
-0.392029	
-0.39093	
-0.392212	
-0.394104	
-0.393066	
-0.392822	
-0.393616	
-0.393799	
-0.393127	
-0.392883	
-0.393982	
-0.393738	
-0.393066	
-0.392456	
-0.393799	
-0.394165	
-0.39502	
-0.396667	
-0.395813	
-0.395813	
-0.393799	
-0.39624	
-0.395569	
-0.395264	
-0.396667	
-0.395447	
-0.395203	
-0.395508	
-0.395325	
-0.395386	
-0.396057	
-0.396057	
-0.394958	
-0.394653	
-0.394592	
-0.395081	
-0.395447	
-0.395569	
-0.39563	
-0.395508	
-0.395569	
-0.395508	
-0.395813	
-0.395325	
-0.395386	
-0.395569	
-0.395447	
-0.39563	
-0.395203	
-0.396423	
-0.394897	
-0.395569	
-0.393555	
-0.395081	
-0.39502	
-0.395386	
-0.395935	
-0.394653	
-0.394836	
-0.394836	
-0.394775	
-0.395325	
-0.395325	
-0.39502	
-0.394287	
-0.393311	
-0.393372	
-0.394043	
-0.393616	
-0.393188	
-0.393127	
-0.39325	
-0.393372	
-0.393188	
-0.393677	
-0.392639	
-0.391724	
-0.391785	
-0.393066	
-0.393433	
-0.393433	
-0.394653	
-0.393372	
-0.393921	
-0.3927	
-0.394287	
-0.394165	
-0.393738	
-0.393677	
-0.393921	
-0.393799	
-0.39325	
-0.393616	
-0.394104	
-0.393433	
-0.391785	
-0.3927	
-0.391357	
-0.391479	
-0.392456	
-0.391541	
-0.391357	
-0.391663	
-0.391541	
-0.391174	
-0.391846	
-0.391113	
-0.390137	
-0.389587	
-0.39032	
-0.39032	
-0.390259	
-0.390381	
-0.391235	
-0.390259	
-0.390564	
-0.389343	
-0.390564	
-0.390015	
-0.389648	
-0.390137	
-0.390259	
-0.391113	
-0.391235	
-0.391663	
-0.391418	
-0.391418	
-0.390625	
-0.391663	
-0.391846	
-0.391235	
-0.391785	
-0.391968	
-0.391663	
-0.391724	
-0.392334	
-0.392578	
-0.3927	
-0.392029	
-0.392639	
-0.392273	
-0.393127	
-0.392883	
-0.393372	
-0.39325	
-0.394043	
-0.394226	
-0.393921	
-0.3927	
-0.394348	
-0.393616	
-0.392456	
-0.394531	
-0.394714	
-0.394958	
-0.395142	
-0.396545	
-0.396118	
-0.395752	
-0.394897	
-0.396851	
-0.395203	
-0.395447	
-0.396118	
-0.395447	
-0.395752	
-0.395935	
-0.396423	
-0.396545	
-0.397034	
-0.39679	
-0.396545	
-0.396118	
-0.395935	
-0.396118	
-0.39563	
-0.396118	
-0.396912	
-0.395752	
-0.39563	
-0.394775	
-0.395752	
-0.394775	
-0.39386	
-0.395752	
-0.395325	
-0.395325	
-0.395508	
-0.396729	
-0.395264	
-0.395447	
-0.394714	
-0.395935	
-0.395447	
-0.395325	
-0.395935	
-0.394775	
-0.394714	
-0.39502	
-0.394653	
-0.394836	
-0.395386	
-0.39325	
-0.39386	
-0.393311	
-0.393921	
-0.392578	
-0.393555	
-0.393005	
-0.39325	
-0.3927	
-0.393372	
-0.392517	
-0.393555	
-0.3927	
-0.392029	
-0.393372	
-0.393311	
-0.393433	
-0.393677	
-0.393921	
-0.393372	
-0.393066	
	
