E:\DOCUMENTS AND SETTINGS\JPOTAS\MEUS DOCUMENTOS\UFRJ\RSCI-BM 12 WK SERIES\070723-RSCI-BM-06\RSCI-BM-06-LEMG\070723-RSCI-BM-LEMG-0019.ACQ
0.025000 msec/sample
1 channel
Analog input
Volts
CH1	
2000	
-0.397705	
-0.397217	
-0.396545	
-0.398132	
-0.397949	
-0.39679	
-0.396667	
-0.396973	
-0.396301	
-0.396606	
-0.396667	
-0.395325	
-0.394714	
-0.392334	
-0.395813	
-0.395508	
-0.395264	
-0.396057	
-0.395569	
-0.395386	
-0.395996	
-0.395447	
-0.395752	
-0.394897	
-0.394897	
-0.395325	
-0.395569	
-0.395874	
-0.395813	
-0.395264	
-0.395691	
-0.395996	
-0.394897	
-0.394897	
-0.394409	
-0.395691	
-0.394958	
-0.395813	
-0.396423	
-0.396179	
-0.395935	
-0.397156	
-0.397827	
-0.396545	
-0.39563	
-0.39447	
-0.396667	
-0.397217	
-0.397034	
-0.3974	
-0.396729	
-0.396667	
-0.397461	
-0.397644	
-0.396973	
-0.395264	
-0.394775	
-0.396484	
-0.396118	
-0.395996	
-0.396545	
-0.395569	
-0.396118	
-0.395996	
-0.395508	
-0.395386	
-0.394592	
-0.394958	
-0.395325	
-0.395264	
-0.395386	
-0.396118	
-0.395203	
-0.395874	
-0.395691	
-0.395447	
-0.394958	
-0.394104	
-0.395081	
-0.395264	
-0.394958	
-0.395081	
-0.39502	
-0.394714	
-0.395874	
-0.39624	
-0.394775	
-0.394714	
-0.394226	
-0.394348	
-0.394226	
-0.394226	
-0.394043	
-0.393738	
-0.393738	
-0.394226	
-0.394714	
-0.393005	
-0.391479	
-0.391418	
-0.393494	
-0.392517	
-0.392761	
-0.393738	
-0.392395	
-0.392578	
-0.392639	
-0.3927	
-0.391968	
-0.389954	
-0.391418	
-0.392456	
-0.39209	
-0.392639	
-0.392273	
-0.392578	
-0.39386	
-0.393433	
-0.392883	
-0.392883	
-0.392517	
-0.393677	
-0.39386	
-0.394226	
-0.394592	
-0.39447	
-0.394653	
-0.396484	
-0.3974	
-0.395996	
-0.396545	
-0.396484	
-0.397583	
-0.398071	
-0.397583	
-0.398682	
-0.397461	
-0.397278	
-0.39856	
-0.398132	
-0.396667	
-0.395325	
-0.395996	
-0.396973	
-0.396362	
-0.396301	
-0.396851	
-0.395996	
-0.395935	
-0.395325	
-0.395935	
-0.395569	
-0.394226	
-0.394958	
-0.395081	
-0.394836	
-0.395203	
-0.394348	
-0.393494	
-0.393677	
-0.394165	
-0.392883	
-0.391968	
-0.391296	
-0.392517	
-0.392334	
-0.392151	
-0.392395	
-0.39209	
-0.392395	
-0.392822	
-0.393005	
-0.391968	
-0.390747	
-0.389404	
-0.391235	
-0.391541	
-0.391541	
-0.392029	
-0.391541	
-0.391785	
-0.393066	
-0.392029	
-0.391174	
-0.390198	
-0.391113	
-0.391846	
-0.391785	
-0.392151	
-0.392212	
-0.392456	
-0.393127	
-0.394775	
-0.392761	
-0.392334	
-0.390503	
-0.393555	
-0.390808	
-0.389954	
-0.390503	
-0.390869	
-0.391357	
-0.391479	
-0.396057	
-0.394653	
-0.394409	
-0.392273	
-0.394226	
-0.39447	
-0.394775	
-0.394897	
-0.394287	
-0.394836	
-0.395081	
-0.395142	
-0.394287	
-0.39447	
-0.392639	
-0.394348	
-0.394104	
-0.394897	
-0.394653	
-0.394714	
-0.394287	
-0.395569	
-0.393921	
-0.393066	
-0.392273	
-0.393127	
-0.393311	
-0.393127	
-0.394104	
-0.393555	
-0.393311	
-0.393616	
-0.39563	
-0.393555	
-0.393188	
-0.391907	
-0.393188	
-0.39325	
-0.39325	
-0.39386	
-0.393555	
-0.394226	
-0.394653	
-0.398438	
-0.39801	
-0.400574	
-0.401184	
-0.407104	
-0.410767	
-0.414673	
-0.419006	
-0.424011	
-0.429016	
-0.435608	
-0.439331	
-0.444763	
-0.448547	
-0.457214	
-0.465027	
-0.473267	
-0.483093	
-0.493591	
-0.507019	
-0.520081	
-0.53186	
-0.543274	
-0.552795	
-0.561401	
-0.569641	
-0.576843	
-0.583435	
-0.587952	
-0.592224	
-0.595764	
-0.600647	
-0.599243	
-0.598389	
-0.595215	
-0.596802	
-0.595764	
-0.594116	
-0.592651	
-0.591125	
-0.589294	
-0.589233	
-0.588623	
-0.587402	
-0.585876	
-0.584656	
-0.584351	
-0.582825	
-0.581909	
-0.579773	
-0.577759	
-0.574646	
-0.5755	
-0.570801	
-0.568359	
-0.563538	
-0.563354	
-0.561035	
-0.558228	
-0.55542	
-0.55188	
-0.547668	
-0.544189	
-0.539185	
-0.532349	
-0.525635	
-0.519531	
-0.513611	
-0.507629	
-0.502014	
-0.495911	
-0.490417	
-0.485657	
-0.483521	
-0.478699	
-0.475098	
-0.471497	
-0.468811	
-0.466919	
-0.4646	
-0.462341	
-0.459412	
-0.45636	
-0.453064	
-0.453613	
-0.44928	
-0.446777	
-0.441467	
-0.4422	
-0.440125	
-0.438782	
-0.436768	
-0.43457	
-0.431885	
-0.430359	
-0.428833	
-0.424683	
-0.420593	
-0.416443	
-0.412964	
-0.408203	
-0.403076	
-0.397034	
-0.39093	
-0.384827	
-0.37915	
-0.371399	
-0.363098	
-0.354919	
-0.345703	
-0.338013	
-0.328796	
-0.320068	
-0.309387	
-0.299377	
-0.288025	
-0.280884	
-0.27002	
-0.260498	
-0.25177	
-0.247925	
-0.242737	
-0.239624	
-0.237305	
-0.23645	
-0.236145	
-0.237671	
-0.238586	
-0.239197	
-0.24115	
-0.241577	
-0.245422	
-0.248169	
-0.25116	
-0.253418	
-0.256653	
-0.260376	
-0.26532	
-0.269348	
-0.273254	
-0.278687	
-0.284241	
-0.289429	
-0.295105	
-0.299561	
-0.304443	
-0.308655	
-0.313721	
-0.316589	
-0.318604	
-0.32135	
-0.324646	
-0.326721	
-0.328125	
-0.329529	
-0.330872	
-0.331726	
-0.333496	
-0.334106	
-0.334167	
-0.334351	
-0.335144	
-0.33667	
-0.338501	
-0.338623	
-0.338989	
-0.339905	
-0.341858	
-0.34375	
-0.343872	
-0.34436	
-0.345825	
-0.348755	
-0.350464	
-0.350525	
-0.3526	
-0.353394	
-0.356201	
-0.357239	
-0.357422	
-0.358093	
-0.360229	
-0.361694	
-0.36322	
-0.363831	
-0.365173	
-0.366028	
-0.367798	
-0.368896	
-0.367798	
-0.36731	
-0.368225	
-0.369629	
-0.370239	
-0.3703	
-0.370544	
-0.371277	
-0.372559	
-0.372314	
-0.371033	
-0.371033	
-0.371521	
-0.371155	
-0.371338	
-0.372314	
-0.37085	
-0.370911	
-0.369873	
-0.370544	
-0.371155	
-0.369568	
-0.369629	
-0.369202	
-0.369629	
-0.369507	
-0.368652	
-0.36853	
-0.367859	
-0.368774	
-0.368347	
-0.367554	
-0.366394	
-0.366333	
-0.367798	
-0.36853	
-0.368958	
-0.368652	
-0.36908	
-0.368164	
-0.369995	
-0.369202	
-0.369568	
-0.370239	
-0.3703	
-0.371155	
-0.371582	
-0.371155	
-0.372681	
-0.37207	
-0.372559	
-0.373291	
-0.373108	
-0.37262	
-0.373657	
-0.374329	
-0.374634	
-0.375244	
-0.376038	
-0.376221	
-0.377808	
-0.377441	
-0.376892	
-0.375916	
-0.37616	
-0.377869	
-0.377747	
-0.37793	
-0.378906	
-0.378479	
-0.3797	
-0.3797	
-0.378357	
-0.378113	
-0.378174	
-0.379395	
-0.379761	
-0.379944	
-0.3797	
-0.379517	
-0.3797	
-0.38031	
-0.379822	
-0.379883	
-0.379333	
-0.379944	
-0.380432	
-0.380554	
-0.380798	
-0.380066	
-0.380371	
-0.381042	
-0.380188	
-0.379822	
-0.379211	
-0.379639	
-0.379822	
-0.380676	
-0.3797	
-0.380493	
-0.378845	
-0.380371	
-0.379211	
-0.379028	
-0.377869	
-0.378784	
-0.379822	
-0.38092	
-0.380188	
-0.38031	
-0.379395	
-0.380615	
-0.380737	
-0.379456	
-0.379211	
-0.37915	
-0.380798	
-0.38092	
-0.380432	
-0.380371	
-0.381287	
-0.380798	
-0.383057	
-0.381287	
-0.381531	
-0.380005	
-0.38208	
-0.382568	
-0.383362	
-0.382385	
-0.383301	
-0.382202	
-0.383728	
-0.382385	
-0.382446	
-0.382019	
-0.383057	
-0.383362	
-0.383362	
-0.383667	
-0.38385	
-0.384094	
-0.383911	
-0.385193	
-0.383606	
-0.384949	
-0.382202	
-0.385132	
-0.38501	
-0.386597	
-0.385681	
-0.386169	
-0.384888	
-0.387939	
-0.385925	
-0.386047	
-0.385498	
-0.386536	
-0.38623	
-0.387207	
-0.387878	
-0.38739	
-0.387146	
-0.388306	
-0.387939	
-0.387268	
-0.387085	
-0.386719	
-0.387573	
-0.387756	
-0.387451	
-0.387024	
-0.387695	
-0.386902	
-0.387329	
-0.384155	
-0.38501	
-0.383545	
-0.384827	
-0.384827	
-0.385193	
-0.384521	
-0.38501	
-0.384338	
-0.386353	
-0.38446	
-0.384583	
-0.382813	
-0.385193	
-0.385864	
-0.386536	
-0.385498	
-0.386902	
-0.385986	
-0.387634	
-0.386536	
-0.387024	
-0.387207	
-0.387085	
-0.387756	
-0.388916	
-0.388672	
-0.389282	
-0.388794	
-0.389771	
-0.390442	
-0.390442	
-0.389893	
-0.390259	
-0.391663	
-0.392395	
-0.392578	
-0.392639	
-0.393982	
-0.393433	
-0.394531	
-0.392944	
-0.393982	
-0.392944	
-0.394348	
-0.394714	
-0.394714	
-0.39502	
-0.395203	
-0.39563	
-0.395874	
-0.394409	
-0.394226	
-0.392334	
-0.393555	
-0.393738	
-0.393738	
-0.392883	
-0.393188	
-0.392639	
-0.394287	
-0.39386	
-0.392517	
-0.391785	
-0.389954	
-0.392029	
-0.392212	
-0.391907	
-0.391541	
-0.391357	
-0.391724	
-0.391907	
-0.389832	
-0.390686	
-0.391052	
-0.391968	
-0.392273	
-0.391541	
-0.391602	
-0.392212	
-0.391296	
-0.39209	
-0.392212	
-0.39209	
-0.391052	
-0.389771	
-0.391846	
-0.392151	
-0.391479	
-0.391602	
-0.391296	
-0.392029	
-0.391907	
-0.391357	
-0.392151	
-0.392395	
-0.392578	
-0.393005	
-0.393005	
-0.392761	
-0.392883	
-0.393127	
-0.394348	
-0.395142	
-0.39325	
-0.392761	
-0.391846	
-0.393982	
-0.394531	
-0.393921	
-0.393494	
-0.392334	
-0.393311	
-0.394409	
-0.393066	
-0.393372	
-0.392395	
-0.393066	
-0.393127	
-0.392456	
-0.39209	
-0.393188	
-0.392822	
-0.393372	
-0.393188	
-0.392273	
-0.391846	
-0.391479	
-0.392578	
-0.39325	
-0.392517	
-0.392944	
-0.391724	
-0.393311	
-0.393372	
-0.392029	
-0.392212	
-0.391907	
-0.392639	
-0.392883	
-0.3927	
-0.392029	
-0.392639	
-0.392456	
-0.393188	
-0.39093	
-0.391846	
-0.389954	
-0.390686	
-0.39209	
-0.391357	
-0.390747	
-0.391968	
-0.39093	
-0.390808	
-0.391602	
-0.390808	
-0.390198	
-0.389282	
-0.390503	
-0.390869	
-0.389832	
-0.39032	
-0.389404	
-0.389771	
-0.390503	
-0.390015	
-0.389587	
-0.387817	
-0.390137	
-0.390381	
-0.390076	
-0.390625	
-0.390076	
-0.390381	
-0.391785	
-0.392578	
-0.391174	
-0.391174	
-0.390381	
-0.392334	
-0.392944	
-0.3927	
-0.394043	
-0.392944	
-0.394348	
-0.394775	
-0.39502	
-0.395447	
-0.393738	
-0.395386	
-0.396423	
-0.395935	
-0.395142	
-0.395081	
-0.395386	
-0.395386	
-0.396301	
-0.395203	
-0.394714	
-0.392334	
-0.39447	
-0.394775	
-0.394348	
-0.394653	
-0.393066	
-0.393738	
-0.394409	
-0.39325	
-0.393005	
-0.391357	
-0.393372	
-0.393921	
-0.392456	
-0.391846	
-0.391663	
-0.391724	
-0.391541	
-0.392151	
-0.39032	
-0.390625	
-0.388489	
-0.390198	
-0.390503	
-0.389709	
-0.390198	
-0.389221	
-0.389771	
-0.390686	
-0.389832	
-0.389771	
-0.388733	
-0.39032	
-0.390015	
-0.390198	
-0.39032	
-0.389648	
-0.389648	
-0.390076	
-0.390808	
-0.389954	
-0.389893	
-0.388672	
-0.390991	
-0.391418	
-0.39032	
-0.390869	
-0.390198	
-0.390808	
-0.391602	
-0.390991	
-0.391174	
-0.390381	
-0.392212	
-0.392822	
-0.3927	
-0.392395	
-0.391846	
-0.392578	
-0.392883	
-0.393738	
-0.392273	
-0.392151	
-0.391602	
-0.393494	
-0.393494	
-0.392639	
-0.394165	
-0.392395	
-0.393066	
-0.393494	
-0.392761	
-0.39325	
-0.392578	
-0.39325	
-0.393982	
-0.393677	
-0.394165	
-0.393372	
-0.393188	
-0.393066	
-0.393188	
-0.392029	
-0.391785	
-0.391296	
-0.392395	
-0.392578	
-0.391968	
-0.393127	
-0.392151	
-0.392334	
-0.392639	
-0.392944	
-0.392395	
-0.391174	
-0.39093	
-0.393005	
-0.392273	
-0.392334	
-0.391418	
-0.392456	
-0.393066	
-0.392334	
-0.392029	
-0.391602	
-0.390015	
-0.391479	
-0.391113	
-0.391174	
-0.391113	
-0.390747	
-0.390991	
-0.391846	
-0.391479	
-0.390503	
-0.390137	
-0.389832	
-0.391479	
-0.390625	
-0.390198	
-0.390015	
-0.390869	
-0.390686	
-0.389893	
-0.390442	
-0.39032	
-0.388733	
-0.390503	
-0.390869	
-0.391602	
-0.391479	
-0.391846	
-0.393005	
-0.393555	
-0.393799	
-0.393738	
-0.393677	
-0.393372	
-0.394958	
-0.394836	
-0.395264	
-0.394714	
-0.394165	
-0.395264	
-0.396057	
-0.394165	
-0.393921	
-0.392456	
-0.393921	
-0.394287	
-0.394348	
-0.393372	
-0.393188	
-0.393311	
-0.393555	
-0.391846	
-0.392029	
-0.391907	
-0.391235	
-0.392334	
-0.391296	
-0.390808	
-0.390259	
-0.390137	
-0.390198	
-0.39093	
-0.389465	
-0.389343	
-0.388306	
-0.388245	
-0.388794	
-0.387817	
-0.387451	
-0.387146	
-0.387329	
-0.387024	
-0.387451	
-0.387573	
-0.386658	
-0.384949	
-0.386719	
-0.386841	
-0.386658	
-0.386841	
-0.386841	
-0.38739	
-0.388367	
-0.387756	
-0.388367	
-0.387207	
-0.388489	
-0.389587	
-0.388977	
-0.388977	
-0.388977	
-0.389099	
-0.389832	
-0.391296	
-0.390564	
-0.390076	
-0.389343	
-0.391113	
-0.390686	
-0.390503	
-0.390503	
-0.390686	
-0.39093	
-0.391785	
-0.390747	
-0.390808	
-0.390259	
-0.390564	
-0.390625	
-0.390808	
-0.390747	
-0.391663	
-0.390808	
-0.391418	
-0.391663	
-0.390747	
-0.390503	
-0.389465	
-0.390991	
-0.391541	
-0.390198	
-0.390808	
-0.390564	
-0.39093	
-0.391846	
-0.391235	
-0.390625	
-0.390137	
-0.390076	
-0.390442	
-0.390381	
-0.390137	
-0.390137	
-0.389404	
-0.389526	
-0.390808	
-0.389587	
-0.389587	
-0.388062	
-0.390015	
-0.390991	
-0.39032	
-0.390381	
-0.390747	
-0.39032	
-0.391296	
-0.389893	
-0.390747	
-0.390259	
-0.390503	
-0.391479	
-0.391235	
-0.390808	
-0.391541	
-0.390198	
-0.391357	
-0.392395	
-0.390991	
-0.390808	
-0.38916	
-0.39032	
-0.39093	
-0.390686	
-0.391052	
-0.391846	
-0.391418	
-0.392395	
-0.391357	
-0.391235	
-0.390442	
-0.390686	
-0.391541	
-0.391968	
-0.391541	
-0.391846	
-0.391785	
-0.392395	
-0.393982	
-0.392578	
-0.392883	
-0.391235	
-0.393188	
-0.393433	
-0.393311	
-0.393311	
-0.393921	
-0.393494	
-0.394348	
-0.394653	
-0.393982	
-0.393982	
-0.391418	
-0.39447	
-0.394714	
-0.394165	
-0.393921	
-0.394165	
-0.394104	
-0.395691	
-0.39325	
-0.393921	
-0.392639	
-0.39447	
-0.394165	
-0.393677	
-0.393188	
-0.393494	
-0.391846	
-0.393066	
-0.393921	
-0.391846	
-0.391846	
-0.390503	
-0.391174	
-0.390503	
-0.390991	
-0.390076	
-0.390198	
-0.389526	
-0.390198	
-0.38855	
-0.388916	
-0.38855	
-0.389282	
-0.388916	
-0.389771	
-0.389343	
-0.390198	
-0.388977	
-0.389893	
-0.392151	
-0.390259	
-0.390259	
-0.389221	
-0.390442	
-0.391174	
-0.391296	
-0.390869	
-0.39093	
-0.390747	
-0.392456	
-0.392029	
-0.392578	
-0.391846	
-0.391602	
-0.393188	
-0.393921	
-0.394043	
-0.39386	
-0.394714	
-0.39447	
-0.395752	
-0.392822	
-0.394287	
-0.393311	
-0.394531	
-0.395081	
-0.395935	
-0.395264	
-0.395508	
-0.39386	
-0.395386	
-0.395325	
-0.394958	
-0.394409	
-0.393494	
-0.394775	
-0.39502	
-0.394775	
-0.394836	
-0.396423	
-0.395203	
-0.396851	
-0.394226	
-0.394104	
-0.393372	
-0.394348	
-0.394714	
-0.39502	
-0.394226	
-0.394104	
-0.393433	
-0.393921	
-0.394104	
-0.392822	
-0.392334	
-0.391296	
-0.3927	
-0.392395	
-0.3927	
-0.392578	
-0.392517	
-0.391724	
-0.394043	
-0.391846	
-0.391846	
-0.390259	
-0.391663	
-0.391785	
-0.392395	
-0.391907	
-0.39209	
-0.392639	
-0.392273	
-0.393616	
-0.390381	
-0.391296	
-0.391235	
-0.391785	
-0.392395	
-0.393372	
-0.392761	
-0.393127	
-0.391724	
-0.394226	
-0.393188	
-0.392822	
-0.392029	
-0.392395	
-0.392944	
-0.393066	
-0.392883	
-0.393005	
-0.393372	
-0.393127	
-0.393799	
-0.392273	
-0.393127	
-0.391907	
-0.393127	
-0.393433	
-0.394043	
-0.393433	
-0.392883	
-0.393127	
-0.394287	
-0.395142	
-0.393616	
-0.393433	
-0.393433	
-0.394592	
-0.395081	
-0.394714	
-0.394653	
-0.394958	
-0.394043	
-0.396301	
-0.394592	
-0.394592	
-0.394043	
-0.393982	
-0.39502	
-0.395386	
-0.394653	
-0.395081	
-0.395081	
-0.394897	
-0.394836	
-0.393188	
-0.393738	
-0.392029	
-0.393188	
-0.392944	
-0.392883	
-0.39209	
-0.391785	
-0.390198	
-0.391907	
-0.392334	
-0.390686	
-0.390137	
-0.390442	
-0.391235	
-0.39093	
-0.39093	
-0.391296	
-0.391785	
-0.390991	
-0.392639	
-0.391296	
-0.391418	
-0.390686	
-0.391479	
-0.392761	
-0.392883	
-0.393311	
-0.393494	
-0.392761	
-0.393982	
-0.394348	
-0.394348	
-0.394409	
-0.394775	
-0.395996	
-0.39563	
-0.396606	
-0.396362	
-0.396973	
-0.396118	
-0.398926	
-0.398376	
-0.397156	
-0.397095	
-0.397095	
-0.398499	
-0.398926	
-0.399048	
-0.399048	
-0.398743	
-0.398865	
-0.400024	
-0.39856	
-0.39917	
-0.397827	
-0.398621	
-0.398438	
-0.398499	
-0.397949	
-0.398315	
-0.397461	
-0.398193	
-0.397339	
-0.39679	
-0.396179	
-0.39563	
-0.395935	
-0.39563	
-0.396606	
-0.395508	
-0.39563	
-0.39386	
-0.395203	
-0.394958	
-0.394897	
-0.392944	
-0.393677	
-0.395264	
-0.395264	
-0.394775	
-0.394836	
-0.394226	
-0.39502	
-0.395203	
-0.394897	
-0.394348	
-0.394897	
-0.394653	
-0.394653	
-0.39563	
-0.394775	
-0.394409	
-0.394165	
-0.395447	
-0.394592	
-0.394653	
-0.394897	
-0.394653	
-0.395264	
-0.395386	
-0.395386	
-0.396667	
-0.396118	
-0.395081	
-0.396606	
-0.396179	
-0.396179	
-0.395264	
-0.394958	
-0.396729	
-0.396667	
-0.396362	
-0.397217	
-0.39624	
-0.39624	
-0.395996	
-0.39563	
-0.395508	
-0.394836	
-0.39563	
-0.395752	
-0.396301	
-0.39502	
-0.394043	
-0.393677	
-0.395691	
-0.395813	
-0.394958	
-0.39447	
-0.394836	
-0.395142	
-0.39502	
-0.394775	
-0.395264	
-0.395264	
-0.395508	
-0.395813	
-0.395752	
-0.394775	
-0.393616	
-0.393555	
-0.394714	
-0.394836	
-0.39447	
-0.394287	
-0.393982	
-0.394653	
-0.394531	
-0.394287	
-0.393555	
-0.393494	
-0.393616	
-0.393921	
-0.393066	
-0.393677	
-0.393066	
-0.392822	
-0.393738	
-0.393616	
-0.392822	
-0.391663	
-0.391479	
-0.39209	
-0.392883	
-0.39209	
-0.391846	
-0.391235	
-0.391968	
-0.391663	
-0.39209	
-0.391418	
-0.39093	
-0.390625	
-0.391846	
-0.391602	
-0.392578	
-0.392029	
-0.392151	
-0.393433	
-0.393188	
-0.392822	
-0.3927	
-0.393066	
-0.393555	
-0.394409	
-0.394104	
-0.395081	
-0.394409	
-0.395325	
-0.396362	
-0.397278	
-0.396606	
-0.394531	
-0.396179	
-0.397888	
-0.39801	
-0.397095	
-0.396545	
-0.39624	
-0.397156	
-0.39679	
-0.396423	
-0.395996	
-0.396118	
-0.396057	
-0.395935	
-0.395691	
-0.395935	
-0.395142	
-0.39502	
-0.396606	
-0.39563	
-0.394775	
-0.39386	
-0.394897	
-0.394531	
-0.394836	
-0.393799	
-0.394287	
-0.392212	
-0.392761	
-0.392395	
-0.392456	
-0.391785	
-0.391052	
-0.391052	
-0.391663	
-0.391846	
-0.391663	
-0.391296	
-0.391602	
-0.392334	
-0.391479	
-0.390991	
-0.390198	
-0.390564	
-0.391174	
-0.391907	
-0.391296	
-0.391479	
-0.390686	
-0.391418	
-0.392273	
-0.391296	
-0.391052	
-0.389648	
-0.390564	
-0.391663	
-0.392395	
-0.391785	
-0.392822	
-0.391479	
-0.392822	
-0.391907	
-0.392334	
-0.392578	
-0.392578	
-0.392883	
-0.393005	
-0.39325	
-0.393555	
-0.393616	
-0.39325	
-0.395081	
-0.393555	
-0.393799	
-0.393188	
-0.393311	
-0.394226	
-0.394775	
-0.394165	
-0.394714	
-0.393433	
-0.394348	
-0.394653	
-0.394592	
-0.394287	
-0.393005	
-0.394653	
-0.39447	
-0.394775	
-0.394226	
-0.394836	
-0.393311	
-0.39502	
-0.394104	
-0.393188	
-0.393005	
-0.39209	
-0.393188	
-0.393311	
-0.393066	
-0.392761	
-0.393433	
-0.393494	
-0.395508	
-0.391907	
-0.392883	
-0.391479	
-0.392944	
-0.393494	
-0.394165	
-0.393555	
-0.393616	
-0.3927	
-0.3927	
-0.393127	
-0.392517	
-0.392212	
-0.391663	
-0.392151	
-0.392761	
-0.392151	
-0.391785	
-0.3927	
-0.391418	
-0.391968	
-0.391479	
-0.391418	
-0.391235	
-0.390503	
-0.391479	
-0.392334	
-0.391785	
-0.391235	
-0.391113	
-0.391357	
-0.3927	
-0.390625	
-0.391052	
-0.388977	
-0.391602	
-0.391846	
-0.3927	
-0.392334	
-0.393433	
-0.393005	
-0.394531	
-0.394531	
-0.394836	
-0.395203	
-0.394653	
-0.395081	
-0.395996	
-0.395569	
-0.395508	
-0.395691	
-0.395996	
-0.397095	
-0.394165	
-0.394714	
-0.394104	
-0.394043	
-0.394531	
-0.394836	
-0.393921	
-0.394287	
-0.393433	
-0.393738	
-0.394104	
-0.393066	
-0.392761	
-0.391113	
-0.392273	
-0.391968	
-0.392334	
-0.391724	
-0.391541	
-0.390015	
-0.391724	
-0.390808	
-0.389709	
-0.389221	
-0.388245	
-0.388306	
-0.388794	
-0.388367	
-0.388184	
-0.387268	
-0.387756	
-0.388733	
-0.387512	
-0.387085	
-0.385681	
-0.386475	
-0.387268	
-0.387878	
-0.387268	
-0.388245	
-0.387756	
-0.388672	
-0.388916	
-0.389221	
-0.389038	
-0.387207	
-0.389099	
-0.389709	
-0.390564	
-0.389954	
-0.390015	
-0.390137	
-0.392029	
-0.391174	
-0.391113	
-0.390808	
-0.39093	
-0.391357	
-0.391235	
-0.390869	
-0.391296	
-0.391113	
-0.391479	
-0.392212	
-0.391785	
-0.391418	
-0.390137	
-0.390503	
-0.391479	
-0.392395	
-0.391357	
-0.3927	
-0.390076	
-0.392029	
-0.391541	
-0.391296	
-0.390991	
-0.390625	
-0.391296	
-0.391846	
-0.391602	
-0.391357	
-0.391052	
-0.391846	
-0.39325	
-0.391785	
-0.391296	
-0.390198	
-0.390076	
-0.390137	
-0.391174	
-0.390503	
-0.390198	
-0.389343	
-0.390137	
-0.391052	
-0.390442	
-0.390381	
-0.388977	
-0.39093	
-0.390991	
-0.391541	
-0.391357	
-0.391479	
-0.39032	
-0.391663	
-0.390808	
-0.391602	
-0.390991	
-0.391296	
-0.391541	
-0.391724	
-0.391357	
-0.391479	
-0.390747	
-0.391174	
-0.393311	
-0.392029	
-0.391602	
-0.390137	
-0.390808	
-0.391968	
-0.391663	
-0.391296	
-0.392151	
-0.391479	
-0.392029	
-0.392395	
-0.391968	
-0.391785	
-0.390991	
-0.391907	
-0.391846	
-0.392944	
-0.392151	
-0.392883	
-0.392395	
-0.394409	
-0.393372	
-0.392944	
-0.393127	
-0.393066	
-0.393677	
-0.394287	
-0.394043	
-0.394287	
-0.394531	
-0.393982	
-0.39563	
-0.394287	
-0.394287	
-0.3927	
-0.394226	
-0.394409	
-0.394653	
-0.394531	
-0.394714	
-0.394592	
-0.394775	
-0.39502	
-0.394165	
-0.393555	
-0.393555	
-0.393738	
-0.393066	
-0.394226	
-0.393494	
-0.393311	
-0.391602	
-0.39447	
-0.392151	
-0.392029	
-0.390564	
-0.390503	
-0.390442	
-0.390198	
-0.390137	
-0.389954	
-0.389282	
-0.389465	
-0.390076	
-0.388611	
-0.388977	
-0.388245	
-0.389526	
-0.389526	
-0.389954	
-0.389709	
-0.390137	
-0.390442	
-0.391479	
-0.39093	
-0.390991	
-0.390686	
-0.390625	
-0.390747	
-0.391907	
-0.392334	
-0.391235	
-0.392578	
-0.391357	
-0.394104	
-0.392456	
-0.392761	
-0.39209	
-0.392334	
-0.393616	
-0.394104	
-0.39447	
-0.394531	
-0.394226	
-0.394775	
-0.39502	
-0.394043	
-0.394287	
-0.394409	
-0.395386	
-0.39502	
-0.395691	
-0.394836	
-0.39502	
-0.394592	
-0.396545	
-0.395569	
-0.394714	
-0.393677	
-0.394348	
-0.39447	
-0.395203	
-0.395142	
-0.394409	
-0.395691	
-0.394348	
-0.395874	
-0.395142	
-0.394531	
-0.393494	
-0.393066	
-0.394287	
-0.394043	
-0.393066	
-0.393738	
-0.393555	
-0.394104	
-0.392944	
-0.391785	
-0.391357	
-0.391846	
-0.392517	
-0.392822	
-0.392883	
-0.39209	
-0.392517	
-0.392029	
-0.392639	
-0.392578	
-0.391541	
-0.391235	
-0.391785	
-0.392456	
-0.39209	
-0.392212	
-0.392273	
-0.392395	
-0.391968	
-0.392151	
-0.391052	
-0.392273	
-0.391296	
-0.391724	
-0.3927	
-0.393066	
-0.393066	
-0.393127	
-0.392761	
-0.394226	
-0.393066	
-0.392761	
-0.391296	
-0.392456	
-0.392944	
-0.392944	
-0.393555	
-0.392883	
-0.393494	
-0.393127	
-0.393127	
-0.392761	
-0.392395	
-0.392395	
-0.392761	
-0.393372	
-0.393372	
-0.394165	
-0.393616	
-0.393921	
-0.393616	
-0.394287	
-0.393372	
-0.393433	
-0.394043	
-0.393921	
-0.394409	
-0.394104	
-0.39386	
-0.394958	
-0.394775	
-0.396118	
-0.394714	
-0.39447	
-0.393311	
-0.394348	
-0.393982	
-0.394531	
-0.395508	
-0.394287	
-0.395264	
-0.393982	
-0.394165	
-0.393921	
-0.392761	
-0.391113	
-0.391113	
-0.391846	
-0.391663	
-0.391846	
-0.390808	
-0.390808	
-0.390259	
-0.390747	
-0.389832	
-0.390381	
-0.390747	
-0.389893	
-0.39093	
-0.391357	
-0.391235	
-0.391296	
-0.391296	
-0.393127	
-0.392273	
-0.391541	
-0.391113	
-0.392273	
-0.392578	
-0.392883	
-0.394348	
-0.39325	
-0.394714	
-0.394653	
-0.39502	
-0.394592	
-0.394531	
-0.393921	
-0.394836	
-0.396118	
-0.39624	
-0.396667	
-0.397278	
-0.398254	
-0.397095	
-0.397888	
-0.397339	
-0.397644	
-0.397888	
-0.398193	
-0.398743	
-0.399231	
-0.398193	
-0.399109	
-0.398743	
-0.399902	
-0.398743	
-0.397766	
-0.397156	
-0.397522	
-0.396667	
-0.397034	
	
