E:\DOCUMENTS AND SETTINGS\JPOTAS\MEUS DOCUMENTOS\UFRJ\RSCI-BM 12 WK SERIES\070723-RSCI-BM-06\RSCI-BM-06-LEMG\070723-RSCI-BM-LEMG-0010.ACQ
0.025000 msec/sample
1 channel
Analog input
Volts
CH1	
2000	
-0.399231	
-0.399292	
-0.397705	
-0.39856	
-0.397156	
-0.3974	
-0.397034	
-0.397156	
-0.396362	
-0.396912	
-0.396545	
-0.396606	
-0.396729	
-0.395752	
-0.397461	
-0.396729	
-0.397034	
-0.395874	
-0.395996	
-0.394775	
-0.396362	
-0.397095	
-0.397156	
-0.397339	
-0.396362	
-0.397156	
-0.396301	
-0.397034	
-0.396606	
-0.396545	
-0.394043	
-0.39624	
-0.396851	
-0.396423	
-0.396912	
-0.395386	
-0.39679	
-0.395569	
-0.396667	
-0.396118	
-0.395142	
-0.393677	
-0.395386	
-0.396057	
-0.394897	
-0.39563	
-0.394897	
-0.394958	
-0.393799	
-0.396423	
-0.39447	
-0.394165	
-0.393494	
-0.394653	
-0.395325	
-0.394714	
-0.395203	
-0.394226	
-0.394653	
-0.394775	
-0.396362	
-0.394897	
-0.395081	
-0.394409	
-0.395569	
-0.396301	
-0.396179	
-0.396851	
-0.396851	
-0.397705	
-0.397522	
-0.398499	
-0.397156	
-0.397827	
-0.397278	
-0.397888	
-0.398743	
-0.397766	
-0.397888	
-0.396912	
-0.398071	
-0.397339	
-0.398438	
-0.39679	
-0.396667	
-0.396179	
-0.396179	
-0.396851	
-0.396301	
-0.396301	
-0.395752	
-0.395691	
-0.395203	
-0.39679	
-0.395508	
-0.395203	
-0.394714	
-0.395081	
-0.395935	
-0.395325	
-0.39563	
-0.394592	
-0.395081	
-0.39563	
-0.396606	
-0.395264	
-0.39447	
-0.395203	
-0.395325	
-0.39624	
-0.395264	
-0.395752	
-0.395752	
-0.395874	
-0.395203	
-0.395142	
-0.395081	
-0.393677	
-0.394348	
-0.393311	
-0.395081	
-0.394165	
-0.394348	
-0.394287	
-0.394653	
-0.394897	
-0.394409	
-0.394775	
-0.393555	
-0.394287	
-0.393677	
-0.394714	
-0.394226	
-0.394653	
-0.396362	
-0.395447	
-0.395996	
-0.395447	
-0.395142	
-0.394409	
-0.394775	
-0.394165	
-0.395264	
-0.394897	
-0.39502	
-0.395691	
-0.394958	
-0.395691	
-0.394653	
-0.395203	
-0.394165	
-0.394592	
-0.394653	
-0.395142	
-0.394714	
-0.394653	
-0.395813	
-0.394348	
-0.395874	
-0.395508	
-0.395447	
-0.394043	
-0.394287	
-0.39502	
-0.394958	
-0.394043	
-0.39386	
-0.394043	
-0.393311	
-0.394836	
-0.394409	
-0.394653	
-0.393677	
-0.394287	
-0.394897	
-0.395508	
-0.395813	
-0.395447	
-0.396606	
-0.395142	
-0.396545	
-0.396057	
-0.395996	
-0.395325	
-0.396118	
-0.395874	
-0.396423	
-0.39624	
-0.395996	
-0.396545	
-0.395508	
-0.395996	
-0.39563	
-0.395874	
-0.395203	
-0.395386	
-0.394958	
-0.39209	
-0.391846	
-0.391785	
-0.391968	
-0.39093	
-0.392334	
-0.395081	
-0.396179	
-0.395935	
-0.395386	
-0.394165	
-0.39502	
-0.39679	
-0.395264	
-0.395813	
-0.395203	
-0.396484	
-0.39624	
-0.396729	
-0.395691	
-0.395935	
-0.394714	
-0.395874	
-0.396973	
-0.396179	
-0.396362	
-0.395386	
-0.39624	
-0.396179	
-0.396667	
-0.395447	
-0.395142	
-0.394043	
-0.394531	
-0.396118	
-0.394653	
-0.394287	
-0.393433	
-0.394348	
-0.393799	
-0.394043	
-0.393677	
-0.394165	
-0.393555	
-0.392761	
-0.39447	
-0.394958	
-0.395264	
-0.394958	
-0.397705	
-0.399536	
-0.401855	
-0.404602	
-0.407837	
-0.410645	
-0.415894	
-0.421265	
-0.425964	
-0.430603	
-0.434387	
-0.437256	
-0.441345	
-0.447205	
-0.452271	
-0.460144	
-0.467407	
-0.480042	
-0.490356	
-0.502258	
-0.515564	
-0.527954	
-0.539063	
-0.549194	
-0.558838	
-0.566223	
-0.572266	
-0.578308	
-0.584778	
-0.587463	
-0.590576	
-0.592712	
-0.593262	
-0.591614	
-0.59021	
-0.588501	
-0.585815	
-0.58374	
-0.580872	
-0.580505	
-0.577637	
-0.576355	
-0.574646	
-0.573975	
-0.571838	
-0.570984	
-0.569336	
-0.567627	
-0.565247	
-0.563477	
-0.56366	
-0.561218	
-0.560181	
-0.557495	
-0.556702	
-0.55365	
-0.552002	
-0.549133	
-0.546814	
-0.543396	
-0.540955	
-0.538818	
-0.534424	
-0.529236	
-0.522217	
-0.5177	
-0.511047	
-0.505737	
-0.499573	
-0.495056	
-0.489319	
-0.486511	
-0.484375	
-0.480896	
-0.479187	
-0.476257	
-0.476807	
-0.474854	
-0.474304	
-0.471802	
-0.47113	
-0.469177	
-0.469421	
-0.468933	
-0.466858	
-0.466492	
-0.465698	
-0.465942	
-0.465454	
-0.466431	
-0.465698	
-0.466858	
-0.466492	
-0.46814	
-0.468262	
-0.467163	
-0.468079	
-0.465332	
-0.464905	
-0.46167	
-0.460327	
-0.455872	
-0.453796	
-0.449768	
-0.446655	
-0.442871	
-0.437805	
-0.432251	
-0.422974	
-0.418213	
-0.409119	
-0.400757	
-0.389648	
-0.380493	
-0.369629	
-0.359741	
-0.352478	
-0.344299	
-0.337463	
-0.330933	
-0.327576	
-0.323364	
-0.321899	
-0.320557	
-0.322021	
-0.322754	
-0.325195	
-0.32843	
-0.331055	
-0.334106	
-0.335388	
-0.338928	
-0.341492	
-0.344604	
-0.348083	
-0.351379	
-0.35553	
-0.360657	
-0.364075	
-0.368469	
-0.374268	
-0.38031	
-0.383911	
-0.38916	
-0.394287	
-0.398621	
-0.403198	
-0.407349	
-0.412598	
-0.415588	
-0.419983	
-0.42218	
-0.427063	
-0.430603	
-0.43457	
-0.435486	
-0.43866	
-0.440308	
-0.442139	
-0.443665	
-0.444519	
-0.445435	
-0.445251	
-0.445313	
-0.445374	
-0.445068	
-0.444641	
-0.444519	
-0.44342	
-0.444702	
-0.443848	
-0.443542	
-0.443481	
-0.442322	
-0.441406	
-0.441162	
-0.441284	
-0.440186	
-0.439453	
-0.437378	
-0.437927	
-0.435608	
-0.434448	
-0.432861	
-0.430664	
-0.426514	
-0.423584	
-0.420044	
-0.414673	
-0.408936	
-0.401978	
-0.397705	
-0.390198	
-0.382813	
-0.375854	
-0.369202	
-0.360352	
-0.3526	
-0.345337	
-0.338562	
-0.331543	
-0.32489	
-0.321472	
-0.315979	
-0.311768	
-0.309448	
-0.306152	
-0.303162	
-0.300598	
-0.299133	
-0.298401	
-0.297119	
-0.295776	
-0.295898	
-0.295044	
-0.295349	
-0.294495	
-0.294678	
-0.294373	
-0.294312	
-0.295593	
-0.295288	
-0.295532	
-0.296631	
-0.298401	
-0.30072	
-0.303162	
-0.305908	
-0.307495	
-0.309692	
-0.312805	
-0.315857	
-0.318542	
-0.321472	
-0.325073	
-0.327698	
-0.329895	
-0.332642	
-0.334656	
-0.336731	
-0.338806	
-0.340515	
-0.341187	
-0.341614	
-0.34375	
-0.344849	
-0.346436	
-0.347412	
-0.348755	
-0.348877	
-0.349487	
-0.349365	
-0.350952	
-0.351868	
-0.352417	
-0.352783	
-0.353699	
-0.354004	
-0.354492	
-0.355835	
-0.355896	
-0.357056	
-0.357422	
-0.357788	
-0.358765	
-0.360596	
-0.361633	
-0.362366	
-0.364502	
-0.365112	
-0.366089	
-0.367065	
-0.367249	
-0.369263	
-0.369812	
-0.371094	
-0.370972	
-0.37207	
-0.372498	
-0.373047	
-0.374268	
-0.374451	
-0.37384	
-0.375549	
-0.375793	
-0.375549	
-0.376221	
-0.375732	
-0.377136	
-0.37738	
-0.377686	
-0.377136	
-0.377075	
-0.376648	
-0.377808	
-0.377502	
-0.376343	
-0.378113	
-0.377747	
-0.377625	
-0.377991	
-0.37793	
-0.377686	
-0.378113	
-0.378418	
-0.379211	
-0.378723	
-0.378906	
-0.37915	
-0.379272	
-0.379822	
-0.380981	
-0.380615	
-0.38031	
-0.381653	
-0.382202	
-0.381836	
-0.38208	
-0.383118	
-0.384399	
-0.384827	
-0.385498	
-0.385864	
-0.38623	
-0.387024	
-0.386169	
-0.387024	
-0.386719	
-0.387024	
-0.387146	
-0.387085	
-0.387756	
-0.388733	
-0.387573	
-0.388062	
-0.387939	
-0.388306	
-0.389526	
-0.388855	
-0.388367	
-0.388	
-0.389221	
-0.389893	
-0.388245	
-0.388489	
-0.388428	
-0.389038	
-0.388489	
-0.388733	
-0.388489	
-0.389709	
-0.389038	
-0.389343	
-0.388	
-0.388062	
-0.388123	
-0.387329	
-0.38739	
-0.387939	
-0.38678	
-0.386963	
-0.387268	
-0.387878	
-0.386597	
-0.387573	
-0.386536	
-0.386536	
-0.386292	
-0.386353	
-0.387085	
-0.385803	
-0.387268	
-0.385864	
-0.387024	
-0.386108	
-0.387451	
-0.386841	
-0.388367	
-0.388672	
-0.389099	
-0.389404	
-0.389832	
-0.389404	
-0.390198	
-0.389832	
-0.391479	
-0.390747	
-0.390503	
-0.39093	
-0.391785	
-0.392578	
-0.390259	
-0.392395	
-0.391846	
-0.393311	
-0.391602	
-0.392212	
-0.391174	
-0.392639	
-0.3927	
-0.393494	
-0.394043	
-0.393066	
-0.393188	
-0.393433	
-0.393127	
-0.393738	
-0.393555	
-0.393616	
-0.393738	
-0.393127	
-0.393311	
-0.393616	
-0.393311	
-0.3927	
-0.393005	
-0.392761	
-0.393616	
-0.392761	
-0.392883	
-0.393066	
-0.392578	
-0.392456	
-0.393127	
-0.39325	
-0.391479	
-0.391907	
-0.391846	
-0.39209	
-0.390869	
-0.391235	
-0.390747	
-0.391785	
-0.391541	
-0.390747	
-0.392029	
-0.391418	
-0.39093	
-0.391418	
-0.391663	
-0.391113	
-0.391357	
-0.391968	
-0.392334	
-0.392029	
-0.391724	
-0.392639	
-0.3927	
-0.391663	
-0.391418	
-0.39209	
-0.392273	
-0.392029	
-0.39209	
-0.391785	
-0.392151	
-0.391602	
-0.391846	
-0.392273	
-0.391602	
-0.391724	
-0.391968	
-0.391907	
-0.392334	
-0.391846	
-0.391357	
-0.390869	
-0.391724	
-0.391113	
-0.391479	
-0.391235	
-0.391357	
-0.391052	
-0.391724	
-0.390503	
-0.391052	
-0.391113	
-0.391602	
-0.392395	
-0.391541	
-0.390381	
-0.391479	
-0.39209	
-0.391663	
-0.393066	
-0.392456	
-0.392639	
-0.392578	
-0.393372	
-0.393311	
-0.394531	
-0.394043	
-0.394714	
-0.394226	
-0.395081	
-0.394653	
-0.394409	
-0.394897	
-0.395569	
-0.395386	
-0.394531	
-0.394714	
-0.394287	
-0.394714	
-0.392944	
-0.394409	
-0.392578	
-0.392944	
-0.392883	
-0.393921	
-0.393677	
-0.392395	
-0.391479	
-0.391968	
-0.392273	
-0.393005	
-0.392883	
-0.3927	
-0.392395	
-0.39209	
-0.393005	
-0.392578	
-0.39325	
-0.392334	
-0.393127	
-0.3927	
-0.392944	
-0.3927	
-0.392761	
-0.393494	
-0.393677	
-0.393433	
-0.393127	
-0.393799	
-0.393127	
-0.393616	
-0.391602	
-0.393066	
-0.392517	
-0.39209	
-0.391663	
-0.392273	
-0.392944	
-0.392151	
-0.39209	
-0.391724	
-0.393005	
-0.391418	
-0.393005	
-0.391968	
-0.392517	
-0.391846	
-0.393433	
-0.392944	
-0.392761	
-0.392761	
-0.392212	
-0.393738	
-0.392944	
-0.3927	
-0.392944	
-0.392944	
-0.392639	
-0.394714	
-0.393677	
-0.393127	
-0.3927	
-0.391846	
-0.392761	
-0.393005	
-0.393005	
-0.392029	
-0.393066	
-0.392944	
-0.393738	
-0.393494	
-0.394287	
-0.391907	
-0.391846	
-0.392883	
-0.393616	
-0.3927	
-0.391907	
-0.392944	
-0.393799	
-0.393616	
-0.392456	
-0.393433	
-0.390564	
-0.391357	
-0.391113	
-0.392761	
-0.391663	
-0.392334	
-0.392456	
-0.393188	
-0.393799	
-0.394287	
-0.393799	
-0.392273	
-0.394287	
-0.393311	
-0.394043	
-0.393921	
-0.394287	
-0.393311	
-0.394592	
-0.395142	
-0.394653	
-0.394653	
-0.393921	
-0.394714	
-0.394348	
-0.394104	
-0.393433	
-0.393677	
-0.393738	
-0.394409	
-0.394775	
-0.393921	
-0.393127	
-0.392761	
-0.393677	
-0.39386	
-0.39325	
-0.392212	
-0.393188	
-0.393799	
-0.394287	
-0.394104	
-0.394287	
-0.393921	
-0.393188	
-0.393677	
-0.39502	
-0.394165	
-0.394043	
-0.394043	
-0.394897	
-0.394836	
-0.394287	
-0.395081	
-0.394348	
-0.393982	
-0.394104	
-0.39502	
-0.393372	
-0.393433	
-0.393188	
-0.393738	
-0.393921	
-0.393677	
-0.393372	
-0.39209	
-0.392639	
-0.391296	
-0.392395	
-0.391846	
-0.391907	
-0.391174	
-0.392334	
-0.393677	
-0.393005	
-0.392151	
-0.392273	
-0.393005	
-0.39209	
-0.392395	
-0.391663	
-0.392395	
-0.390747	
-0.392151	
-0.39447	
-0.393127	
-0.392517	
-0.392639	
-0.393005	
-0.392517	
-0.393005	
-0.392456	
-0.392395	
-0.391663	
-0.392822	
-0.394836	
-0.393433	
-0.393127	
-0.392883	
-0.393738	
-0.39386	
-0.393799	
-0.393555	
-0.393799	
-0.393311	
-0.394653	
-0.39563	
-0.395081	
-0.395203	
-0.393555	
-0.394958	
-0.396057	
-0.395325	
-0.394897	
-0.395691	
-0.395996	
-0.395813	
-0.396545	
-0.397034	
-0.395081	
-0.394226	
-0.394409	
-0.394348	
-0.393982	
-0.393738	
-0.393066	
-0.39325	
-0.393799	
-0.393066	
-0.39325	
-0.391968	
-0.391846	
-0.392151	
-0.392456	
-0.39032	
-0.391418	
-0.391357	
-0.391113	
-0.391357	
-0.391357	
-0.392151	
-0.390991	
-0.390503	
-0.390503	
-0.391174	
-0.389587	
-0.390869	
-0.389709	
-0.390503	
-0.391296	
-0.390747	
-0.39093	
-0.390686	
-0.39093	
-0.390625	
-0.390686	
-0.391113	
-0.391357	
-0.390808	
-0.391602	
-0.393127	
-0.392212	
-0.392334	
-0.392151	
-0.392578	
-0.391663	
-0.392334	
-0.392517	
-0.392639	
-0.393127	
-0.393677	
-0.394409	
-0.393982	
-0.394531	
-0.393555	
-0.394226	
-0.393311	
-0.394592	
-0.394714	
-0.394592	
-0.394531	
-0.394775	
-0.395264	
-0.394836	
-0.39563	
-0.394714	
-0.394592	
-0.39447	
-0.394531	
-0.39447	
-0.394409	
-0.393982	
-0.394531	
-0.395203	
-0.394165	
-0.393921	
-0.394043	
-0.394653	
-0.394531	
-0.395142	
-0.39502	
-0.394348	
-0.394836	
-0.395203	
-0.395996	
-0.394775	
-0.394958	
-0.395691	
-0.395752	
-0.395203	
-0.395508	
-0.395996	
-0.394592	
-0.395935	
-0.396484	
-0.39624	
-0.395508	
-0.397034	
-0.395996	
-0.396545	
-0.395508	
-0.39563	
-0.396667	
-0.395203	
-0.396729	
-0.396606	
-0.396423	
-0.39624	
-0.396301	
-0.394897	
-0.39563	
-0.394775	
-0.393677	
-0.394897	
-0.393188	
-0.394165	
-0.394531	
-0.393555	
-0.393555	
-0.392639	
-0.392029	
-0.392944	
-0.392761	
-0.392212	
-0.392944	
-0.392212	
-0.393555	
-0.394714	
-0.393616	
-0.393921	
-0.393799	
-0.394165	
-0.394653	
-0.394348	
-0.39447	
-0.395325	
-0.394287	
-0.395508	
-0.396973	
-0.395569	
-0.39563	
-0.395325	
-0.395752	
-0.395874	
-0.395691	
-0.395813	
-0.395447	
-0.39447	
-0.395935	
-0.397034	
-0.395874	
-0.395691	
-0.395447	
-0.39563	
-0.395081	
-0.395081	
-0.395264	
-0.395081	
-0.394348	
-0.395935	
-0.396973	
-0.395508	
-0.395935	
-0.395752	
-0.396301	
-0.396301	
-0.395935	
-0.395996	
-0.396423	
-0.39563	
-0.396362	
-0.396912	
-0.396851	
-0.397217	
-0.395447	
-0.396362	
-0.396912	
-0.395447	
-0.396301	
-0.396362	
-0.395996	
-0.396667	
-0.396667	
-0.395203	
-0.395447	
-0.394836	
-0.395752	
-0.395691	
-0.394775	
-0.395874	
-0.395752	
-0.395508	
-0.395874	
-0.396423	
-0.396118	
-0.395813	
-0.394714	
-0.395874	
-0.395935	
-0.396179	
-0.395874	
-0.395813	
-0.396301	
-0.396729	
-0.396362	
-0.395386	
-0.396667	
-0.395203	
-0.395935	
-0.39624	
-0.396301	
-0.396667	
-0.39679	
-0.397705	
-0.397217	
-0.397766	
-0.397217	
-0.397766	
-0.395874	
-0.396729	
-0.396484	
-0.395752	
-0.39563	
-0.395386	
-0.395508	
-0.395081	
-0.395508	
-0.39563	
-0.396423	
-0.394104	
-0.39447	
-0.395081	
-0.39502	
-0.394531	
-0.394653	
-0.395569	
-0.395691	
-0.394897	
-0.395691	
-0.396606	
-0.394348	
-0.395386	
-0.395203	
-0.395325	
-0.396118	
-0.395508	
-0.395691	
-0.396729	
-0.395813	
-0.395996	
-0.396973	
-0.395386	
-0.395691	
-0.395386	
-0.395813	
-0.395142	
-0.394897	
-0.395081	
-0.395996	
-0.394836	
-0.39447	
-0.395874	
-0.394287	
-0.394043	
-0.39386	
-0.394348	
-0.394531	
-0.394348	
-0.394531	
-0.395813	
-0.395203	
-0.395508	
-0.395874	
-0.395203	
-0.39563	
-0.39563	
-0.395752	
-0.395752	
-0.397217	
-0.397583	
-0.397583	
-0.397217	
-0.397766	
-0.397644	
-0.397461	
-0.397034	
-0.396423	
-0.396912	
-0.396179	
-0.395874	
-0.39624	
-0.397766	
-0.396667	
-0.396729	
-0.396851	
-0.396423	
-0.395935	
-0.395874	
-0.396729	
-0.396301	
-0.395752	
-0.396667	
-0.397156	
-0.396484	
-0.396545	
-0.396423	
-0.395264	
-0.395264	
-0.395691	
-0.395325	
-0.395447	
-0.395569	
-0.395996	
-0.395935	
-0.39502	
-0.395081	
-0.395081	
-0.394226	
-0.394043	
-0.394226	
-0.393555	
-0.394165	
-0.394165	
-0.393738	
-0.394226	
-0.393616	
-0.393616	
-0.393433	
-0.393311	
-0.393372	
-0.392456	
-0.393066	
-0.393677	
-0.392822	
-0.393921	
-0.394287	
-0.394714	
-0.39502	
-0.395325	
-0.395325	
-0.396179	
-0.395813	
-0.396545	
-0.396118	
-0.395691	
-0.396973	
-0.39801	
-0.397217	
-0.397217	
-0.397888	
-0.398071	
-0.397888	
-0.397583	
-0.39801	
-0.397827	
-0.397644	
-0.398254	
-0.398621	
-0.397461	
-0.398071	
-0.398682	
-0.398682	
-0.39856	
-0.397522	
-0.398071	
-0.397888	
-0.397461	
-0.398621	
-0.39856	
-0.397095	
-0.397339	
-0.397766	
-0.397217	
-0.397034	
-0.396118	
-0.396606	
-0.396973	
-0.396057	
-0.396912	
-0.397156	
-0.39624	
-0.396057	
-0.396118	
-0.395874	
-0.394958	
-0.39386	
-0.39502	
-0.394897	
-0.393311	
-0.394226	
-0.394836	
-0.394409	
-0.394226	
-0.395142	
-0.393982	
-0.39386	
-0.393433	
-0.393494	
-0.394043	
-0.393372	
-0.394165	
-0.394409	
-0.39447	
-0.39447	
-0.394714	
-0.394409	
-0.394653	
-0.394104	
-0.394104	
-0.394165	
-0.392639	
-0.393738	
-0.393982	
-0.39447	
-0.394165	
-0.393982	
-0.393433	
-0.393188	
-0.392334	
-0.393127	
-0.392944	
-0.392334	
-0.394043	
-0.392883	
-0.393311	
-0.393677	
-0.392639	
-0.392456	
-0.392456	
-0.390991	
-0.391907	
-0.392334	
-0.390869	
-0.393188	
-0.392944	
-0.391968	
-0.392944	
-0.391907	
-0.391846	
-0.391907	
-0.391663	
-0.392639	
-0.393188	
-0.392334	
-0.393982	
-0.393738	
-0.393555	
-0.394897	
-0.394531	
-0.394531	
-0.394958	
-0.394409	
-0.395508	
-0.395264	
-0.39447	
-0.396484	
-0.395447	
-0.395691	
-0.396179	
-0.395447	
-0.394836	
-0.39502	
-0.394409	
-0.394958	
-0.394165	
-0.393372	
-0.394897	
-0.393982	
-0.393677	
-0.394409	
-0.393921	
-0.392944	
-0.392639	
-0.392029	
-0.393311	
-0.392944	
-0.391968	
-0.393799	
-0.392944	
-0.392944	
-0.39325	
-0.393066	
-0.392944	
-0.391907	
-0.392334	
-0.393127	
-0.393188	
-0.392151	
-0.393799	
-0.393799	
-0.393372	
-0.39325	
-0.393066	
-0.392639	
-0.391968	
-0.391418	
-0.392334	
-0.391968	
-0.391968	
-0.393494	
-0.3927	
-0.391968	
-0.391785	
-0.392151	
-0.391235	
-0.391663	
-0.391235	
-0.392334	
-0.391785	
-0.39209	
-0.393921	
-0.3927	
-0.392639	
-0.392456	
-0.393005	
-0.390991	
-0.392334	
-0.391479	
-0.392761	
-0.392334	
-0.392761	
-0.393188	
-0.392944	
-0.393494	
-0.392517	
-0.393494	
-0.391296	
-0.393066	
-0.390991	
-0.391846	
-0.392639	
-0.392517	
-0.392761	
-0.3927	
-0.393799	
-0.391968	
-0.393005	
-0.391602	
-0.392822	
-0.391541	
-0.392456	
-0.392456	
-0.392212	
-0.392334	
-0.39325	
-0.392273	
-0.390442	
-0.392212	
-0.390076	
-0.391663	
-0.390991	
-0.391479	
-0.390747	
-0.392395	
-0.39325	
-0.39325	
-0.393494	
-0.392761	
-0.393738	
-0.391907	
-0.393616	
-0.393188	
-0.393616	
-0.3927	
-0.394226	
-0.394226	
-0.393677	
-0.394348	
-0.392578	
-0.394226	
-0.392883	
-0.393982	
-0.392883	
-0.39325	
-0.392517	
-0.393555	
-0.393433	
-0.393127	
-0.394348	
-0.392395	
-0.393005	
-0.391785	
-0.393372	
-0.392212	
-0.393066	
-0.392212	
-0.393372	
-0.394287	
-0.393799	
-0.394348	
-0.392761	
-0.39447	
-0.392761	
-0.393982	
-0.392944	
-0.39447	
-0.393616	
-0.394104	
-0.394836	
-0.394775	
-0.395813	
-0.394165	
-0.39447	
-0.393127	
-0.394836	
-0.393311	
-0.393555	
-0.392822	
-0.393982	
-0.39386	
-0.393005	
-0.394165	
-0.391968	
-0.392273	
-0.390808	
-0.392456	
-0.391846	
-0.391785	
-0.390808	
-0.392822	
-0.393372	
-0.392822	
-0.394104	
-0.391296	
-0.392029	
-0.391541	
-0.392639	
-0.392029	
-0.392822	
-0.392395	
-0.392395	
-0.392029	
-0.392578	
-0.393372	
-0.391663	
-0.392761	
-0.391602	
-0.392944	
-0.393066	
-0.393677	
-0.391296	
-0.393005	
-0.393066	
-0.393127	
-0.394104	
-0.392273	
-0.393066	
-0.392273	
-0.394043	
-0.394226	
-0.394409	
-0.393005	
-0.394226	
-0.39502	
-0.394653	
-0.396057	
-0.394287	
-0.394653	
-0.394226	
-0.395752	
-0.395447	
-0.395081	
-0.394897	
-0.396179	
-0.396057	
-0.39563	
-0.397034	
-0.394897	
-0.395142	
-0.393799	
-0.394043	
-0.39325	
-0.393372	
-0.392944	
-0.393005	
-0.392578	
-0.393066	
-0.393799	
-0.392395	
-0.391846	
-0.390686	
-0.391541	
-0.391663	
-0.391357	
-0.391235	
-0.391296	
-0.391235	
-0.391113	
-0.392273	
-0.391418	
-0.390991	
-0.389771	
-0.390625	
-0.390991	
-0.390625	
-0.391113	
-0.39093	
-0.390686	
-0.390991	
-0.391846	
-0.391602	
-0.391357	
-0.390259	
-0.390625	
-0.391663	
-0.391907	
-0.391907	
-0.392517	
-0.392395	
-0.392517	
-0.393738	
-0.393677	
-0.392944	
-0.392029	
-0.392456	
-0.393188	
-0.393494	
-0.393372	
-0.394165	
-0.393677	
-0.394714	
-0.395935	
-0.394836	
-0.39447	
-0.393982	
-0.39502	
-0.39502	
-0.394897	
-0.395691	
-0.395752	
-0.395264	
-0.394836	
-0.396423	
-0.396179	
-0.394775	
-0.394165	
-0.394897	
-0.394592	
-0.394531	
-0.394287	
-0.395752	
-0.394714	
-0.395081	
-0.395752	
-0.396545	
-0.394775	
-0.393738	
-0.39502	
-0.396301	
-0.395813	
-0.39563	
-0.396484	
-0.395386	
-0.395447	
-0.396484	
-0.39624	
-0.395691	
-0.395447	
-0.395264	
-0.396912	
-0.397095	
-0.396851	
-0.397583	
-0.396484	
-0.396729	
-0.397522	
-0.39679	
-0.397095	
-0.396729	
-0.396484	
-0.397461	
-0.397034	
-0.39679	
-0.397461	
-0.396484	
-0.396484	
-0.397034	
-0.396606	
-0.395996	
-0.395447	
-0.394226	
-0.394897	
-0.394104	
-0.395142	
-0.395142	
-0.394043	
-0.393799	
-0.39447	
-0.393799	
-0.393799	
-0.393494	
-0.392883	
-0.393799	
-0.393921	
-0.393982	
-0.395142	
-0.394531	
-0.394836	
-0.396179	
-0.395325	
-0.395325	
-0.394958	
-0.394714	
-0.396179	
-0.39563	
-0.396667	
-0.396667	
-0.396545	
-0.396912	
-0.397522	
-0.396362	
-0.39624	
-0.39624	
-0.395813	
-0.396179	
-0.395935	
-0.396545	
-0.397095	
-0.396179	
-0.396118	
-0.397217	
-0.396301	
-0.396362	
-0.395691	
-0.395935	
-0.39624	
-0.395874	
-0.39624	
-0.3974	
-0.396729	
-0.396912	
-0.398438	
-0.396729	
-0.397095	
-0.396545	
-0.397034	
-0.397339	
-0.397461	
-0.3974	
-0.398132	
-0.397217	
-0.397583	
-0.398438	
-0.397217	
-0.397827	
-0.395569	
-0.397095	
-0.397339	
-0.39679	
-0.396667	
-0.397156	
-0.396973	
-0.396912	
-0.398071	
-0.396057	
-0.395996	
-0.395142	
-0.396851	
-0.397095	
-0.396423	
-0.397339	
-0.398376	
-0.396484	
-0.396973	
-0.398438	
-0.396423	
-0.396362	
-0.394775	
-0.396912	
-0.39679	
-0.397583	
-0.396851	
-0.397461	
-0.396973	
-0.3974	
-0.397522	
-0.397583	
-0.3974	
-0.395203	
-0.397827	
-0.397705	
-0.398376	
-0.399048	
-0.399475	
-0.398254	
-0.398376	
-0.39801	
-0.396912	
-0.39679	
-0.39386	
-0.396851	
-0.396484	
-0.396301	
-0.396545	
-0.397095	
-0.396301	
-0.396973	
-0.396851	
-0.395935	
-0.395874	
-0.3927	
-0.395691	
-0.396057	
-0.396301	
-0.396057	
-0.397034	
-0.396729	
-0.397156	
-0.39801	
-0.396667	
-0.396606	
-0.393982	
-0.39679	
-0.397156	
-0.396606	
-0.396362	
-0.397522	
-0.397217	
-0.397461	
-0.398315	
-0.396362	
-0.396729	
-0.394287	
-0.396484	
-0.395996	
-0.396118	
-0.396301	
-0.396973	
-0.395569	
-0.395996	
-0.396606	
-0.395264	
-0.394775	
-0.393188	
-0.39563	
-0.395691	
-0.395996	
-0.395813	
-0.397156	
-0.396362	
-0.397156	
-0.398438	
-0.397339	
-0.396729	
-0.395813	
-0.398071	
-0.398682	
-0.398804	
-0.398621	
-0.399475	
-0.398743	
-0.398804	
-0.399048	
-0.398315	
-0.3974	
-0.396667	
-0.398621	
-0.3974	
-0.397705	
-0.397705	
-0.398743	
-0.397888	
-0.398132	
-0.398682	
-0.397583	
-0.397339	
-0.397034	
-0.397888	
-0.397705	
-0.397156	
-0.397888	
-0.398071	
-0.397217	
-0.39801	
-0.398438	
-0.396484	
-0.396973	
-0.396362	
-0.397156	
-0.397278	
-0.396912	
-0.396606	
-0.397156	
-0.396423	
-0.396545	
-0.396851	
-0.39563	
-0.395203	
-0.394958	
-0.395325	
-0.39563	
-0.394897	
-0.394653	
-0.395813	
-0.39447	
-0.394409	
-0.395996	
-0.39447	
-0.394775	
-0.394165	
-0.394592	
-0.395081	
-0.395569	
-0.39624	
-0.3974	
-0.396362	
-0.397217	
-0.398804	
-0.397644	
-0.397034	
-0.397583	
-0.398071	
-0.397888	
-0.398193	
-0.39856	
-0.399719	
-0.398926	
-0.39917	
-0.399963	
-0.399231	
-0.398987	
-0.398926	
-0.399414	
-0.399536	
-0.399231	
-0.399536	
-0.40033	
-0.399719	
-0.400452	
-0.400574	
-0.400085	
-0.399719	
-0.398865	
-0.39978	
-0.399597	
-0.399658	
-0.398987	
-0.399414	
-0.398926	
-0.399109	
-0.399719	
-0.398315	
-0.398071	
-0.397034	
-0.397705	
-0.398132	
	
