E:\DOCUMENTS AND SETTINGS\JPOTAS\MEUS DOCUMENTOS\UFRJ\RSCI-BM 12 WK SERIES\070723-RSCI-BM-06\RSCI-BM-06-LEMG\070723-RSCI-BM-LEMG-0012.ACQ
0.025000 msec/sample
1 channel
Analog input
Volts
CH1	
2000	
-0.398254	
-0.397705	
-0.398315	
-0.397461	
-0.397278	
-0.396851	
-0.399597	
-0.398438	
-0.397278	
-0.396301	
-0.395996	
-0.396484	
-0.396667	
-0.397339	
-0.396606	
-0.395691	
-0.395264	
-0.396851	
-0.39563	
-0.395386	
-0.395081	
-0.394348	
-0.395386	
-0.395386	
-0.395264	
-0.395752	
-0.395752	
-0.394897	
-0.396912	
-0.395386	
-0.394958	
-0.394653	
-0.39563	
-0.396118	
-0.395874	
-0.396057	
-0.395752	
-0.395813	
-0.394531	
-0.396729	
-0.395996	
-0.395447	
-0.39502	
-0.395508	
-0.395691	
-0.395996	
-0.39563	
-0.395874	
-0.395691	
-0.39502	
-0.397095	
-0.396851	
-0.396179	
-0.395386	
-0.395569	
-0.396301	
-0.396545	
-0.395813	
-0.396912	
-0.396729	
-0.396118	
-0.398926	
-0.397766	
-0.397705	
-0.39679	
-0.397827	
-0.398438	
-0.39856	
-0.397583	
-0.398315	
-0.398254	
-0.398132	
-0.398926	
-0.397949	
-0.397766	
-0.396606	
-0.397522	
-0.397583	
-0.397522	
-0.395752	
-0.39679	
-0.396118	
-0.395569	
-0.39624	
-0.394836	
-0.394958	
-0.393738	
-0.394409	
-0.394287	
-0.394836	
-0.392883	
-0.394592	
-0.394226	
-0.395081	
-0.396667	
-0.39502	
-0.394775	
-0.393677	
-0.395386	
-0.39502	
-0.395935	
-0.394958	
-0.395874	
-0.395996	
-0.397034	
-0.398499	
-0.396973	
-0.397461	
-0.3974	
-0.399048	
-0.398987	
-0.400269	
-0.399353	
-0.399597	
-0.399902	
-0.399719	
-0.4021	
-0.399658	
-0.399536	
-0.398621	
-0.399963	
-0.39978	
-0.399902	
-0.399048	
-0.399048	
-0.399048	
-0.399597	
-0.401062	
-0.399048	
-0.398987	
-0.397827	
-0.398987	
-0.398682	
-0.399475	
-0.398254	
-0.398193	
-0.397949	
-0.398499	
-0.399841	
-0.398132	
-0.397522	
-0.39679	
-0.398376	
-0.397705	
-0.398193	
-0.397095	
-0.397644	
-0.397156	
-0.39679	
-0.397644	
-0.395508	
-0.394531	
-0.393494	
-0.394897	
-0.39386	
-0.394714	
-0.39325	
-0.393982	
-0.393005	
-0.393127	
-0.394897	
-0.393188	
-0.392639	
-0.390991	
-0.392456	
-0.392944	
-0.39386	
-0.391602	
-0.392639	
-0.392944	
-0.393311	
-0.394226	
-0.393799	
-0.394226	
-0.3927	
-0.393799	
-0.394714	
-0.394836	
-0.393799	
-0.394836	
-0.394897	
-0.395264	
-0.396423	
-0.395264	
-0.395264	
-0.393494	
-0.39447	
-0.395081	
-0.395874	
-0.394714	
-0.395569	
-0.395386	
-0.39624	
-0.396667	
-0.395935	
-0.395386	
-0.394165	
-0.392334	
-0.393188	
-0.393555	
-0.393005	
-0.393433	
-0.393921	
-0.397278	
-0.398743	
-0.397705	
-0.396851	
-0.395813	
-0.395935	
-0.397278	
-0.39801	
-0.396423	
-0.397095	
-0.397095	
-0.3974	
-0.397949	
-0.39679	
-0.39624	
-0.39563	
-0.395203	
-0.396057	
-0.396912	
-0.394653	
-0.395874	
-0.39624	
-0.396179	
-0.396484	
-0.395874	
-0.395691	
-0.394104	
-0.394531	
-0.39502	
-0.395813	
-0.394165	
-0.395874	
-0.395264	
-0.395325	
-0.395752	
-0.394897	
-0.394409	
-0.39386	
-0.39386	
-0.394958	
-0.395691	
-0.395081	
-0.397461	
-0.39856	
-0.401245	
-0.403748	
-0.406555	
-0.409546	
-0.412842	
-0.41803	
-0.422668	
-0.428528	
-0.432678	
-0.437317	
-0.442078	
-0.448792	
-0.454285	
-0.459167	
-0.466125	
-0.474304	
-0.483032	
-0.493652	
-0.506104	
-0.519714	
-0.532104	
-0.544128	
-0.554626	
-0.562988	
-0.569702	
-0.575623	
-0.581665	
-0.587219	
-0.59137	
-0.59314	
-0.592224	
-0.591492	
-0.592285	
-0.59021	
-0.588135	
-0.58551	
-0.58728	
-0.585876	
-0.583435	
-0.582031	
-0.580017	
-0.578735	
-0.577698	
-0.576782	
-0.575012	
-0.573547	
-0.571777	
-0.570374	
-0.568481	
-0.566406	
-0.565369	
-0.563416	
-0.561279	
-0.55896	
-0.558105	
-0.556519	
-0.552795	
-0.550232	
-0.548401	
-0.545959	
-0.541687	
-0.536926	
-0.531372	
-0.525879	
-0.519897	
-0.514709	
-0.508789	
-0.502502	
-0.497131	
-0.491638	
-0.487976	
-0.484192	
-0.479797	
-0.477173	
-0.473877	
-0.47229	
-0.470154	
-0.466919	
-0.463501	
-0.460449	
-0.458618	
-0.455811	
-0.453857	
-0.451111	
-0.449768	
-0.448608	
-0.449036	
-0.448792	
-0.447205	
-0.446899	
-0.447998	
-0.449158	
-0.450012	
-0.450317	
-0.450195	
-0.450439	
-0.450806	
-0.451233	
-0.44989	
-0.448242	
-0.446899	
-0.444641	
-0.443665	
-0.441284	
-0.43988	
-0.435486	
-0.432617	
-0.42926	
-0.424988	
-0.421021	
-0.414978	
-0.408936	
-0.402588	
-0.397339	
-0.390625	
-0.385193	
-0.380554	
-0.376465	
-0.372314	
-0.369141	
-0.367615	
-0.365295	
-0.364807	
-0.364624	
-0.366821	
-0.368469	
-0.370728	
-0.372864	
-0.375061	
-0.377258	
-0.381042	
-0.384338	
-0.386353	
-0.388916	
-0.392334	
-0.395691	
-0.398804	
-0.40033	
-0.403809	
-0.406921	
-0.411682	
-0.414612	
-0.416199	
-0.418213	
-0.421875	
-0.423645	
-0.424988	
-0.426392	
-0.425781	
-0.427185	
-0.427307	
-0.428101	
-0.429443	
-0.429199	
-0.429077	
-0.432129	
-0.434143	
-0.435303	
-0.437195	
-0.43689	
-0.438232	
-0.439392	
-0.440063	
-0.440857	
-0.440002	
-0.438477	
-0.43811	
-0.437561	
-0.435852	
-0.435608	
-0.431458	
-0.429749	
-0.427551	
-0.425537	
-0.423279	
-0.419983	
-0.417664	
-0.415344	
-0.414063	
-0.412292	
-0.410278	
-0.406494	
-0.405579	
-0.402893	
-0.400085	
-0.397644	
-0.392517	
-0.387512	
-0.381958	
-0.375977	
-0.368713	
-0.361816	
-0.352722	
-0.34375	
-0.334351	
-0.324951	
-0.316956	
-0.306335	
-0.297119	
-0.28833	
-0.280762	
-0.274353	
-0.268005	
-0.260803	
-0.258179	
-0.2547	
-0.253052	
-0.251526	
-0.249756	
-0.249207	
-0.248352	
-0.250122	
-0.251587	
-0.251709	
-0.252686	
-0.254089	
-0.256348	
-0.258789	
-0.259521	
-0.261475	
-0.263916	
-0.267395	
-0.270386	
-0.272644	
-0.275696	
-0.279785	
-0.283691	
-0.286194	
-0.289307	
-0.292236	
-0.296448	
-0.300781	
-0.303101	
-0.306519	
-0.308838	
-0.312439	
-0.314575	
-0.317383	
-0.321045	
-0.322083	
-0.324097	
-0.325195	
-0.328552	
-0.331177	
-0.33197	
-0.334106	
-0.335571	
-0.337891	
-0.340271	
-0.340576	
-0.341614	
-0.342468	
-0.343506	
-0.345154	
-0.345825	
-0.347046	
-0.347961	
-0.349915	
-0.351196	
-0.351501	
-0.351685	
-0.352661	
-0.354858	
-0.355652	
-0.357056	
-0.357727	
-0.359253	
-0.360718	
-0.361755	
-0.363647	
-0.362488	
-0.364197	
-0.364197	
-0.366333	
-0.368469	
-0.368042	
-0.367981	
-0.368347	
-0.369019	
-0.370422	
-0.369263	
-0.370361	
-0.370178	
-0.371826	
-0.371338	
-0.370911	
-0.370911	
-0.371582	
-0.372131	
-0.371887	
-0.372131	
-0.371765	
-0.372192	
-0.372437	
-0.373291	
-0.374512	
-0.373779	
-0.373657	
-0.374207	
-0.374817	
-0.37677	
-0.375366	
-0.376099	
-0.375244	
-0.376526	
-0.37738	
-0.377625	
-0.377136	
-0.377502	
-0.378357	
-0.379639	
-0.379944	
-0.379089	
-0.379395	
-0.379211	
-0.381348	
-0.381409	
-0.381165	
-0.380798	
-0.381531	
-0.382385	
-0.382629	
-0.381836	
-0.382263	
-0.382996	
-0.383728	
-0.383362	
-0.383423	
-0.383545	
-0.383728	
-0.384094	
-0.384216	
-0.383057	
-0.383362	
-0.383606	
-0.384277	
-0.383911	
-0.383545	
-0.38385	
-0.383606	
-0.383606	
-0.384216	
-0.383789	
-0.38385	
-0.382813	
-0.383423	
-0.383545	
-0.383789	
-0.383667	
-0.383057	
-0.382263	
-0.383728	
-0.383179	
-0.382874	
-0.381714	
-0.381897	
-0.383118	
-0.382813	
-0.382507	
-0.381714	
-0.381592	
-0.382751	
-0.38208	
-0.381592	
-0.381775	
-0.381042	
-0.382629	
-0.382141	
-0.382263	
-0.383362	
-0.382629	
-0.38324	
-0.382935	
-0.38324	
-0.383789	
-0.383911	
-0.385254	
-0.385254	
-0.386108	
-0.387024	
-0.38678	
-0.387268	
-0.388916	
-0.388733	
-0.388794	
-0.388245	
-0.389954	
-0.391479	
-0.390991	
-0.39093	
-0.390015	
-0.390442	
-0.391174	
-0.389648	
-0.391357	
-0.391418	
-0.391235	
-0.392029	
-0.392212	
-0.392517	
-0.392151	
-0.392212	
-0.3927	
-0.393616	
-0.3927	
-0.392883	
-0.390686	
-0.393188	
-0.394897	
-0.394592	
-0.393738	
-0.39386	
-0.393677	
-0.394409	
-0.394104	
-0.394653	
-0.393372	
-0.394409	
-0.395081	
-0.394104	
-0.393433	
-0.393188	
-0.391968	
-0.3927	
-0.394287	
-0.391968	
-0.392212	
-0.391174	
-0.392944	
-0.393066	
-0.393433	
-0.393066	
-0.392883	
-0.392273	
-0.392029	
-0.391541	
-0.390503	
-0.390686	
-0.390137	
-0.390808	
-0.391602	
-0.391479	
-0.391602	
-0.391052	
-0.389282	
-0.391174	
-0.390442	
-0.390625	
-0.389648	
-0.390381	
-0.391052	
-0.391113	
-0.390625	
-0.390503	
-0.389893	
-0.390808	
-0.390808	
-0.390259	
-0.390869	
-0.390625	
-0.390686	
-0.391663	
-0.391602	
-0.391174	
-0.391541	
-0.390442	
-0.391846	
-0.392639	
-0.391479	
-0.390503	
-0.390625	
-0.392456	
-0.393005	
-0.391907	
-0.391663	
-0.391174	
-0.392944	
-0.392761	
-0.39209	
-0.392883	
-0.393433	
-0.393433	
-0.393799	
-0.393738	
-0.394104	
-0.394592	
-0.393433	
-0.394409	
-0.394958	
-0.394958	
-0.392822	
-0.393127	
-0.394287	
-0.395447	
-0.393738	
-0.393982	
-0.3927	
-0.393494	
-0.392578	
-0.391724	
-0.39209	
-0.391968	
-0.390991	
-0.391418	
-0.390625	
-0.39093	
-0.390625	
-0.390625	
-0.391785	
-0.391479	
-0.390686	
-0.389709	
-0.39093	
-0.391113	
-0.3927	
-0.391602	
-0.391785	
-0.391357	
-0.392639	
-0.392334	
-0.392395	
-0.391602	
-0.392395	
-0.392151	
-0.393372	
-0.393616	
-0.394958	
-0.395081	
-0.395203	
-0.396423	
-0.395935	
-0.395447	
-0.396362	
-0.39624	
-0.39563	
-0.397095	
-0.396973	
-0.397156	
-0.396729	
-0.39679	
-0.398315	
-0.396912	
-0.396851	
-0.396057	
-0.395996	
-0.395935	
-0.3974	
-0.396301	
-0.395569	
-0.395447	
-0.395752	
-0.396545	
-0.396179	
-0.395386	
-0.394531	
-0.395203	
-0.395996	
-0.396667	
-0.395142	
-0.394775	
-0.394958	
-0.395813	
-0.394958	
-0.394653	
-0.394348	
-0.394287	
-0.394104	
-0.394897	
-0.393921	
-0.393066	
-0.392944	
-0.39209	
-0.392395	
-0.391846	
-0.392151	
-0.390869	
-0.39093	
-0.389709	
-0.391907	
-0.390808	
-0.39032	
-0.389526	
-0.390442	
-0.390076	
-0.390564	
-0.390137	
-0.390076	
-0.389832	
-0.389832	
-0.391113	
-0.390503	
-0.390503	
-0.390381	
-0.391296	
-0.392212	
-0.391357	
-0.391663	
-0.391479	
-0.392212	
-0.393188	
-0.392517	
-0.392151	
-0.391785	
-0.39209	
-0.392883	
-0.393005	
-0.393433	
-0.392639	
-0.392517	
-0.392517	
-0.39386	
-0.392578	
-0.393372	
-0.392334	
-0.393372	
-0.393982	
-0.393677	
-0.39502	
-0.394043	
-0.394165	
-0.393738	
-0.394775	
-0.394775	
-0.394287	
-0.393494	
-0.394775	
-0.395569	
-0.395386	
-0.39447	
-0.394165	
-0.394531	
-0.394714	
-0.395386	
-0.395264	
-0.394897	
-0.394287	
-0.394043	
-0.393982	
-0.394836	
-0.394592	
-0.393433	
-0.39447	
-0.395996	
-0.394165	
-0.39325	
-0.393921	
-0.393799	
-0.393982	
-0.392517	
-0.393982	
-0.393127	
-0.392761	
-0.392944	
-0.393738	
-0.39209	
-0.392517	
-0.390869	
-0.393127	
-0.393311	
-0.392273	
-0.393372	
-0.392273	
-0.392212	
-0.391846	
-0.392456	
-0.392761	
-0.393127	
-0.392395	
-0.392944	
-0.393616	
-0.393982	
-0.39386	
-0.393921	
-0.393921	
-0.393555	
-0.393799	
-0.393799	
-0.394287	
-0.394409	
-0.394409	
-0.395325	
-0.394897	
-0.394409	
-0.394836	
-0.395264	
-0.395813	
-0.395935	
-0.396362	
-0.396667	
-0.396057	
-0.396362	
-0.397095	
-0.396545	
-0.396118	
-0.395569	
-0.396484	
-0.398132	
-0.396423	
-0.397095	
-0.395691	
-0.39679	
-0.397034	
-0.395996	
-0.397156	
-0.396179	
-0.394836	
-0.396179	
-0.39624	
-0.394531	
-0.394165	
-0.393188	
-0.393555	
-0.392761	
-0.392273	
-0.39325	
-0.391724	
-0.390991	
-0.391541	
-0.391357	
-0.390686	
-0.390076	
-0.389893	
-0.389343	
-0.389587	
-0.389648	
-0.390686	
-0.390137	
-0.389587	
-0.39032	
-0.389709	
-0.389709	
-0.389038	
-0.388428	
-0.388245	
-0.389099	
-0.38916	
-0.388794	
-0.388916	
-0.389038	
-0.388428	
-0.388916	
-0.389221	
-0.387268	
-0.388855	
-0.389221	
-0.389648	
-0.389282	
-0.389465	
-0.389648	
-0.389404	
-0.38916	
-0.389771	
-0.389465	
-0.390686	
-0.390564	
-0.391052	
-0.390625	
-0.391479	
-0.39093	
-0.390015	
-0.392517	
-0.391479	
-0.391479	
-0.391235	
-0.392151	
-0.391968	
-0.39209	
-0.391846	
-0.393677	
-0.393372	
-0.393799	
-0.395142	
-0.393799	
-0.39386	
-0.392029	
-0.39386	
-0.392883	
-0.393188	
-0.392517	
-0.394409	
-0.392578	
-0.393616	
-0.393127	
-0.392944	
-0.392334	
-0.391846	
-0.392944	
-0.393188	
-0.393433	
-0.393066	
-0.393005	
-0.392761	
-0.393372	
-0.391418	
-0.392761	
-0.393005	
-0.39325	
-0.393127	
-0.393127	
-0.393738	
-0.392273	
-0.392761	
-0.392456	
-0.39325	
-0.391846	
-0.392639	
-0.392029	
-0.3927	
-0.392273	
-0.392517	
-0.392822	
-0.392029	
-0.391541	
-0.390991	
-0.3927	
-0.391357	
-0.390869	
-0.389221	
-0.390869	
-0.390869	
-0.390564	
-0.39032	
-0.390442	
-0.390381	
-0.389526	
-0.391479	
-0.390747	
-0.390686	
-0.388916	
-0.392029	
-0.391846	
-0.391846	
-0.391907	
-0.393433	
-0.392822	
-0.393188	
-0.392822	
-0.393677	
-0.393799	
-0.394104	
-0.39502	
-0.394165	
-0.394714	
-0.39325	
-0.39447	
-0.393738	
-0.393921	
-0.393311	
-0.393555	
-0.393066	
-0.39386	
-0.393799	
-0.392761	
-0.393433	
-0.391907	
-0.393127	
-0.392212	
-0.39325	
-0.391174	
-0.392212	
-0.390625	
-0.391052	
-0.389832	
-0.389465	
-0.389893	
-0.388916	
-0.389587	
-0.388855	
-0.389709	
-0.388428	
-0.388611	
-0.388611	
-0.388855	
-0.38916	
-0.388916	
-0.389954	
-0.389404	
-0.388916	
-0.388367	
-0.390686	
-0.389587	
-0.389404	
-0.388916	
-0.390625	
-0.390076	
-0.390442	
-0.39032	
-0.391174	
-0.390259	
-0.389038	
-0.391113	
-0.390625	
-0.390625	
-0.388855	
-0.391541	
-0.390869	
-0.391479	
-0.390381	
-0.39209	
-0.391541	
-0.392151	
-0.392151	
-0.3927	
-0.393127	
-0.392578	
-0.394043	
-0.39386	
-0.394409	
-0.394531	
-0.395386	
-0.394897	
-0.395935	
-0.394104	
-0.395386	
-0.395264	
-0.395874	
-0.395935	
-0.39563	
-0.39679	
-0.396179	
-0.396423	
-0.396423	
-0.396912	
-0.394592	
-0.395813	
-0.395081	
-0.395447	
-0.394531	
-0.394836	
-0.394775	
-0.394348	
-0.39325	
-0.393188	
-0.394592	
-0.39325	
-0.393372	
-0.3927	
-0.39386	
-0.393005	
-0.393616	
-0.393372	
-0.393616	
-0.392517	
-0.392029	
-0.394043	
-0.393127	
-0.392395	
-0.391296	
-0.393372	
-0.39209	
-0.391968	
-0.391174	
-0.392517	
-0.39093	
-0.39093	
-0.391968	
-0.391113	
-0.391541	
-0.390686	
-0.393066	
-0.391541	
-0.391663	
-0.391357	
-0.392395	
-0.391602	
-0.391479	
-0.390686	
-0.391541	
-0.391785	
-0.390564	
-0.392395	
-0.391907	
-0.393066	
-0.391541	
-0.391724	
-0.391296	
-0.39209	
-0.390869	
-0.391968	
-0.392151	
-0.392395	
-0.392761	
-0.392761	
-0.393066	
-0.391846	
-0.392456	
-0.392395	
-0.394165	
-0.393127	
-0.393127	
-0.392761	
-0.393311	
-0.39325	
-0.393372	
-0.393188	
-0.393005	
-0.393066	
-0.393677	
-0.394226	
-0.392944	
-0.392395	
-0.390686	
-0.392517	
-0.392639	
-0.3927	
-0.391663	
-0.392944	
-0.391113	
-0.391724	
-0.392517	
-0.392029	
-0.391602	
-0.389404	
-0.391663	
-0.391479	
-0.391479	
-0.391235	
-0.391357	
-0.389771	
-0.390381	
-0.389893	
-0.389709	
-0.388977	
-0.389282	
-0.389954	
-0.389404	
-0.389465	
-0.389343	
-0.389648	
-0.389282	
-0.390381	
-0.388672	
-0.388672	
-0.388672	
-0.389648	
-0.389771	
-0.389771	
-0.388916	
-0.389465	
-0.390198	
-0.390503	
-0.391663	
-0.39032	
-0.391663	
-0.391846	
-0.392883	
-0.394043	
-0.394775	
-0.394043	
-0.39386	
-0.394287	
-0.395142	
-0.396362	
-0.394226	
-0.395081	
-0.394714	
-0.396118	
-0.396973	
-0.396606	
-0.395935	
-0.395081	
-0.395386	
-0.396973	
-0.397949	
-0.395142	
-0.396301	
-0.395203	
-0.397034	
-0.397461	
-0.397034	
-0.396606	
-0.396545	
-0.39679	
-0.397461	
-0.397705	
-0.395996	
-0.396973	
-0.397095	
-0.397461	
-0.397583	
-0.396606	
-0.396667	
-0.396606	
-0.39624	
-0.396606	
-0.396667	
-0.395325	
-0.39447	
-0.394226	
-0.39563	
-0.39563	
-0.394226	
-0.394348	
-0.394592	
-0.394836	
-0.395264	
-0.393738	
-0.39386	
-0.393433	
-0.39325	
-0.394775	
-0.393982	
-0.393005	
-0.393066	
-0.392639	
-0.392273	
-0.392395	
-0.391846	
-0.392151	
-0.391357	
-0.392212	
-0.394043	
-0.393921	
-0.392639	
-0.392029	
-0.39209	
-0.393188	
-0.393127	
-0.392761	
-0.392639	
-0.392029	
-0.392578	
-0.393738	
-0.393494	
-0.392334	
-0.391846	
-0.391785	
-0.393616	
-0.393066	
-0.392456	
-0.392578	
-0.392273	
-0.392273	
-0.393494	
-0.392883	
-0.391968	
-0.392395	
-0.393005	
-0.393616	
-0.393555	
-0.393005	
-0.392822	
-0.393127	
-0.393555	
-0.393494	
-0.394165	
-0.394043	
-0.3927	
-0.393372	
-0.394775	
-0.395386	
-0.394287	
-0.394226	
-0.394836	
-0.394897	
-0.394653	
-0.395081	
-0.394592	
-0.394226	
-0.394714	
-0.395569	
-0.394836	
-0.393738	
-0.393311	
-0.393372	
-0.393799	
-0.393799	
-0.393738	
-0.392334	
-0.391052	
-0.391846	
-0.392212	
-0.390991	
-0.389771	
-0.38916	
-0.389771	
-0.390686	
-0.391296	
-0.391052	
-0.390686	
-0.391174	
-0.390625	
-0.391479	
-0.391174	
-0.390686	
-0.391113	
-0.391663	
-0.392517	
-0.392273	
-0.392395	
-0.392578	
-0.393188	
-0.393127	
-0.394226	
-0.39447	
-0.393433	
-0.394348	
-0.395325	
-0.396545	
-0.396362	
-0.395691	
-0.395813	
-0.395996	
-0.39624	
-0.396423	
-0.395874	
-0.395264	
-0.395752	
-0.395874	
-0.396484	
-0.395935	
-0.395386	
-0.395142	
-0.395203	
-0.39624	
-0.395935	
-0.394531	
-0.394714	
-0.39502	
-0.394348	
-0.394775	
-0.395142	
-0.394287	
-0.393677	
-0.394165	
-0.395325	
-0.395264	
-0.39386	
-0.393372	
-0.393555	
-0.393738	
-0.394409	
-0.394287	
-0.392822	
-0.391724	
-0.392761	
-0.392883	
-0.392273	
-0.390381	
-0.389771	
-0.390625	
-0.390747	
-0.390991	
-0.390503	
-0.389526	
-0.389038	
-0.389587	
-0.389709	
-0.389221	
-0.388733	
-0.388062	
-0.388367	
-0.389404	
-0.389465	
-0.388977	
-0.389038	
-0.388245	
-0.390259	
-0.390015	
-0.39032	
-0.389832	
-0.390076	
-0.390198	
-0.39093	
-0.390137	
-0.390869	
-0.391235	
-0.39093	
-0.392578	
-0.391602	
-0.391357	
-0.390137	
-0.39093	
-0.391907	
-0.392212	
-0.392456	
-0.391907	
-0.391907	
-0.392456	
-0.393738	
-0.392944	
-0.39209	
-0.391235	
-0.392822	
-0.393188	
-0.393738	
-0.393982	
-0.39325	
-0.393188	
-0.393799	
-0.395325	
-0.393982	
-0.393066	
-0.391541	
-0.393005	
-0.39386	
-0.394592	
-0.394287	
-0.393433	
-0.392883	
-0.394043	
-0.395264	
-0.393433	
-0.393127	
-0.391113	
-0.39209	
-0.392944	
-0.393677	
-0.393799	
-0.393127	
-0.392395	
-0.392883	
-0.393433	
-0.392578	
-0.391785	
-0.389587	
-0.391907	
-0.392578	
-0.392334	
-0.393372	
-0.392334	
-0.390808	
-0.391724	
-0.392578	
-0.391357	
-0.391724	
-0.390625	
-0.39209	
-0.392273	
-0.391968	
-0.392578	
-0.392151	
-0.391602	
-0.391541	
-0.393005	
-0.392578	
-0.392456	
-0.392639	
-0.393372	
-0.39325	
-0.393372	
-0.393738	
-0.393372	
-0.393311	
-0.39386	
-0.394714	
-0.393677	
-0.393311	
-0.393433	
-0.394592	
-0.394775	
-0.395325	
-0.395203	
-0.395142	
-0.395508	
-0.396729	
-0.396423	
-0.39563	
-0.395386	
-0.395142	
-0.396484	
-0.396667	
-0.396606	
-0.395691	
-0.395935	
-0.39624	
-0.398254	
-0.395935	
-0.395752	
-0.394958	
-0.39624	
-0.39563	
-0.396545	
-0.395752	
-0.394958	
-0.39447	
-0.394531	
-0.394958	
-0.392883	
-0.392883	
-0.390442	
-0.391846	
-0.391846	
-0.39209	
-0.391357	
-0.390503	
-0.390198	
-0.390381	
-0.391541	
-0.389771	
-0.389465	
-0.387451	
-0.389587	
-0.389771	
-0.389832	
-0.390198	
-0.388977	
-0.387939	
-0.389343	
-0.390625	
-0.38916	
-0.388611	
-0.387817	
-0.389343	
-0.389221	
-0.389282	
-0.389465	
-0.38916	
-0.387512	
-0.388977	
-0.390198	
-0.389221	
-0.388916	
-0.38855	
-0.389282	
-0.389465	
-0.390076	
-0.390747	
-0.390564	
-0.390442	
-0.390564	
-0.391235	
-0.390869	
-0.390869	
-0.389893	
-0.391113	
-0.391724	
-0.391907	
-0.392151	
-0.391907	
-0.390991	
-0.393127	
-0.392151	
-0.392944	
-0.392578	
-0.393616	
-0.394409	
-0.394226	
-0.393982	
-0.394348	
-0.394531	
-0.394226	
-0.396362	
-0.394043	
-0.393311	
-0.392944	
-0.393433	
-0.393616	
-0.393677	
-0.394165	
-0.394165	
-0.393677	
-0.393494	
-0.395569	
-0.393616	
-0.393127	
-0.392029	
-0.393921	
-0.394348	
-0.393982	
-0.394409	
-0.393555	
-0.392944	
-0.392944	
-0.395691	
-0.393921	
-0.393494	
-0.391602	
-0.393494	
-0.393433	
-0.393677	
-0.393677	
-0.393005	
-0.393066	
-0.393311	
-0.39386	
-0.393066	
-0.3927	
-0.390869	
-0.3927	
-0.392334	
-0.392639	
-0.392334	
-0.391846	
-0.391968	
-0.391785	
-0.391541	
-0.391296	
-0.390991	
-0.390076	
-0.391846	
-0.391907	
-0.392273	
-0.393311	
-0.392456	
-0.392456	
-0.393311	
-0.393433	
-0.392944	
-0.393188	
-0.392944	
-0.394958	
-0.394653	
-0.39563	
-0.396179	
-0.39563	
-0.395447	
-0.395691	
-0.395691	
-0.395508	
-0.395325	
-0.39502	
-0.395325	
-0.395813	
-0.39624	
-0.395813	
-0.394775	
-0.394409	
-0.39502	
-0.395081	
-0.394714	
-0.393738	
-0.39386	
-0.394226	
-0.393921	
-0.394104	
-0.393188	
-0.392395	
-0.391418	
-0.392212	
-0.391296	
-0.39093	
-0.390137	
-0.390564	
-0.390625	
-0.390503	
-0.391174	
-0.390625	
-0.390381	
-0.389526	
-0.3927	
-0.390625	
-0.39093	
-0.389893	
-0.390808	
-0.391479	
-0.391724	
-0.391968	
-0.391235	
-0.391541	
-0.390442	
-0.393616	
-0.391357	
-0.391602	
-0.390747	
-0.392578	
-0.392517	
-0.392395	
-0.393433	
-0.392639	
-0.392578	
-0.392395	
-0.394714	
-0.393066	
-0.392578	
-0.391174	
-0.393433	
-0.394775	
-0.39502	
-0.396057	
-0.39563	
-0.395325	
-0.394958	
-0.39801	
-0.396423	
-0.39624	
-0.394897	
-0.396729	
-0.397522	
-0.398499	
-0.397827	
-0.398193	
-0.397949	
-0.397583	
-0.399658	
-0.39801	
-0.398071	
-0.395996	
-0.397705	
-0.398254	
-0.398743	
-0.398193	
-0.397644	
-0.397217	
-0.397095	
-0.396851	
-0.396118	
-0.39563	
-0.393677	
-0.396057	
-0.396301	
-0.396851	
-0.395264	
-0.395203	
-0.394897	
-0.395874	
-0.396484	
-0.395386	
-0.394836	
-0.394165	
-0.395203	
-0.394775	
-0.395569	
-0.394165	
-0.394287	
-0.393799	
-0.395142	
-0.394043	
-0.393677	
-0.393433	
-0.393066	
-0.393799	
-0.393372	
-0.395081	
-0.393494	
-0.393311	
-0.3927	
-0.395813	
-0.394043	
-0.39325	
-0.393555	
-0.393799	
-0.393982	
-0.394043	
-0.395813	
-0.394165	
-0.393433	
-0.392273	
-0.395813	
-0.393799	
-0.393738	
-0.393738	
-0.39447	
-0.393982	
-0.394897	
-0.39502	
-0.394592	
-0.394653	
-0.39386	
-0.396545	
-0.395142	
-0.395142	
-0.393494	
-0.394958	
-0.395386	
-0.395752	
-0.395142	
-0.395142	
-0.395752	
-0.395386	
-0.396851	
-0.395264	
-0.395264	
-0.394348	
-0.395203	
-0.395569	
-0.395447	
-0.395203	
-0.394836	
-0.394348	
-0.394043	
-0.395813	
-0.394165	
-0.39386	
-0.3927	
-0.393921	
-0.394104	
-0.394409	
-0.394043	
-0.393555	
-0.392578	
-0.394043	
-0.395508	
-0.393127	
-0.392578	
-0.391541	
-0.392334	
-0.392639	
-0.393433	
-0.391663	
-0.391296	
-0.391052	
-0.392944	
-0.392578	
-0.39093	
-0.390869	
-0.389038	
-0.391296	
-0.391235	
-0.392151	
-0.390991	
-0.391235	
-0.390869	
-0.391907	
-0.391907	
-0.391907	
-0.39093	
-0.391296	
-0.393799	
-0.394043	
-0.394592	
-0.394348	
-0.39502	
-0.394348	
-0.395874	
-0.395813	
-0.395874	
-0.39563	
-0.396057	
-0.397278	
-0.3974	
-0.398132	
-0.397705	
-0.398193	
-0.397644	
-0.398071	
-0.397705	
-0.398071	
-0.397217	
-0.397705	
-0.39856	
-0.398743	
-0.398926	
-0.398865	
-0.398621	
-0.398743	
-0.399109	
-0.398132	
-0.398315	
-0.398376	
-0.398865	
-0.399048	
-0.399109	
-0.399414	
-0.398804	
-0.398621	
-0.398499	
-0.399719	
-0.398682	
-0.398254	
-0.397827	
-0.398071	
-0.397522	
	
