E:\DOCUMENTS AND SETTINGS\JPOTAS\MEUS DOCUMENTOS\UFRJ\RSCI-BM 12 WK SERIES\070723-RSCI-BM-06\RSCI-BM-06-LEMG\070723-RSCI-BM-LEMG-0004.ACQ
0.025000 msec/sample
1 channel
Analog input
Volts
CH1	
2000	
-0.396973	
-0.396851	
-0.396729	
-0.396545	
-0.396912	
-0.395935	
-0.396606	
-0.395813	
-0.396057	
-0.395996	
-0.396118	
-0.396912	
-0.395386	
-0.395325	
-0.394958	
-0.394958	
-0.396301	
-0.395813	
-0.395752	
-0.395264	
-0.397217	
-0.395447	
-0.396851	
-0.396362	
-0.395691	
-0.39563	
-0.395874	
-0.397583	
-0.39679	
-0.397278	
-0.397156	
-0.397583	
-0.396423	
-0.397583	
-0.397766	
-0.397156	
-0.396606	
-0.396729	
-0.396301	
-0.396545	
-0.397217	
-0.396362	
-0.395508	
-0.397278	
-0.397156	
-0.397156	
-0.39624	
-0.396973	
-0.395508	
-0.396301	
-0.398376	
-0.397766	
-0.397461	
-0.397644	
-0.398926	
-0.396912	
-0.398438	
-0.398315	
-0.398193	
-0.397278	
-0.397644	
-0.398376	
-0.398254	
-0.399719	
-0.398621	
-0.398376	
-0.398438	
-0.399292	
-0.399597	
-0.397156	
-0.398743	
-0.398132	
-0.398315	
-0.398987	
-0.398682	
-0.397766	
-0.397339	
-0.398132	
-0.396057	
-0.396118	
-0.395386	
-0.395447	
-0.39447	
-0.39325	
-0.394348	
-0.394653	
-0.394714	
-0.393799	
-0.39447	
-0.394165	
-0.394348	
-0.395081	
-0.394348	
-0.393066	
-0.394043	
-0.394653	
-0.395325	
-0.395447	
-0.394897	
-0.39447	
-0.395874	
-0.396973	
-0.396545	
-0.395142	
-0.396667	
-0.397034	
-0.397888	
-0.398376	
-0.398621	
-0.399231	
-0.398621	
-0.400146	
-0.39978	
-0.399902	
-0.400452	
-0.401367	
-0.401245	
-0.399902	
-0.401855	
-0.401917	
-0.402893	
-0.402039	
-0.401978	
-0.402405	
-0.403503	
-0.403809	
-0.403015	
-0.402222	
-0.403198	
-0.403564	
-0.403564	
-0.403076	
-0.403442	
-0.402161	
-0.403137	
-0.403137	
-0.402222	
-0.400452	
-0.400757	
-0.40033	
-0.399597	
-0.401123	
-0.400208	
-0.400574	
-0.399536	
-0.400146	
-0.398926	
-0.398376	
-0.398621	
-0.398315	
-0.39801	
-0.39679	
-0.397278	
-0.397888	
-0.398315	
-0.397949	
-0.397217	
-0.39801	
-0.397583	
-0.398621	
-0.397156	
-0.397522	
-0.3974	
-0.397583	
-0.398743	
-0.398071	
-0.398682	
-0.397583	
-0.398438	
-0.398682	
-0.398438	
-0.398315	
-0.398315	
-0.397583	
-0.396973	
-0.398743	
-0.399353	
-0.399414	
-0.398682	
-0.397949	
-0.399353	
-0.398682	
-0.399597	
-0.400024	
-0.398987	
-0.399841	
-0.400208	
-0.400513	
-0.399658	
-0.400696	
-0.399475	
-0.39978	
-0.400085	
-0.400146	
-0.399231	
-0.398987	
-0.399048	
-0.394165	
-0.39386	
-0.393738	
-0.394287	
-0.394104	
-0.395203	
-0.39978	
-0.399048	
-0.398621	
-0.398743	
-0.39801	
-0.397461	
-0.393311	
-0.392212	
-0.393066	
-0.393982	
-0.392395	
-0.394287	
-0.399353	
-0.399902	
-0.397766	
-0.397766	
-0.397766	
-0.398132	
-0.398315	
-0.397888	
-0.398193	
-0.3974	
-0.398315	
-0.397217	
-0.397156	
-0.396729	
-0.396484	
-0.39624	
-0.39563	
-0.396301	
-0.395691	
-0.39624	
-0.396362	
-0.396729	
-0.395996	
-0.395752	
-0.396545	
-0.394348	
-0.394226	
-0.395081	
-0.395203	
-0.395386	
-0.396729	
-0.398193	
-0.397522	
-0.401978	
-0.404358	
-0.407471	
-0.409851	
-0.41394	
-0.417908	
-0.423523	
-0.42926	
-0.433167	
-0.438904	
-0.441711	
-0.448608	
-0.453003	
-0.4599	
-0.464539	
-0.472046	
-0.481873	
-0.493774	
-0.506531	
-0.518799	
-0.530823	
-0.539795	
-0.550232	
-0.557556	
-0.564514	
-0.569153	
-0.574402	
-0.578125	
-0.582214	
-0.584595	
-0.584717	
-0.585083	
-0.582214	
-0.581055	
-0.578186	
-0.575928	
-0.572876	
-0.570007	
-0.567871	
-0.566101	
-0.565369	
-0.563538	
-0.562256	
-0.559387	
-0.559082	
-0.556274	
-0.554016	
-0.551697	
-0.549927	
-0.54834	
-0.54718	
-0.547119	
-0.5448	
-0.54425	
-0.541504	
-0.539429	
-0.537659	
-0.536072	
-0.533569	
-0.529968	
-0.52771	
-0.523621	
-0.520264	
-0.515198	
-0.509766	
-0.504639	
-0.498657	
-0.495239	
-0.488342	
-0.485046	
-0.479675	
-0.475891	
-0.472229	
-0.469788	
-0.467285	
-0.464539	
-0.464355	
-0.459656	
-0.458862	
-0.455383	
-0.452942	
-0.448914	
-0.446167	
-0.442993	
-0.441223	
-0.440125	
-0.437622	
-0.435913	
-0.433472	
-0.432617	
-0.43103	
-0.429504	
-0.426636	
-0.4245	
-0.42218	
-0.420654	
-0.418579	
-0.415405	
-0.411072	
-0.406799	
-0.403137	
-0.399231	
-0.3927	
-0.388489	
-0.381592	
-0.376892	
-0.370605	
-0.364197	
-0.357971	
-0.349976	
-0.341736	
-0.332092	
-0.323547	
-0.313416	
-0.304871	
-0.294556	
-0.285095	
-0.276306	
-0.268738	
-0.262268	
-0.25531	
-0.250732	
-0.247437	
-0.245056	
-0.243835	
-0.243225	
-0.243103	
-0.244263	
-0.245728	
-0.248047	
-0.250916	
-0.252747	
-0.256714	
-0.258667	
-0.262268	
-0.265137	
-0.268188	
-0.271545	
-0.275513	
-0.278931	
-0.284668	
-0.289673	
-0.293884	
-0.298767	
-0.302368	
-0.307922	
-0.311096	
-0.315674	
-0.317993	
-0.322205	
-0.325195	
-0.327576	
-0.329529	
-0.332092	
-0.333252	
-0.335266	
-0.33728	
-0.338623	
-0.339294	
-0.340454	
-0.34137	
-0.344177	
-0.345581	
-0.345886	
-0.348755	
-0.34967	
-0.351746	
-0.352966	
-0.354065	
-0.354187	
-0.355225	
-0.358398	
-0.359802	
-0.361145	
-0.362488	
-0.36499	
-0.365112	
-0.367004	
-0.368042	
-0.369202	
-0.369202	
-0.370239	
-0.371948	
-0.372681	
-0.372559	
-0.373047	
-0.373596	
-0.372864	
-0.374207	
-0.374268	
-0.373596	
-0.373413	
-0.374268	
-0.374084	
-0.374451	
-0.374634	
-0.374023	
-0.374207	
-0.373657	
-0.373291	
-0.372681	
-0.372131	
-0.372192	
-0.371277	
-0.371765	
-0.371399	
-0.37085	
-0.370789	
-0.370605	
-0.3703	
-0.370483	
-0.369568	
-0.369568	
-0.369812	
-0.368958	
-0.369019	
-0.369568	
-0.369141	
-0.369385	
-0.36969	
-0.36908	
-0.369995	
-0.371521	
-0.370544	
-0.370911	
-0.371033	
-0.371765	
-0.372375	
-0.372314	
-0.372559	
-0.37323	
-0.372925	
-0.373291	
-0.374329	
-0.373718	
-0.37439	
-0.375305	
-0.374939	
-0.374756	
-0.375916	
-0.37616	
-0.377502	
-0.375427	
-0.376221	
-0.377075	
-0.377075	
-0.377502	
-0.377197	
-0.377747	
-0.378235	
-0.378601	
-0.378723	
-0.379333	
-0.380737	
-0.379517	
-0.378845	
-0.380493	
-0.380188	
-0.379211	
-0.380432	
-0.381287	
-0.380432	
-0.380554	
-0.380066	
-0.382019	
-0.381775	
-0.380554	
-0.378662	
-0.379639	
-0.380615	
-0.381042	
-0.380981	
-0.380737	
-0.381714	
-0.38208	
-0.382568	
-0.382263	
-0.381714	
-0.381104	
-0.382874	
-0.382874	
-0.385742	
-0.382629	
-0.384644	
-0.384277	
-0.385803	
-0.384705	
-0.385559	
-0.385315	
-0.385803	
-0.385315	
-0.386841	
-0.386475	
-0.387207	
-0.387146	
-0.387878	
-0.388245	
-0.387451	
-0.387207	
-0.387024	
-0.388367	
-0.387207	
-0.389832	
-0.388489	
-0.389221	
-0.388123	
-0.389832	
-0.389893	
-0.389282	
-0.387878	
-0.389282	
-0.389954	
-0.389954	
-0.390747	
-0.390686	
-0.391724	
-0.390747	
-0.392395	
-0.392761	
-0.392212	
-0.391113	
-0.391418	
-0.391602	
-0.392029	
-0.392273	
-0.3927	
-0.39209	
-0.391846	
-0.393677	
-0.39386	
-0.393494	
-0.391785	
-0.391968	
-0.392456	
-0.392883	
-0.393555	
-0.393188	
-0.392578	
-0.392151	
-0.392944	
-0.393188	
-0.392822	
-0.391052	
-0.390869	
-0.391785	
-0.391968	
-0.391541	
-0.390808	
-0.390991	
-0.390503	
-0.39032	
-0.390015	
-0.389648	
-0.388367	
-0.387512	
-0.388367	
-0.389465	
-0.389343	
-0.389465	
-0.389099	
-0.390076	
-0.389893	
-0.390076	
-0.389893	
-0.390137	
-0.38916	
-0.390564	
-0.392578	
-0.391296	
-0.391357	
-0.391663	
-0.393188	
-0.39325	
-0.394653	
-0.393127	
-0.393799	
-0.394287	
-0.395386	
-0.396118	
-0.396118	
-0.396851	
-0.396362	
-0.397583	
-0.397461	
-0.398926	
-0.396484	
-0.397583	
-0.396484	
-0.39801	
-0.398682	
-0.398315	
-0.398682	
-0.39801	
-0.398132	
-0.399719	
-0.39917	
-0.398499	
-0.397827	
-0.396301	
-0.39856	
-0.398865	
-0.398499	
-0.398193	
-0.398132	
-0.398621	
-0.399353	
-0.397949	
-0.39856	
-0.396851	
-0.397339	
-0.399109	
-0.398499	
-0.398132	
-0.398315	
-0.398315	
-0.398438	
-0.397949	
-0.397095	
-0.397583	
-0.395874	
-0.396729	
-0.397217	
-0.39679	
-0.396667	
-0.396301	
-0.39563	
-0.397095	
-0.397339	
-0.394958	
-0.395874	
-0.395935	
-0.395325	
-0.396423	
-0.396606	
-0.396362	
-0.396057	
-0.395264	
-0.397217	
-0.397583	
-0.395447	
-0.396179	
-0.395325	
-0.394775	
-0.396729	
-0.397583	
-0.39801	
-0.397583	
-0.396545	
-0.397644	
-0.398926	
-0.397217	
-0.398132	
-0.397339	
-0.397278	
-0.397705	
-0.399048	
-0.397949	
-0.39856	
-0.397583	
-0.39801	
-0.399414	
-0.397949	
-0.397522	
-0.396484	
-0.3974	
-0.398743	
-0.399658	
-0.398438	
-0.398804	
-0.39917	
-0.399841	
-0.40033	
-0.39917	
-0.399048	
-0.398743	
-0.400024	
-0.400269	
-0.400024	
-0.400269	
-0.400574	
-0.401001	
-0.400513	
-0.400818	
-0.399902	
-0.401001	
-0.400024	
-0.400085	
-0.400696	
-0.401001	
-0.401001	
-0.400391	
-0.401184	
-0.40033	
-0.400818	
-0.399292	
-0.400024	
-0.398743	
-0.398376	
-0.398621	
-0.398926	
-0.397461	
-0.39679	
-0.396973	
-0.396484	
-0.396912	
-0.395203	
-0.395935	
-0.39563	
-0.395569	
-0.396362	
-0.396729	
-0.396301	
-0.396973	
-0.396667	
-0.39624	
-0.397766	
-0.396729	
-0.397766	
-0.397644	
-0.397888	
-0.398499	
-0.399109	
-0.399658	
-0.399475	
-0.399292	
-0.399841	
-0.401794	
-0.399475	
-0.400513	
-0.401062	
-0.401245	
-0.402588	
-0.402832	
-0.403076	
-0.403748	
-0.404175	
-0.403748	
-0.405212	
-0.403198	
-0.404175	
-0.404602	
-0.404785	
-0.40448	
-0.40509	
-0.405823	
-0.405884	
-0.406372	
-0.404602	
-0.406555	
-0.405579	
-0.405334	
-0.405823	
-0.405212	
-0.404602	
-0.404907	
-0.405212	
-0.404053	
-0.404175	
-0.403198	
-0.404236	
-0.403687	
-0.402039	
-0.401794	
-0.402222	
-0.401917	
-0.401672	
-0.401184	
-0.400879	
-0.40155	
-0.401062	
-0.401245	
-0.400696	
-0.40033	
-0.39978	
-0.401245	
-0.400146	
-0.400513	
-0.400696	
-0.400452	
-0.401062	
-0.400513	
-0.400879	
-0.400757	
-0.400818	
-0.399475	
-0.400635	
-0.39917	
-0.400757	
-0.40094	
-0.401184	
-0.40094	
-0.401794	
-0.401184	
-0.401367	
-0.400574	
-0.40033	
-0.401489	
-0.400574	
-0.401611	
-0.402649	
-0.403259	
-0.402405	
-0.403503	
-0.40332	
-0.402893	
-0.40332	
-0.402588	
-0.402039	
-0.402161	
-0.40271	
-0.402161	
-0.403259	
-0.402344	
-0.402588	
-0.402893	
-0.40271	
-0.403564	
-0.401917	
-0.401184	
-0.402039	
-0.402222	
-0.401855	
-0.402161	
-0.402039	
-0.402344	
-0.402161	
-0.401428	
-0.401428	
-0.400696	
-0.40094	
-0.401855	
-0.401428	
-0.401306	
-0.401794	
-0.401794	
-0.401672	
-0.401306	
-0.400391	
-0.4021	
-0.401306	
-0.400513	
-0.400757	
-0.400757	
-0.400574	
-0.401184	
-0.401062	
-0.400635	
-0.39978	
-0.400391	
-0.400757	
-0.39801	
-0.397339	
-0.399597	
-0.399048	
-0.399536	
-0.399292	
-0.400146	
-0.398743	
-0.399536	
-0.400513	
-0.398987	
-0.398193	
-0.39801	
-0.398865	
-0.398315	
-0.398499	
-0.398254	
-0.398987	
-0.398621	
-0.399414	
-0.399719	
-0.398987	
-0.39856	
-0.398865	
-0.39917	
-0.398987	
-0.399536	
-0.400696	
-0.400696	
-0.401123	
-0.401611	
-0.402344	
-0.40094	
-0.402527	
-0.402039	
-0.402588	
-0.40271	
-0.403503	
-0.404053	
-0.403992	
-0.404724	
-0.404297	
-0.404297	
-0.403259	
-0.404785	
-0.403625	
-0.403259	
-0.402649	
-0.403442	
-0.403259	
-0.403687	
-0.403992	
-0.403381	
-0.403259	
-0.40271	
-0.403503	
-0.40094	
-0.399109	
-0.401062	
-0.400879	
-0.400391	
-0.400391	
-0.400146	
-0.399414	
-0.400269	
-0.400696	
-0.398743	
-0.397522	
-0.397583	
-0.398804	
-0.39856	
-0.397949	
-0.398071	
-0.398438	
-0.399048	
-0.399292	
-0.399536	
-0.397156	
-0.398071	
-0.397644	
-0.39801	
-0.39801	
-0.398132	
-0.397949	
-0.398071	
-0.398682	
-0.398804	
-0.398254	
-0.397705	
-0.397827	
-0.397644	
-0.397949	
-0.398438	
-0.398621	
-0.39917	
-0.398315	
-0.399719	
-0.399353	
-0.399597	
-0.399475	
-0.399597	
-0.398804	
-0.397644	
-0.398743	
-0.400452	
-0.401123	
-0.400452	
-0.401245	
-0.400146	
-0.401428	
-0.400818	
-0.401672	
-0.39978	
-0.39917	
-0.400269	
-0.401062	
-0.401062	
-0.40155	
-0.401367	
-0.401245	
-0.402283	
-0.402771	
-0.401611	
-0.401184	
-0.401489	
-0.400269	
-0.400818	
-0.400452	
-0.400818	
-0.401062	
-0.401184	
-0.400269	
-0.40094	
-0.39978	
-0.399902	
-0.399658	
-0.399475	
-0.399902	
-0.399963	
-0.39978	
-0.40033	
-0.400818	
-0.400574	
-0.40094	
-0.400513	
-0.400024	
-0.399353	
-0.399048	
-0.399536	
-0.400085	
-0.399841	
-0.399109	
-0.400208	
-0.399841	
-0.400635	
-0.400391	
-0.39917	
-0.398926	
-0.397644	
-0.398987	
-0.398865	
-0.398804	
-0.398621	
-0.399719	
-0.399231	
-0.399353	
-0.399658	
-0.398621	
-0.398315	
-0.397461	
-0.397034	
-0.398682	
-0.398438	
-0.39801	
-0.398926	
-0.398682	
-0.399109	
-0.399292	
-0.399536	
-0.399658	
-0.399597	
-0.399231	
-0.401367	
-0.401245	
-0.402039	
-0.402466	
-0.402832	
-0.402771	
-0.403442	
-0.403015	
-0.402588	
-0.401489	
-0.399963	
-0.402649	
-0.402832	
-0.402893	
-0.402893	
-0.403381	
-0.401917	
-0.403503	
-0.403259	
-0.401062	
-0.400391	
-0.399475	
-0.400635	
-0.400452	
-0.400391	
-0.399414	
-0.400391	
-0.399048	
-0.399719	
-0.399231	
-0.397888	
-0.397278	
-0.396851	
-0.396057	
-0.395508	
-0.395813	
-0.395691	
-0.395203	
-0.394958	
-0.395142	
-0.395142	
-0.394592	
-0.394287	
-0.393616	
-0.393066	
-0.393982	
-0.394104	
-0.394287	
-0.393494	
-0.393738	
-0.394104	
-0.393921	
-0.393799	
-0.393494	
-0.39325	
-0.392578	
-0.395508	
-0.395935	
-0.396118	
-0.396484	
-0.397644	
-0.397217	
-0.397766	
-0.39917	
-0.397522	
-0.396912	
-0.397461	
-0.398804	
-0.398499	
-0.398804	
-0.398804	
-0.39917	
-0.398499	
-0.399963	
-0.40033	
-0.398499	
-0.398804	
-0.398743	
-0.398926	
-0.398438	
-0.398438	
-0.398987	
-0.39917	
-0.398682	
-0.398865	
-0.398804	
-0.399353	
-0.398499	
-0.398804	
-0.39679	
-0.398621	
-0.398682	
-0.398865	
-0.398315	
-0.398315	
-0.399231	
-0.399048	
-0.399048	
-0.398132	
-0.395752	
-0.396729	
-0.397644	
-0.39679	
-0.396423	
-0.396912	
-0.397461	
-0.396667	
-0.397827	
-0.397644	
-0.397034	
-0.395935	
-0.394897	
-0.39679	
-0.397827	
-0.397278	
-0.397156	
-0.397888	
-0.397156	
-0.398499	
-0.39856	
-0.39801	
-0.397217	
-0.39679	
-0.396606	
-0.397766	
-0.397522	
-0.397949	
-0.398315	
-0.398132	
-0.398315	
-0.398499	
-0.397949	
-0.397644	
-0.397583	
-0.39502	
-0.397644	
-0.398193	
-0.397949	
-0.398132	
-0.397888	
-0.398438	
-0.398865	
-0.398804	
-0.398376	
-0.397095	
-0.39801	
-0.398621	
-0.39917	
-0.399414	
-0.399048	
-0.399902	
-0.399597	
-0.40094	
-0.400696	
-0.40033	
-0.399841	
-0.398865	
-0.400269	
-0.400574	
-0.400024	
-0.400024	
-0.400757	
-0.400146	
-0.401184	
-0.40033	
-0.400208	
-0.400818	
-0.398987	
-0.399231	
-0.400757	
-0.400391	
-0.400024	
-0.400818	
-0.399963	
-0.399597	
-0.400452	
-0.398865	
-0.398682	
-0.397095	
-0.396362	
-0.398621	
-0.398132	
-0.397766	
-0.397766	
-0.39801	
-0.397034	
-0.397705	
-0.397095	
-0.395081	
-0.394531	
-0.394104	
-0.39502	
-0.395081	
-0.394714	
-0.395203	
-0.395752	
-0.395508	
-0.396973	
-0.396179	
-0.395081	
-0.396057	
-0.395264	
-0.395386	
-0.396057	
-0.396973	
-0.396973	
-0.39679	
-0.397644	
-0.39856	
-0.398682	
-0.397339	
-0.398132	
-0.398499	
-0.397766	
-0.399597	
-0.400085	
-0.400024	
-0.400818	
-0.401428	
-0.401184	
-0.401367	
-0.401672	
-0.400635	
-0.398865	
-0.39917	
-0.401367	
-0.401123	
-0.400696	
-0.401184	
-0.40155	
-0.400818	
-0.402893	
-0.402161	
-0.401367	
-0.401001	
-0.401001	
-0.400818	
-0.400513	
-0.401245	
-0.400391	
-0.400391	
-0.401367	
-0.40271	
-0.401855	
-0.399841	
-0.39978	
-0.400696	
-0.400513	
-0.400757	
-0.400208	
-0.400146	
-0.400024	
-0.401245	
-0.399414	
-0.398682	
-0.398376	
-0.398804	
-0.398804	
-0.396179	
-0.398621	
-0.398193	
-0.398499	
-0.398376	
-0.398254	
-0.39801	
-0.398743	
-0.398804	
-0.397034	
-0.395996	
-0.397705	
-0.397888	
-0.398499	
-0.397644	
-0.397827	
-0.398193	
-0.399109	
-0.399597	
-0.400024	
-0.397339	
-0.396851	
-0.398682	
-0.398804	
-0.399353	
-0.398865	
-0.399231	
-0.399475	
-0.400024	
-0.400024	
-0.400269	
-0.399292	
-0.397949	
-0.398499	
-0.398132	
-0.39917	
-0.39917	
-0.398804	
-0.398926	
-0.399231	
-0.400513	
-0.399475	
-0.400269	
-0.398438	
-0.398621	
-0.398499	
-0.399597	
-0.399475	
-0.399841	
-0.400635	
-0.400513	
-0.401184	
-0.400696	
-0.401367	
-0.399231	
-0.399841	
-0.398987	
-0.400513	
-0.400391	
-0.400574	
-0.400391	
-0.400513	
-0.4021	
-0.401978	
-0.4021	
-0.400757	
-0.400513	
-0.400452	
-0.400024	
-0.400574	
-0.40033	
-0.399475	
-0.399475	
-0.399658	
-0.399475	
-0.399048	
-0.397949	
-0.396118	
-0.395813	
-0.396179	
-0.39563	
-0.395996	
-0.396057	
-0.395874	
-0.396118	
-0.39624	
-0.397095	
-0.397034	
-0.39386	
-0.395752	
-0.396362	
-0.396606	
-0.396851	
-0.397217	
-0.398071	
-0.39801	
-0.399719	
-0.399658	
-0.398682	
-0.39801	
-0.398315	
-0.398621	
-0.399536	
-0.399719	
-0.400757	
-0.400574	
-0.400818	
-0.403076	
-0.402344	
-0.403503	
-0.402954	
-0.402527	
-0.4021	
-0.402649	
-0.404175	
-0.404053	
-0.404175	
-0.403687	
-0.404358	
-0.405151	
-0.40625	
-0.40564	
-0.403442	
-0.404358	
-0.40509	
-0.405151	
-0.40509	
-0.404785	
-0.404541	
-0.404358	
-0.405518	
-0.405273	
-0.403809	
-0.401978	
-0.402832	
-0.402283	
-0.401123	
-0.401917	
-0.401978	
-0.401672	
-0.401367	
-0.402466	
-0.400879	
-0.400879	
-0.40033	
-0.399719	
-0.398865	
-0.399292	
-0.399475	
-0.399109	
-0.399963	
-0.39978	
-0.400391	
-0.400269	
-0.400879	
-0.400452	
-0.398376	
-0.398254	
-0.399902	
-0.400574	
-0.399719	
-0.399597	
-0.399597	
-0.399658	
-0.401001	
-0.400452	
-0.400696	
-0.39917	
-0.400085	
-0.399658	
-0.400024	
-0.400513	
-0.400757	
-0.400635	
-0.401062	
-0.402832	
-0.401917	
-0.401245	
-0.401062	
-0.401611	
-0.400757	
-0.400879	
-0.401428	
-0.401367	
-0.401855	
-0.401672	
-0.402466	
-0.401794	
-0.401489	
-0.401733	
-0.401001	
-0.399109	
-0.400574	
-0.401001	
-0.400513	
-0.401245	
-0.401306	
-0.401733	
-0.401794	
-0.4021	
-0.401001	
-0.398376	
-0.399414	
-0.399719	
-0.400635	
-0.40033	
-0.400635	
-0.400635	
-0.400452	
-0.402527	
-0.401306	
-0.399902	
-0.399719	
-0.399597	
-0.399475	
-0.39978	
-0.400208	
-0.399841	
-0.399902	
-0.399536	
-0.400024	
-0.400269	
-0.400085	
-0.399841	
-0.397888	
-0.397888	
-0.397461	
-0.398193	
-0.397644	
-0.397827	
-0.397461	
-0.397827	
-0.399353	
-0.39856	
-0.398315	
-0.39624	
-0.39563	
-0.397278	
-0.397644	
-0.397339	
-0.39679	
-0.397278	
-0.397339	
-0.398987	
-0.397949	
-0.397034	
-0.397034	
-0.396973	
-0.397522	
-0.397705	
-0.398071	
-0.398438	
-0.398865	
-0.399109	
-0.399902	
-0.400391	
-0.39978	
-0.399231	
-0.397827	
-0.399902	
-0.399841	
-0.401733	
-0.402039	
-0.402405	
-0.402527	
-0.402954	
-0.404297	
-0.402832	
-0.403198	
-0.400696	
-0.400452	
-0.402344	
-0.402466	
-0.402466	
-0.402466	
-0.401917	
-0.402161	
-0.403992	
-0.402954	
-0.40155	
-0.40094	
-0.399902	
-0.40033	
-0.400391	
-0.400452	
-0.399963	
-0.399658	
-0.399536	
-0.399353	
-0.399536	
-0.39801	
-0.397095	
-0.395081	
-0.396973	
-0.396301	
-0.3974	
-0.397034	
-0.397034	
-0.396973	
-0.396912	
-0.398804	
-0.396729	
-0.397339	
-0.395325	
-0.395935	
-0.396057	
-0.396484	
-0.396057	
-0.396606	
-0.396179	
-0.396667	
-0.398682	
-0.397705	
-0.397339	
-0.396179	
-0.394836	
-0.396545	
-0.397339	
-0.39679	
-0.397095	
-0.397644	
-0.397583	
-0.398071	
-0.399048	
-0.397949	
-0.3974	
-0.396729	
-0.398193	
-0.398071	
-0.398682	
-0.398743	
-0.398865	
-0.399048	
-0.398743	
-0.400024	
-0.399658	
-0.399475	
-0.397766	
-0.397644	
-0.397888	
-0.399536	
-0.399353	
-0.39917	
-0.399292	
-0.400146	
-0.401794	
-0.401794	
-0.400757	
-0.398987	
-0.398865	
-0.399231	
-0.39917	
-0.399658	
-0.400513	
-0.399719	
-0.398865	
-0.399475	
-0.399963	
-0.399475	
-0.398499	
-0.395813	
-0.398071	
-0.398865	
-0.398193	
-0.397827	
-0.398682	
-0.398438	
-0.398499	
-0.400452	
-0.398987	
-0.398621	
-0.397156	
-0.396118	
-0.397705	
-0.397766	
-0.397339	
-0.398499	
-0.398438	
-0.39801	
-0.399475	
-0.399719	
-0.39801	
-0.397339	
-0.396667	
-0.396362	
-0.397339	
-0.397095	
-0.397156	
-0.397339	
-0.39679	
-0.397644	
-0.398621	
-0.397644	
-0.396179	
-0.395691	
-0.395874	
-0.396484	
-0.396301	
-0.396423	
-0.396545	
-0.396973	
-0.397583	
-0.397705	
-0.397766	
-0.396851	
-0.395874	
-0.395813	
-0.398193	
-0.398987	
-0.399841	
-0.400085	
-0.400574	
-0.400879	
-0.402466	
-0.402527	
-0.401001	
-0.400269	
-0.400085	
-0.400818	
-0.40094	
-0.401123	
-0.401245	
-0.401306	
-0.400757	
-0.401428	
-0.401855	
-0.400635	
-0.399536	
-0.398743	
-0.398376	
-0.398987	
-0.399048	
-0.398743	
-0.39801	
-0.398376	
-0.39801	
-0.398438	
-0.397766	
-0.396606	
-0.394409	
-0.393188	
-0.395081	
-0.394653	
-0.394592	
-0.393188	
-0.393372	
-0.393433	
-0.395874	
-0.394226	
-0.393127	
-0.391052	
-0.391479	
-0.39032	
-0.392395	
-0.391846	
-0.391724	
-0.391235	
-0.39209	
-0.391785	
-0.393677	
-0.392517	
-0.392273	
-0.390991	
-0.391724	
-0.392761	
-0.393616	
-0.394653	
-0.394592	
-0.394897	
-0.395569	
-0.39679	
-0.396912	
-0.395813	
-0.39386	
-0.395447	
-0.395325	
-0.396912	
-0.397156	
-0.397278	
-0.397095	
-0.397705	
-0.399231	
-0.397888	
-0.397034	
-0.396667	
-0.395691	
-0.396545	
-0.397278	
-0.396851	
-0.397217	
-0.397034	
-0.397156	
-0.397644	
-0.39801	
-0.397461	
-0.397217	
-0.396118	
-0.396423	
-0.396423	
-0.397461	
-0.396851	
-0.396851	
-0.397156	
-0.397339	
-0.397827	
-0.397217	
-0.396057	
-0.393677	
-0.395203	
-0.395203	
-0.39563	
-0.394592	
-0.394287	
-0.395264	
-0.395447	
-0.395752	
-0.39624	
-0.395813	
-0.393738	
-0.394043	
-0.395325	
-0.395325	
-0.395813	
-0.395203	
-0.39563	
-0.395874	
-0.39801	
-0.397034	
-0.395752	
-0.394836	
-0.394775	
-0.395569	
-0.395935	
-0.396118	
-0.39624	
-0.395996	
-0.396545	
-0.396729	
-0.395813	
-0.396423	
-0.39624	
-0.395935	
-0.394409	
-0.39563	
-0.395874	
-0.396118	
-0.396423	
-0.395996	
-0.396057	
-0.396301	
-0.397644	
-0.397217	
-0.395142	
-0.39447	
-0.396179	
-0.39679	
-0.397156	
-0.39679	
-0.397156	
-0.39801	
-0.39917	
-0.398987	
-0.39856	
-0.39679	
-0.397827	
-0.397644	
-0.397644	
-0.397766	
-0.398193	
-0.398193	
-0.398682	
-0.400208	
-0.399536	
-0.399048	
-0.398621	
-0.398682	
-0.397034	
-0.397522	
-0.398743	
-0.398438	
-0.39856	
-0.39856	
-0.398865	
-0.397827	
-0.399414	
-0.398254	
-0.395813	
-0.396301	
-0.396729	
-0.396667	
-0.396423	
-0.396667	
-0.395752	
-0.39502	
-0.395996	
-0.395386	
-0.393738	
-0.392151	
-0.393066	
-0.393188	
-0.392456	
-0.393433	
-0.393127	
-0.393066	
-0.393311	
-0.39447	
-0.39325	
-0.393616	
-0.394104	
-0.393494	
-0.392212	
-0.393555	
-0.394531	
-0.394531	
-0.394897	
-0.395203	
-0.39563	
-0.395996	
-0.397888	
-0.397278	
-0.394714	
-0.397522	
-0.397461	
-0.397583	
-0.398254	
-0.398315	
-0.398193	
-0.398254	
-0.400574	
-0.399353	
-0.399109	
-0.398132	
-0.398438	
-0.398499	
-0.398315	
-0.39978	
-0.399414	
-0.399353	
-0.399597	
-0.400574	
-0.399475	
-0.399414	
-0.399109	
-0.39856	
-0.396973	
-0.398865	
-0.399292	
-0.399048	
-0.398865	
-0.398743	
-0.399536	
-0.399475	
-0.399963	
-0.398743	
-0.396545	
-0.398438	
-0.398743	
-0.399231	
-0.398315	
-0.398193	
-0.397583	
-0.397705	
	
