E:\DOCUMENTS AND SETTINGS\JPOTAS\MEUS DOCUMENTOS\UFRJ\RSCI-BM 12 WK SERIES\070723-RSCI-BM-06\RSCI-BM-06-LEMG\070723-RSCI-BM-LEMG-0009.ACQ
0.025000 msec/sample
1 channel
Analog input
Volts
CH1	
2000	
-0.394836	
-0.396118	
-0.394409	
-0.394409	
-0.393127	
-0.393738	
-0.394226	
-0.393921	
-0.394775	
-0.393433	
-0.394653	
-0.39386	
-0.394897	
-0.393982	
-0.393555	
-0.392334	
-0.393188	
-0.393555	
-0.393616	
-0.393921	
-0.394287	
-0.394287	
-0.393677	
-0.394226	
-0.394165	
-0.393799	
-0.394287	
-0.394409	
-0.394592	
-0.394287	
-0.394653	
-0.396057	
-0.395325	
-0.394958	
-0.39563	
-0.394714	
-0.393188	
-0.394714	
-0.394165	
-0.393921	
-0.394348	
-0.394531	
-0.39502	
-0.394531	
-0.394104	
-0.394775	
-0.393616	
-0.393372	
-0.39447	
-0.394531	
-0.394531	
-0.394836	
-0.394897	
-0.396118	
-0.395508	
-0.396423	
-0.396057	
-0.395325	
-0.395508	
-0.396118	
-0.396057	
-0.396484	
-0.396484	
-0.396301	
-0.397461	
-0.3974	
-0.397034	
-0.3974	
-0.397583	
-0.39679	
-0.396729	
-0.396606	
-0.397217	
-0.396301	
-0.395264	
-0.396973	
-0.39624	
-0.396423	
-0.396057	
-0.395874	
-0.394897	
-0.394836	
-0.394714	
-0.394592	
-0.394226	
-0.39325	
-0.394165	
-0.393433	
-0.393982	
-0.393127	
-0.39209	
-0.391846	
-0.391968	
-0.391418	
-0.391602	
-0.391602	
-0.39093	
-0.391479	
-0.391663	
-0.392395	
-0.39209	
-0.391052	
-0.391785	
-0.392395	
-0.391663	
-0.392456	
-0.392578	
-0.391663	
-0.393066	
-0.393555	
-0.394226	
-0.39447	
-0.394409	
-0.395142	
-0.395325	
-0.395447	
-0.396851	
-0.396484	
-0.396118	
-0.39679	
-0.39801	
-0.397217	
-0.397278	
-0.397339	
-0.397339	
-0.396179	
-0.396545	
-0.3974	
-0.397034	
-0.397156	
-0.397644	
-0.398865	
-0.397461	
-0.397827	
-0.398499	
-0.397766	
-0.396423	
-0.396179	
-0.397095	
-0.397766	
-0.397827	
-0.397095	
-0.398376	
-0.397461	
-0.397339	
-0.397705	
-0.396362	
-0.395508	
-0.396606	
-0.397644	
-0.396973	
-0.395691	
-0.395447	
-0.3974	
-0.396545	
-0.395325	
-0.396301	
-0.39447	
-0.393982	
-0.39386	
-0.395081	
-0.394836	
-0.394836	
-0.393738	
-0.395386	
-0.394653	
-0.394592	
-0.395325	
-0.393921	
-0.39325	
-0.394043	
-0.39563	
-0.39447	
-0.394714	
-0.394348	
-0.394775	
-0.394653	
-0.394409	
-0.395569	
-0.394592	
-0.393982	
-0.394897	
-0.395569	
-0.39502	
-0.395508	
-0.395142	
-0.395813	
-0.394836	
-0.395081	
-0.395203	
-0.39502	
-0.393921	
-0.394653	
-0.394775	
-0.394653	
-0.395142	
-0.394531	
-0.390991	
-0.390015	
-0.391052	
-0.391113	
-0.390015	
-0.390015	
-0.394287	
-0.395203	
-0.396179	
-0.395264	
-0.394348	
-0.395264	
-0.395142	
-0.395752	
-0.396301	
-0.395325	
-0.39447	
-0.395569	
-0.394714	
-0.395752	
-0.396118	
-0.396118	
-0.395569	
-0.396667	
-0.397156	
-0.396851	
-0.395935	
-0.39563	
-0.396484	
-0.395569	
-0.396729	
-0.396301	
-0.395996	
-0.395264	
-0.396362	
-0.39624	
-0.395752	
-0.395264	
-0.394714	
-0.395203	
-0.394775	
-0.395752	
-0.394714	
-0.393616	
-0.393677	
-0.395203	
-0.395325	
-0.395508	
-0.395813	
-0.396484	
-0.398499	
-0.400879	
-0.400452	
-0.402161	
-0.406494	
-0.410828	
-0.416504	
-0.421082	
-0.430298	
-0.434875	
-0.438599	
-0.444641	
-0.450256	
-0.456055	
-0.462952	
-0.471008	
-0.478516	
-0.489685	
-0.502502	
-0.516907	
-0.529419	
-0.540161	
-0.550842	
-0.560242	
-0.569275	
-0.575684	
-0.582031	
-0.587585	
-0.59137	
-0.595032	
-0.596436	
-0.59613	
-0.59613	
-0.593811	
-0.591919	
-0.589783	
-0.58783	
-0.585999	
-0.584961	
-0.582825	
-0.5802	
-0.578979	
-0.577881	
-0.576904	
-0.574463	
-0.574097	
-0.572754	
-0.571472	
-0.56958	
-0.56897	
-0.566406	
-0.564148	
-0.562744	
-0.561218	
-0.559143	
-0.557129	
-0.557007	
-0.554016	
-0.551392	
-0.547913	
-0.546082	
-0.541443	
-0.53595	
-0.529846	
-0.523926	
-0.518433	
-0.51178	
-0.508057	
-0.502136	
-0.497437	
-0.493774	
-0.491882	
-0.488342	
-0.486206	
-0.483704	
-0.482361	
-0.480652	
-0.479553	
-0.478149	
-0.47644	
-0.475281	
-0.47345	
-0.472351	
-0.469849	
-0.469543	
-0.468384	
-0.467834	
-0.467163	
-0.466736	
-0.467896	
-0.467529	
-0.467957	
-0.466797	
-0.468323	
-0.46759	
-0.466248	
-0.464233	
-0.463196	
-0.461365	
-0.459045	
-0.456543	
-0.453735	
-0.449463	
-0.444885	
-0.442017	
-0.436401	
-0.42981	
-0.422913	
-0.416504	
-0.408142	
-0.398132	
-0.389709	
-0.378662	
-0.367676	
-0.355835	
-0.34613	
-0.334961	
-0.326111	
-0.317749	
-0.31073	
-0.305054	
-0.300598	
-0.298401	
-0.297607	
-0.297424	
-0.297119	
-0.298767	
-0.300476	
-0.301514	
-0.301819	
-0.303955	
-0.306641	
-0.309021	
-0.312195	
-0.314453	
-0.318298	
-0.321472	
-0.326355	
-0.331543	
-0.335876	
-0.341675	
-0.345947	
-0.351257	
-0.356812	
-0.361938	
-0.366638	
-0.371765	
-0.376953	
-0.380676	
-0.384583	
-0.387634	
-0.391052	
-0.395081	
-0.398254	
-0.40094	
-0.403564	
-0.406311	
-0.40741	
-0.409729	
-0.411621	
-0.412842	
-0.413086	
-0.412537	
-0.412537	
-0.413208	
-0.413635	
-0.413635	
-0.41449	
-0.414185	
-0.414978	
-0.415771	
-0.415527	
-0.41626	
-0.41571	
-0.415222	
-0.416321	
-0.417053	
-0.416748	
-0.416687	
-0.417725	
-0.417175	
-0.417603	
-0.416565	
-0.416931	
-0.4151	
-0.414917	
-0.413513	
-0.413086	
-0.410767	
-0.408569	
-0.406616	
-0.402344	
-0.399719	
-0.394897	
-0.390564	
-0.384399	
-0.380676	
-0.374878	
-0.370483	
-0.364685	
-0.359619	
-0.356201	
-0.351868	
-0.349609	
-0.346313	
-0.343933	
-0.340942	
-0.340881	
-0.339417	
-0.340088	
-0.340027	
-0.339539	
-0.340759	
-0.341492	
-0.342346	
-0.341187	
-0.342468	
-0.341919	
-0.342407	
-0.343628	
-0.343628	
-0.344421	
-0.345215	
-0.344971	
-0.346619	
-0.346497	
-0.347717	
-0.3479	
-0.348022	
-0.348755	
-0.350586	
-0.350891	
-0.351868	
-0.352356	
-0.353882	
-0.355591	
-0.355164	
-0.357178	
-0.357239	
-0.358826	
-0.359863	
-0.361633	
-0.36145	
-0.361694	
-0.364136	
-0.363953	
-0.363892	
-0.363892	
-0.364136	
-0.362488	
-0.364319	
-0.364624	
-0.364746	
-0.364807	
-0.365173	
-0.366394	
-0.366882	
-0.366394	
-0.365845	
-0.366638	
-0.366882	
-0.368469	
-0.369995	
-0.370117	
-0.370544	
-0.371155	
-0.37146	
-0.372742	
-0.372314	
-0.373352	
-0.373474	
-0.37439	
-0.374695	
-0.375916	
-0.376404	
-0.377502	
-0.377441	
-0.377991	
-0.380005	
-0.379333	
-0.380615	
-0.379333	
-0.38092	
-0.380798	
-0.38269	
-0.382996	
-0.38269	
-0.383301	
-0.383789	
-0.384766	
-0.383728	
-0.384216	
-0.383972	
-0.384644	
-0.384705	
-0.38562	
-0.385437	
-0.386047	
-0.38678	
-0.387268	
-0.387146	
-0.386719	
-0.386841	
-0.38678	
-0.386963	
-0.387634	
-0.388	
-0.388184	
-0.387451	
-0.388489	
-0.389099	
-0.389343	
-0.389099	
-0.389221	
-0.389221	
-0.390381	
-0.391479	
-0.391357	
-0.391968	
-0.392578	
-0.393799	
-0.39447	
-0.394165	
-0.394714	
-0.393494	
-0.39502	
-0.394897	
-0.395447	
-0.395569	
-0.395203	
-0.395264	
-0.396362	
-0.396179	
-0.395874	
-0.395203	
-0.394958	
-0.395264	
-0.39386	
-0.395203	
-0.394409	
-0.394165	
-0.394531	
-0.394836	
-0.393066	
-0.393433	
-0.390686	
-0.391785	
-0.392334	
-0.392029	
-0.392212	
-0.390991	
-0.390442	
-0.388794	
-0.389465	
-0.388428	
-0.38855	
-0.387207	
-0.387085	
-0.386841	
-0.387207	
-0.386414	
-0.385681	
-0.385315	
-0.38678	
-0.385559	
-0.384827	
-0.383789	
-0.383545	
-0.38385	
-0.383118	
-0.384399	
-0.383118	
-0.382996	
-0.383484	
-0.383545	
-0.38269	
-0.382568	
-0.381409	
-0.38324	
-0.382751	
-0.382935	
-0.383789	
-0.383667	
-0.384094	
-0.384888	
-0.385254	
-0.384399	
-0.385254	
-0.385193	
-0.385376	
-0.385803	
-0.386536	
-0.386719	
-0.38678	
-0.38739	
-0.388672	
-0.388428	
-0.387756	
-0.387573	
-0.387756	
-0.388245	
-0.387756	
-0.389771	
-0.389465	
-0.389526	
-0.389465	
-0.390198	
-0.390747	
-0.390076	
-0.389771	
-0.388916	
-0.389587	
-0.389771	
-0.390625	
-0.390137	
-0.389465	
-0.390015	
-0.39032	
-0.390503	
-0.38916	
-0.387512	
-0.388	
-0.389099	
-0.389221	
-0.388794	
-0.388855	
-0.388306	
-0.38916	
-0.388855	
-0.389038	
-0.388977	
-0.387878	
-0.387512	
-0.388062	
-0.388794	
-0.388367	
-0.387878	
-0.387268	
-0.388916	
-0.388977	
-0.389648	
-0.388733	
-0.388428	
-0.388	
-0.389038	
-0.389832	
-0.388916	
-0.388855	
-0.389587	
-0.391357	
-0.389954	
-0.390381	
-0.389832	
-0.390137	
-0.389648	
-0.390198	
-0.390503	
-0.390015	
-0.389648	
-0.389221	
-0.390808	
-0.389465	
-0.39093	
-0.390076	
-0.390503	
-0.390015	
-0.389893	
-0.390625	
-0.39093	
-0.391357	
-0.390991	
-0.392517	
-0.391907	
-0.393799	
-0.391968	
-0.39209	
-0.39209	
-0.392029	
-0.393311	
-0.393799	
-0.393433	
-0.394043	
-0.395142	
-0.394226	
-0.39447	
-0.393738	
-0.394531	
-0.393616	
-0.394897	
-0.395142	
-0.394531	
-0.394348	
-0.395691	
-0.394653	
-0.393921	
-0.393616	
-0.394348	
-0.39325	
-0.392883	
-0.393982	
-0.393005	
-0.392517	
-0.392151	
-0.393311	
-0.391907	
-0.392517	
-0.391113	
-0.391296	
-0.389771	
-0.390259	
-0.390747	
-0.389709	
-0.389893	
-0.389526	
-0.390564	
-0.389343	
-0.390503	
-0.387817	
-0.388977	
-0.389282	
-0.388855	
-0.389832	
-0.389893	
-0.39032	
-0.390015	
-0.390869	
-0.390686	
-0.391357	
-0.39032	
-0.391296	
-0.391174	
-0.392517	
-0.392822	
-0.393555	
-0.394226	
-0.39447	
-0.394409	
-0.395264	
-0.394897	
-0.394165	
-0.394592	
-0.393982	
-0.39563	
-0.395447	
-0.395935	
-0.395447	
-0.395996	
-0.395752	
-0.395996	
-0.395996	
-0.395569	
-0.395508	
-0.395264	
-0.396606	
-0.396057	
-0.395386	
-0.395508	
-0.397034	
-0.395813	
-0.396301	
-0.395447	
-0.395691	
-0.395264	
-0.394958	
-0.396484	
-0.395203	
-0.39502	
-0.394958	
-0.397034	
-0.394714	
-0.395203	
-0.395081	
-0.394592	
-0.394531	
-0.393066	
-0.393555	
-0.393738	
-0.393616	
-0.392761	
-0.393616	
-0.392822	
-0.39325	
-0.392639	
-0.392273	
-0.39209	
-0.392395	
-0.393005	
-0.392822	
-0.392822	
-0.391602	
-0.39386	
-0.392456	
-0.392761	
-0.392639	
-0.39325	
-0.392456	
-0.393066	
-0.393372	
-0.392944	
-0.393372	
-0.393127	
-0.394592	
-0.393494	
-0.394226	
-0.391846	
-0.393799	
-0.393311	
-0.393616	
-0.394287	
-0.393738	
-0.393188	
-0.392822	
-0.393616	
-0.393372	
-0.394104	
-0.392334	
-0.393799	
-0.392578	
-0.392822	
-0.39386	
-0.393127	
-0.392639	
-0.392761	
-0.394104	
-0.39325	
-0.395203	
-0.392456	
-0.393738	
-0.393066	
-0.393677	
-0.394653	
-0.393982	
-0.393982	
-0.39447	
-0.39447	
-0.393799	
-0.395996	
-0.394165	
-0.394958	
-0.394409	
-0.39502	
-0.395264	
-0.395569	
-0.395142	
-0.394836	
-0.394836	
-0.395081	
-0.395813	
-0.394714	
-0.394531	
-0.393005	
-0.394409	
-0.394043	
-0.393982	
-0.393799	
-0.393738	
-0.393738	
-0.393677	
-0.393555	
-0.393066	
-0.392639	
-0.391296	
-0.392639	
-0.393066	
-0.392761	
-0.392334	
-0.393311	
-0.392029	
-0.392029	
-0.391785	
-0.391846	
-0.391418	
-0.389832	
-0.392273	
-0.39209	
-0.391785	
-0.392395	
-0.39386	
-0.3927	
-0.393372	
-0.393616	
-0.393799	
-0.393616	
-0.3927	
-0.395691	
-0.395264	
-0.396362	
-0.396912	
-0.397705	
-0.397095	
-0.397705	
-0.397644	
-0.39679	
-0.397827	
-0.396484	
-0.398438	
-0.397949	
-0.398438	
-0.398376	
-0.400391	
-0.398621	
-0.398804	
-0.399109	
-0.398315	
-0.398743	
-0.396973	
-0.399048	
-0.39856	
-0.39856	
-0.398132	
-0.400085	
-0.398499	
-0.398499	
-0.398499	
-0.398071	
-0.397766	
-0.395874	
-0.397888	
-0.397217	
-0.397095	
-0.396606	
-0.397827	
-0.396973	
-0.396606	
-0.396973	
-0.396484	
-0.395569	
-0.395508	
-0.397339	
-0.396362	
-0.395752	
-0.396423	
-0.3974	
-0.395874	
-0.395325	
-0.394775	
-0.395325	
-0.394897	
-0.394165	
-0.394836	
-0.394958	
-0.39563	
-0.395996	
-0.396423	
-0.395264	
-0.396118	
-0.395325	
-0.395874	
-0.396179	
-0.396057	
-0.396484	
-0.396606	
-0.396667	
-0.396667	
-0.398254	
-0.397278	
-0.397949	
-0.397278	
-0.396912	
-0.397461	
-0.3974	
-0.397644	
-0.397949	
-0.397461	
-0.397339	
-0.398926	
-0.39801	
-0.397461	
-0.397583	
-0.397705	
-0.398438	
-0.398315	
-0.398804	
-0.397888	
-0.397583	
-0.398071	
-0.399048	
-0.397766	
-0.397705	
-0.397827	
-0.397766	
-0.397278	
-0.396912	
-0.397217	
-0.396729	
-0.397217	
-0.397095	
-0.396912	
-0.396423	
-0.396606	
-0.396851	
-0.3974	
-0.396973	
-0.397339	
-0.3974	
-0.397217	
-0.397522	
-0.398193	
-0.39801	
-0.397644	
-0.397339	
-0.396606	
-0.396729	
-0.396301	
-0.396362	
-0.396057	
-0.395691	
-0.39624	
-0.396912	
-0.396667	
-0.395508	
-0.394714	
-0.39447	
-0.395386	
-0.395142	
-0.394653	
-0.393982	
-0.395203	
-0.39447	
-0.394165	
-0.395447	
-0.394165	
-0.39325	
-0.393677	
-0.394897	
-0.394043	
-0.394287	
-0.394409	
-0.394775	
-0.394897	
-0.395264	
-0.396606	
-0.395752	
-0.395447	
-0.395752	
-0.396667	
-0.396484	
-0.397034	
-0.397034	
-0.397461	
-0.398071	
-0.398926	
-0.399536	
-0.398499	
-0.398438	
-0.398682	
-0.399292	
-0.399109	
-0.399597	
-0.399292	
-0.39978	
-0.400146	
-0.39917	
-0.400146	
-0.399475	
-0.399292	
-0.399048	
-0.399475	
-0.398804	
-0.398804	
-0.398743	
-0.398926	
-0.398193	
-0.397095	
-0.397461	
-0.397461	
-0.394958	
-0.394409	
-0.39563	
-0.394348	
-0.394531	
-0.39447	
-0.394836	
-0.39502	
-0.394226	
-0.39502	
-0.394165	
-0.39325	
-0.39325	
-0.39447	
-0.393433	
-0.394104	
-0.393982	
-0.393494	
-0.394165	
-0.393066	
-0.394043	
-0.39325	
-0.393005	
-0.392761	
-0.394531	
-0.393677	
-0.394226	
-0.393494	
-0.393799	
-0.394287	
-0.393555	
-0.395447	
-0.394287	
-0.394165	
-0.394043	
-0.395691	
-0.395081	
-0.395569	
-0.394531	
-0.395325	
-0.395813	
-0.395325	
-0.396851	
-0.395935	
-0.395447	
-0.395569	
-0.397888	
-0.397095	
-0.397156	
-0.39679	
-0.397156	
-0.397583	
-0.395752	
-0.39801	
-0.396973	
-0.396851	
-0.396667	
-0.398193	
-0.397156	
-0.397949	
-0.397705	
-0.397034	
-0.397217	
-0.396545	
-0.398071	
-0.396912	
-0.397156	
-0.396545	
-0.396851	
-0.395935	
-0.396912	
-0.396301	
-0.396057	
-0.396606	
-0.396484	
-0.396729	
-0.396118	
-0.396423	
-0.395874	
-0.397522	
-0.396301	
-0.396912	
-0.396973	
-0.397034	
-0.397217	
-0.397339	
-0.396912	
-0.39679	
-0.396729	
-0.395813	
-0.396973	
-0.396301	
-0.396851	
-0.396179	
-0.395935	
-0.395447	
-0.39624	
-0.396851	
-0.395813	
-0.395447	
-0.395203	
-0.396179	
-0.395081	
-0.395386	
-0.394836	
-0.394531	
-0.394226	
-0.394653	
-0.394531	
-0.393677	
-0.393677	
-0.392822	
-0.394714	
-0.393677	
-0.394104	
-0.394348	
-0.395386	
-0.394836	
-0.394897	
-0.395569	
-0.395508	
-0.394653	
-0.394348	
-0.396484	
-0.395508	
-0.396301	
-0.396057	
-0.39563	
-0.395813	
-0.395691	
-0.396667	
-0.396423	
-0.395874	
-0.395386	
-0.397217	
-0.396729	
-0.397095	
-0.396667	
-0.396729	
-0.397644	
-0.396301	
-0.397583	
-0.397095	
-0.395752	
-0.395447	
-0.396912	
-0.395752	
-0.395264	
-0.395447	
-0.395325	
-0.39447	
-0.392883	
-0.393555	
-0.392639	
-0.391052	
-0.390564	
-0.392151	
-0.391113	
-0.390991	
-0.391418	
-0.391174	
-0.390442	
-0.389893	
-0.391174	
-0.389832	
-0.389404	
-0.388794	
-0.390259	
-0.389526	
-0.389954	
-0.38916	
-0.389587	
-0.389526	
-0.389282	
-0.389832	
-0.389587	
-0.38916	
-0.388245	
-0.390442	
-0.389893	
-0.390198	
-0.390564	
-0.390442	
-0.391052	
-0.39032	
-0.391785	
-0.391174	
-0.390625	
-0.390198	
-0.392029	
-0.391541	
-0.391968	
-0.392273	
-0.392578	
-0.392395	
-0.390747	
-0.393005	
-0.392456	
-0.391418	
-0.391479	
-0.39386	
-0.393311	
-0.393066	
-0.392517	
-0.392944	
-0.393677	
-0.393127	
-0.393494	
-0.392944	
-0.391052	
-0.391296	
-0.392578	
-0.392578	
-0.392029	
-0.391724	
-0.391907	
-0.392517	
-0.391296	
-0.391052	
-0.391418	
-0.390381	
-0.390137	
-0.391541	
-0.390259	
-0.389648	
-0.389709	
-0.390625	
-0.390381	
-0.389465	
-0.389893	
-0.389893	
-0.388672	
-0.389465	
-0.39093	
-0.389893	
-0.389038	
-0.389099	
-0.390015	
-0.389648	
-0.38916	
-0.389587	
-0.389832	
-0.389221	
-0.390259	
-0.390747	
-0.390076	
-0.389587	
-0.389648	
-0.390686	
-0.391235	
-0.390747	
-0.391174	
-0.390625	
-0.390015	
-0.391602	
-0.391968	
-0.390991	
-0.390808	
-0.390076	
-0.39093	
-0.390564	
-0.39093	
-0.390625	
-0.390259	
-0.389648	
-0.390991	
-0.390747	
-0.390564	
-0.389832	
-0.389832	
-0.390991	
-0.391235	
-0.391235	
-0.391663	
-0.392151	
-0.391357	
-0.392029	
-0.392456	
-0.392273	
-0.391052	
-0.391174	
-0.392395	
-0.393005	
-0.393433	
-0.393188	
-0.393066	
-0.392456	
-0.394043	
-0.394043	
-0.39325	
-0.392395	
-0.392578	
-0.393127	
-0.392822	
-0.393677	
-0.392578	
-0.392517	
-0.392212	
-0.392517	
-0.391907	
-0.391479	
-0.391113	
-0.390991	
-0.390869	
-0.390747	
-0.391479	
-0.390259	
-0.389832	
-0.388916	
-0.389099	
-0.389526	
-0.38855	
-0.387939	
-0.387024	
-0.388428	
-0.388367	
-0.388672	
-0.387695	
-0.388367	
-0.387512	
-0.388	
-0.388855	
-0.388489	
-0.388123	
-0.388123	
-0.389099	
-0.38916	
-0.389526	
-0.389343	
-0.389526	
-0.389526	
-0.390747	
-0.391907	
-0.391724	
-0.392578	
-0.392273	
-0.393066	
-0.39325	
-0.393677	
-0.393616	
-0.393555	
-0.392578	
-0.393311	
-0.394409	
-0.393188	
-0.393738	
-0.394104	
-0.394348	
-0.394531	
-0.394897	
-0.394409	
-0.393982	
-0.394104	
-0.394775	
-0.394897	
-0.393738	
-0.394775	
-0.39386	
-0.394226	
-0.394104	
-0.394531	
-0.393799	
-0.39386	
-0.393677	
-0.394287	
-0.394714	
-0.394287	
-0.393921	
-0.393494	
-0.393738	
-0.393433	
-0.393372	
-0.393555	
-0.393677	
-0.392822	
-0.392212	
-0.3927	
-0.392639	
-0.392151	
-0.391602	
-0.391724	
-0.391663	
-0.392029	
-0.391663	
-0.391724	
-0.391418	
-0.391785	
-0.391785	
-0.391296	
-0.391602	
-0.391846	
-0.392273	
-0.391235	
-0.391602	
-0.391785	
-0.391846	
-0.391724	
-0.392151	
-0.392029	
-0.393066	
-0.392273	
-0.392029	
-0.392456	
-0.392761	
-0.393066	
-0.392517	
-0.392273	
-0.392944	
-0.393127	
-0.392944	
-0.392395	
-0.391907	
-0.392273	
-0.392212	
-0.392029	
-0.392761	
-0.392212	
-0.391785	
-0.391724	
-0.392578	
-0.39325	
-0.392273	
-0.391052	
-0.392334	
-0.392761	
-0.393188	
-0.393372	
-0.392822	
-0.393494	
-0.393005	
-0.393494	
-0.394592	
-0.393738	
-0.392761	
-0.394287	
-0.393677	
-0.393799	
-0.394897	
-0.394043	
-0.394714	
-0.394531	
-0.395691	
-0.395874	
-0.395203	
-0.394348	
-0.395935	
-0.394958	
-0.394958	
-0.396057	
-0.394043	
-0.394165	
-0.394226	
-0.395203	
-0.394104	
-0.393311	
-0.393616	
-0.394409	
-0.393555	
-0.393311	
-0.394165	
-0.392639	
-0.392883	
-0.3927	
-0.393433	
-0.393005	
-0.393066	
-0.392334	
-0.392578	
-0.392334	
-0.391846	
-0.392212	
-0.391785	
-0.391846	
-0.391174	
-0.392639	
-0.39325	
-0.392151	
-0.392212	
-0.393005	
-0.393066	
-0.393677	
-0.394714	
-0.393372	
-0.394409	
-0.394775	
-0.396851	
-0.397461	
-0.396484	
-0.396912	
-0.397583	
-0.397888	
-0.397766	
-0.398804	
-0.397888	
-0.398071	
-0.398132	
-0.399048	
-0.399353	
-0.399536	
-0.398926	
-0.399109	
-0.399109	
-0.399292	
-0.399902	
-0.399292	
-0.399353	
-0.398743	
-0.39978	
-0.400696	
-0.399231	
-0.399536	
-0.400024	
-0.39978	
-0.399597	
-0.399231	
-0.398621	
-0.398071	
-0.397949	
-0.398682	
-0.398376	
-0.397888	
-0.397217	
-0.398071	
-0.398315	
-0.3974	
-0.39801	
-0.396973	
-0.397156	
-0.396973	
-0.398132	
-0.397827	
-0.397034	
-0.396667	
-0.39679	
-0.396362	
-0.395996	
-0.396667	
-0.396362	
-0.395813	
-0.394592	
-0.396179	
-0.396912	
-0.396301	
-0.396851	
-0.397339	
-0.39679	
-0.396484	
-0.397156	
-0.396851	
-0.396606	
-0.396973	
-0.398865	
-0.39856	
-0.397461	
-0.397461	
-0.397705	
-0.398315	
-0.398987	
-0.39917	
-0.398376	
-0.398865	
-0.398865	
-0.398743	
-0.398804	
-0.398682	
-0.398987	
-0.399353	
-0.399475	
-0.399231	
-0.399292	
-0.399048	
-0.398804	
-0.398621	
-0.398804	
-0.399719	
-0.399597	
-0.399109	
-0.399292	
-0.39801	
-0.399292	
-0.399231	
-0.398987	
-0.398376	
-0.397583	
-0.398071	
-0.39801	
-0.398438	
-0.397888	
-0.398193	
-0.396729	
-0.398071	
-0.398621	
-0.397827	
-0.398376	
-0.398438	
-0.399048	
-0.398499	
-0.398987	
-0.39856	
-0.398438	
-0.397461	
-0.398315	
-0.399475	
-0.39679	
-0.397888	
-0.397461	
-0.397827	
-0.396851	
-0.398132	
-0.396912	
-0.396667	
-0.396362	
-0.396484	
-0.39801	
-0.395203	
-0.396118	
-0.396057	
-0.396484	
-0.395691	
-0.396851	
-0.395447	
-0.395081	
-0.395508	
-0.395691	
-0.396545	
-0.394409	
-0.395935	
-0.395203	
-0.395874	
-0.396912	
-0.397339	
-0.395874	
-0.396973	
-0.397461	
-0.397156	
-0.398254	
-0.39679	
-0.397888	
-0.397705	
-0.398804	
-0.399048	
-0.399902	
-0.399719	
-0.399597	
-0.399963	
-0.400146	
-0.401306	
-0.399658	
-0.399658	
-0.400269	
-0.401184	
-0.400818	
-0.401184	
-0.400452	
-0.399902	
-0.400818	
-0.400574	
-0.400696	
-0.398682	
-0.399841	
-0.399841	
-0.399109	
-0.398987	
-0.399658	
-0.398376	
-0.397034	
-0.398193	
-0.397522	
-0.396606	
-0.395325	
-0.395874	
-0.395142	
-0.394592	
-0.39563	
-0.395935	
-0.395691	
-0.394714	
-0.395874	
-0.395081	
-0.395447	
-0.394348	
-0.394348	
-0.394104	
-0.394226	
-0.395447	
-0.394531	
-0.394775	
-0.394165	
-0.394714	
-0.394409	
-0.395264	
-0.394775	
-0.39447	
-0.394043	
-0.394226	
-0.395874	
-0.394287	
-0.394958	
-0.394958	
-0.395935	
-0.395447	
-0.395752	
-0.394653	
-0.396057	
-0.396362	
-0.394653	
-0.396912	
-0.396484	
-0.396851	
-0.396851	
-0.397461	
-0.396179	
-0.397156	
-0.396545	
-0.397034	
-0.397339	
-0.395691	
-0.399048	
-0.397949	
-0.39801	
-0.397583	
-0.397949	
-0.396362	
-0.397827	
-0.397949	
-0.397888	
-0.398438	
-0.396057	
-0.399231	
-0.398254	
-0.398193	
-0.397461	
-0.397522	
-0.396362	
-0.397095	
-0.397766	
-0.396667	
-0.396912	
-0.394897	
-0.397705	
-0.397217	
-0.39801	
-0.396851	
-0.397156	
-0.396179	
-0.396667	
-0.397583	
-0.396484	
-0.397522	
-0.397217	
-0.397766	
-0.397949	
-0.398743	
-0.396973	
-0.397217	
-0.39679	
-0.396729	
-0.397034	
-0.397339	
-0.396729	
-0.395996	
-0.39679	
-0.396301	
-0.397095	
-0.396057	
-0.396118	
-0.395874	
-0.395691	
-0.396545	
-0.396301	
-0.395386	
-0.394897	
-0.395935	
-0.394958	
-0.39563	
-0.395081	
-0.395569	
-0.394409	
-0.395081	
-0.39502	
-0.394653	
-0.394775	
-0.394409	
-0.396362	
-0.395569	
-0.395813	
-0.395508	
-0.396667	
-0.395752	
-0.396667	
-0.3974	
-0.396912	
-0.39679	
-0.396484	
-0.397827	
-0.397461	
-0.397827	
-0.397217	
-0.397827	
-0.397156	
-0.397949	
-0.398926	
-0.397766	
-0.397827	
-0.3974	
-0.398682	
-0.398254	
-0.398315	
-0.397095	
-0.398071	
-0.3974	
-0.397644	
-0.397644	
-0.396667	
-0.396973	
-0.395569	
-0.396851	
-0.39563	
-0.394714	
-0.393555	
-0.394531	
-0.392761	
-0.392273	
-0.393799	
-0.391907	
-0.392029	
-0.391602	
-0.392212	
-0.391541	
-0.391785	
-0.391235	
-0.392212	
-0.390869	
-0.390869	
-0.392273	
-0.390747	
-0.390503	
-0.390259	
-0.390564	
-0.391052	
-0.391113	
-0.390625	
-0.391296	
-0.391235	
-0.390625	
-0.390625	
-0.390442	
-0.391113	
-0.39093	
-0.392212	
-0.391846	
-0.391968	
-0.392578	
-0.393311	
-0.3927	
-0.392151	
-0.393066	
-0.392578	
-0.393311	
-0.392273	
-0.393311	
-0.393982	
-0.393677	
-0.393494	
-0.393982	
-0.393188	
-0.394043	
-0.395203	
-0.39447	
-0.394165	
-0.392639	
-0.394226	
-0.394714	
-0.394409	
-0.394348	
-0.394348	
-0.393921	
-0.394043	
-0.394775	
-0.39325	
-0.393066	
-0.392944	
-0.394409	
-0.39386	
-0.393188	
-0.392822	
-0.392456	
	
