E:\DOCUMENTS AND SETTINGS\JPOTAS\MEUS DOCUMENTOS\UFRJ\RSCI-BM 12 WK SERIES\070727-RSCI-BM-05\RSCI-BM-05-REMG\070727-RSCI-BM-05-REMG-0011.ACQ
0.025000 msec/sample
1 channel
Analog input
Volts
CH1	
2000	
-0.383667	
-0.382813	
-0.382019	
-0.382935	
-0.38385	
-0.384888	
-0.38208	
-0.383362	
-0.38208	
-0.38385	
-0.383667	
-0.38446	
-0.383423	
-0.383972	
-0.383423	
-0.383789	
-0.384338	
-0.383911	
-0.384033	
-0.383179	
-0.385742	
-0.384583	
-0.385254	
-0.384766	
-0.385864	
-0.383789	
-0.385559	
-0.384277	
-0.384399	
-0.383972	
-0.384644	
-0.385559	
-0.384827	
-0.38501	
-0.38385	
-0.38501	
-0.384094	
-0.38562	
-0.383423	
-0.384644	
-0.383728	
-0.384766	
-0.384827	
-0.384705	
-0.384338	
-0.384399	
-0.384583	
-0.384277	
-0.385437	
-0.384521	
-0.384827	
-0.384705	
-0.385559	
-0.385193	
-0.386292	
-0.385315	
-0.385559	
-0.384766	
-0.384705	
-0.384155	
-0.383667	
-0.382813	
-0.38208	
-0.383606	
-0.383057	
-0.382507	
-0.381775	
-0.382874	
-0.381104	
-0.383423	
-0.38147	
-0.381836	
-0.381409	
-0.382141	
-0.382629	
-0.382874	
-0.382507	
-0.382202	
-0.382385	
-0.383423	
-0.384705	
-0.383789	
-0.384644	
-0.384155	
-0.386414	
-0.386047	
-0.386963	
-0.386047	
-0.387329	
-0.386841	
-0.387756	
-0.387573	
-0.387573	
-0.387268	
-0.386658	
-0.388367	
-0.387878	
-0.388	
-0.387146	
-0.387939	
-0.387024	
-0.388611	
-0.387329	
-0.387817	
-0.388184	
-0.388306	
-0.388733	
-0.388184	
-0.387695	
-0.386536	
-0.388062	
-0.386475	
-0.387024	
-0.384338	
-0.385986	
-0.384521	
-0.386047	
-0.38562	
-0.385925	
-0.384766	
-0.38501	
-0.384399	
-0.384827	
-0.385132	
-0.383484	
-0.383118	
-0.382202	
-0.383301	
-0.382813	
-0.383301	
-0.382629	
-0.383301	
-0.382446	
-0.383667	
-0.382874	
-0.383057	
-0.383118	
-0.383179	
-0.384155	
-0.383484	
-0.383545	
-0.38324	
-0.385315	
-0.383789	
-0.385803	
-0.384521	
-0.384949	
-0.384155	
-0.385376	
-0.385193	
-0.386902	
-0.386047	
-0.386963	
-0.386475	
-0.386414	
-0.387146	
-0.385925	
-0.386475	
-0.38623	
-0.387512	
-0.387451	
-0.388306	
-0.387451	
-0.38739	
-0.386963	
-0.387817	
-0.387878	
-0.387878	
-0.387451	
-0.387207	
-0.388428	
-0.386902	
-0.387573	
-0.386841	
-0.388	
-0.386841	
-0.388245	
-0.385681	
-0.386108	
-0.385559	
-0.387024	
-0.386353	
-0.38739	
-0.386902	
-0.386719	
-0.387268	
-0.387207	
-0.387939	
-0.385681	
-0.386963	
-0.38623	
-0.387939	
-0.387451	
-0.38855	
-0.387146	
-0.387268	
-0.387085	
-0.380798	
-0.377686	
-0.376892	
-0.377686	
-0.376709	
-0.379089	
-0.38623	
-0.389282	
-0.387878	
-0.389282	
-0.386841	
-0.388672	
-0.386963	
-0.386963	
-0.386292	
-0.386719	
-0.38739	
-0.387085	
-0.386841	
-0.385498	
-0.38739	
-0.386169	
-0.387695	
-0.385681	
-0.386414	
-0.38501	
-0.386719	
-0.386902	
-0.386353	
-0.386047	
-0.386902	
-0.386475	
-0.386475	
-0.386963	
-0.386353	
-0.386658	
-0.38562	
-0.386963	
-0.385803	
-0.386658	
-0.385376	
-0.385071	
-0.384094	
-0.384888	
-0.384216	
-0.383789	
-0.383423	
-0.384155	
-0.384216	
-0.383972	
-0.383606	
-0.382996	
-0.384277	
-0.383606	
-0.384949	
-0.383179	
-0.384277	
-0.383362	
-0.384705	
-0.383789	
-0.384583	
-0.384521	
-0.384277	
-0.384399	
-0.385132	
-0.38623	
-0.385803	
-0.385986	
-0.385376	
-0.386414	
-0.38623	
-0.387817	
-0.386719	
-0.386963	
-0.38678	
-0.388428	
-0.387146	
-0.386841	
-0.386902	
-0.38678	
-0.388611	
-0.387451	
-0.388184	
-0.387024	
-0.388062	
-0.38678	
-0.389343	
-0.387939	
-0.388123	
-0.388123	
-0.388611	
-0.388977	
-0.388977	
-0.389099	
-0.389404	
-0.39032	
-0.391541	
-0.392761	
-0.391724	
-0.393066	
-0.39325	
-0.394775	
-0.395264	
-0.396851	
-0.396057	
-0.397461	
-0.397827	
-0.399597	
-0.399597	
-0.400085	
-0.400818	
-0.401794	
-0.40332	
-0.404846	
-0.405334	
-0.40509	
-0.407898	
-0.408752	
-0.411072	
-0.411377	
-0.413574	
-0.414917	
-0.417297	
-0.418823	
-0.420959	
-0.420898	
-0.424316	
-0.426331	
-0.429749	
-0.430176	
-0.433838	
-0.436096	
-0.439331	
-0.440979	
-0.442932	
-0.443909	
-0.447632	
-0.448914	
-0.452698	
-0.453369	
-0.456116	
-0.457214	
-0.461975	
-0.463684	
-0.466248	
-0.466675	
-0.470032	
-0.470642	
-0.472961	
-0.47168	
-0.473877	
-0.473633	
-0.475464	
-0.475769	
-0.477051	
-0.476196	
-0.476685	
-0.476257	
-0.476685	
-0.476013	
-0.475647	
-0.475037	
-0.473999	
-0.474487	
-0.473083	
-0.472717	
-0.470581	
-0.471558	
-0.469971	
-0.470093	
-0.467468	
-0.467651	
-0.466431	
-0.466675	
-0.46637	
-0.466553	
-0.465759	
-0.465698	
-0.465027	
-0.465027	
-0.464233	
-0.462708	
-0.462158	
-0.460571	
-0.460571	
-0.459106	
-0.458923	
-0.457092	
-0.456604	
-0.453857	
-0.454651	
-0.452454	
-0.452026	
-0.450928	
-0.450806	
-0.450684	
-0.449707	
-0.447998	
-0.44635	
-0.446777	
-0.444702	
-0.444092	
-0.4422	
-0.441162	
-0.438354	
-0.438049	
-0.437073	
-0.435852	
-0.432922	
-0.431702	
-0.430054	
-0.428162	
-0.426575	
-0.423462	
-0.421509	
-0.419128	
-0.417175	
-0.414001	
-0.411072	
-0.407104	
-0.404114	
-0.398926	
-0.396729	
-0.393494	
-0.389587	
-0.385071	
-0.381714	
-0.38092	
-0.377197	
-0.374573	
-0.371582	
-0.370483	
-0.366394	
-0.366211	
-0.362732	
-0.360596	
-0.358215	
-0.357239	
-0.35553	
-0.35321	
-0.351135	
-0.348328	
-0.348083	
-0.347778	
-0.3479	
-0.345398	
-0.346497	
-0.347046	
-0.348389	
-0.34845	
-0.349976	
-0.35022	
-0.351074	
-0.351196	
-0.354065	
-0.353821	
-0.354187	
-0.355042	
-0.35553	
-0.358276	
-0.358521	
-0.358948	
-0.358887	
-0.361572	
-0.362366	
-0.362976	
-0.362305	
-0.363281	
-0.364441	
-0.365601	
-0.365601	
-0.366882	
-0.367065	
-0.368103	
-0.366882	
-0.368713	
-0.368225	
-0.368469	
-0.368103	
-0.369629	
-0.369446	
-0.369995	
-0.369507	
-0.369629	
-0.369751	
-0.370972	
-0.370483	
-0.369507	
-0.36969	
-0.370605	
-0.371582	
-0.372498	
-0.371887	
-0.371704	
-0.3703	
-0.372375	
-0.371155	
-0.371826	
-0.370728	
-0.371704	
-0.372314	
-0.372009	
-0.371521	
-0.371033	
-0.37146	
-0.371887	
-0.371277	
-0.371033	
-0.370483	
-0.3703	
-0.37207	
-0.370911	
-0.370789	
-0.370239	
-0.371582	
-0.370728	
-0.370789	
-0.369629	
-0.369629	
-0.369873	
-0.370117	
-0.369751	
-0.369507	
-0.369019	
-0.369263	
-0.368225	
-0.369873	
-0.368774	
-0.368896	
-0.36792	
-0.368652	
-0.36969	
-0.368408	
-0.36853	
-0.368835	
-0.368713	
-0.369629	
-0.369934	
-0.369324	
-0.369568	
-0.370056	
-0.370178	
-0.370728	
-0.370605	
-0.370728	
-0.3703	
-0.371826	
-0.371826	
-0.371582	
-0.371765	
-0.371887	
-0.372314	
-0.372986	
-0.372314	
-0.372986	
-0.373291	
-0.372681	
-0.372192	
-0.371765	
-0.372681	
-0.371948	
-0.372742	
-0.372803	
-0.373535	
-0.371887	
-0.372742	
-0.369507	
-0.371948	
-0.37146	
-0.37146	
-0.371033	
-0.372192	
-0.372498	
-0.372925	
-0.372498	
-0.37323	
-0.373352	
-0.37384	
-0.374146	
-0.37262	
-0.373474	
-0.372925	
-0.373901	
-0.374207	
-0.375793	
-0.374634	
-0.374756	
-0.373291	
-0.375122	
-0.374695	
-0.373962	
-0.374573	
-0.374512	
-0.374817	
-0.375549	
-0.375793	
-0.375427	
-0.375183	
-0.373718	
-0.375244	
-0.374207	
-0.373901	
-0.372803	
-0.37439	
-0.374146	
-0.375122	
-0.373657	
-0.373596	
-0.37262	
-0.373718	
-0.373901	
-0.372925	
-0.372437	
-0.371826	
-0.372803	
-0.373657	
-0.373718	
-0.373413	
-0.372437	
-0.372681	
-0.373901	
-0.372803	
-0.373047	
-0.373596	
-0.373657	
-0.374512	
-0.374817	
-0.375305	
-0.375061	
-0.375977	
-0.374878	
-0.377136	
-0.375671	
-0.376953	
-0.376953	
-0.377502	
-0.378479	
-0.37854	
-0.378906	
-0.378174	
-0.380493	
-0.379578	
-0.380859	
-0.379028	
-0.38092	
-0.379211	
-0.380798	
-0.38031	
-0.381287	
-0.380737	
-0.381653	
-0.381592	
-0.382385	
-0.382385	
-0.381653	
-0.381226	
-0.381104	
-0.38208	
-0.381653	
-0.382385	
-0.381287	
-0.382446	
-0.380371	
-0.381165	
-0.380005	
-0.380371	
-0.380005	
-0.379456	
-0.380188	
-0.379517	
-0.379761	
-0.378723	
-0.380615	
-0.379333	
-0.381165	
-0.379028	
-0.379517	
-0.378845	
-0.379761	
-0.379395	
-0.379517	
-0.379639	
-0.379761	
-0.379272	
-0.379822	
-0.380249	
-0.379211	
-0.379333	
-0.377869	
-0.379761	
-0.379333	
-0.380371	
-0.379944	
-0.38031	
-0.37915	
-0.379761	
-0.379517	
-0.3797	
-0.37915	
-0.379639	
-0.380493	
-0.3797	
-0.379517	
-0.378967	
-0.379333	
-0.37915	
-0.381531	
-0.379333	
-0.379822	
-0.37915	
-0.380432	
-0.380371	
-0.380371	
-0.379822	
-0.380676	
-0.380127	
-0.380554	
-0.381348	
-0.380493	
-0.380676	
-0.379089	
-0.381287	
-0.380859	
-0.382202	
-0.381104	
-0.380981	
-0.380188	
-0.381042	
-0.379944	
-0.379211	
-0.378906	
-0.377686	
-0.379456	
-0.378906	
-0.377991	
-0.376892	
-0.377991	
-0.377197	
-0.37854	
-0.376648	
-0.377441	
-0.377319	
-0.37793	
-0.377869	
-0.37854	
-0.37793	
-0.377869	
-0.378662	
-0.379089	
-0.380127	
-0.379456	
-0.380127	
-0.379639	
-0.381226	
-0.382141	
-0.382874	
-0.382263	
-0.382874	
-0.382874	
-0.383606	
-0.384399	
-0.384094	
-0.383728	
-0.383728	
-0.385193	
-0.384094	
-0.385193	
-0.384277	
-0.385132	
-0.382996	
-0.384949	
-0.38501	
-0.384521	
-0.384399	
-0.383972	
-0.385132	
-0.384949	
-0.384583	
-0.383118	
-0.385254	
-0.383179	
-0.38385	
-0.382141	
-0.383118	
-0.381714	
-0.382996	
-0.382568	
-0.382568	
-0.382507	
-0.381897	
-0.381165	
-0.381714	
-0.382263	
-0.380432	
-0.379944	
-0.380127	
-0.381531	
-0.380066	
-0.379944	
-0.379456	
-0.380676	
-0.380066	
-0.380432	
-0.380249	
-0.379822	
-0.380127	
-0.379089	
-0.380859	
-0.38147	
-0.381287	
-0.380798	
-0.381409	
-0.380127	
-0.381897	
-0.381042	
-0.381836	
-0.382263	
-0.382629	
-0.38269	
-0.38324	
-0.382202	
-0.382996	
-0.383362	
-0.383972	
-0.384949	
-0.382446	
-0.383728	
-0.382507	
-0.384705	
-0.383972	
-0.384705	
-0.383606	
-0.384216	
-0.384155	
-0.384827	
-0.384338	
-0.383606	
-0.383789	
-0.383118	
-0.384644	
-0.384338	
-0.384155	
-0.382996	
-0.384521	
-0.383118	
-0.384155	
-0.382935	
-0.382751	
-0.38208	
-0.383057	
-0.383179	
-0.382996	
-0.382507	
-0.383484	
-0.38446	
-0.382996	
-0.384521	
-0.383545	
-0.383972	
-0.382996	
-0.38446	
-0.383667	
-0.385132	
-0.384155	
-0.384338	
-0.384521	
-0.384827	
-0.385315	
-0.38385	
-0.384583	
-0.384277	
-0.385498	
-0.385132	
-0.385254	
-0.384399	
-0.385071	
-0.38324	
-0.384644	
-0.383301	
-0.384094	
-0.383606	
-0.384094	
-0.384033	
-0.384766	
-0.384033	
-0.382629	
-0.384521	
-0.383545	
-0.384888	
-0.383606	
-0.383972	
-0.382874	
-0.383667	
-0.383606	
-0.383789	
-0.383789	
-0.384644	
-0.383972	
-0.384277	
-0.385254	
-0.383179	
-0.383667	
-0.382324	
-0.384399	
-0.383606	
-0.384277	
-0.382568	
-0.382874	
-0.381836	
-0.382263	
-0.381897	
-0.381592	
-0.381165	
-0.380005	
-0.38208	
-0.381226	
-0.381104	
-0.379822	
-0.38147	
-0.380066	
-0.381531	
-0.380432	
-0.381165	
-0.380432	
-0.380981	
-0.381104	
-0.381531	
-0.38147	
-0.380554	
-0.382324	
-0.381958	
-0.383301	
-0.38147	
-0.38269	
-0.38208	
-0.383362	
-0.383545	
-0.383484	
-0.382629	
-0.383728	
-0.384155	
-0.384338	
-0.383972	
-0.383789	
-0.38385	
-0.383423	
-0.384949	
-0.384521	
-0.384827	
-0.38385	
-0.384033	
-0.383728	
-0.384766	
-0.384399	
-0.384583	
-0.383911	
-0.38446	
-0.384705	
-0.384827	
-0.38446	
-0.384094	
-0.38501	
-0.383667	
-0.385132	
-0.383789	
-0.384033	
-0.38147	
-0.383667	
-0.38324	
-0.383057	
-0.382019	
-0.382507	
-0.381531	
-0.381775	
-0.382324	
-0.381042	
-0.38092	
-0.380676	
-0.381348	
-0.38031	
-0.381104	
-0.380493	
-0.381348	
-0.379639	
-0.381042	
-0.380066	
-0.380371	
-0.379578	
-0.379883	
-0.380676	
-0.380432	
-0.380554	
-0.378479	
-0.38092	
-0.3797	
-0.381531	
-0.380432	
-0.380859	
-0.380188	
-0.380859	
-0.380615	
-0.380981	
-0.38092	
-0.381592	
-0.381165	
-0.381165	
-0.381226	
-0.379089	
-0.379822	
-0.380249	
-0.381042	
-0.380249	
-0.380493	
-0.380066	
-0.380432	
-0.379761	
-0.380066	
-0.380249	
-0.379761	
-0.379272	
-0.378113	
-0.380249	
-0.379456	
-0.379883	
-0.377808	
-0.3797	
-0.378784	
-0.380188	
-0.378357	
-0.378418	
-0.378174	
-0.379333	
-0.378601	
-0.37854	
-0.379028	
-0.378967	
-0.379883	
-0.378967	
-0.38031	
-0.37854	
-0.379028	
-0.377747	
-0.379578	
-0.379456	
-0.379028	
-0.37854	
-0.379211	
-0.379333	
-0.379395	
-0.379639	
-0.378601	
-0.378906	
-0.378296	
-0.379578	
-0.379028	
-0.37915	
-0.37793	
-0.379028	
-0.378418	
-0.379578	
-0.379395	
-0.379944	
-0.379761	
-0.380493	
-0.381592	
-0.380981	
-0.381592	
-0.380737	
-0.382263	
-0.38092	
-0.382263	
-0.38092	
-0.38147	
-0.380371	
-0.381592	
-0.381287	
-0.381775	
-0.381104	
-0.38092	
-0.381714	
-0.381409	
-0.381287	
-0.379211	
-0.380188	
-0.37915	
-0.379578	
-0.378662	
-0.379211	
-0.377563	
-0.378113	
-0.37677	
-0.377136	
-0.377014	
-0.376587	
-0.375793	
-0.375549	
-0.376892	
-0.376343	
-0.376709	
-0.375183	
-0.376587	
-0.375183	
-0.377197	
-0.37561	
-0.375549	
-0.375244	
-0.375793	
-0.375854	
-0.375732	
-0.375977	
-0.376099	
-0.376831	
-0.377991	
-0.378601	
-0.376587	
-0.377991	
-0.377747	
-0.379211	
-0.378662	
-0.379517	
-0.379028	
-0.379578	
-0.379272	
-0.380432	
-0.379822	
-0.380432	
-0.380249	
-0.380127	
-0.381531	
-0.381409	
-0.381714	
-0.381104	
-0.381592	
-0.380493	
-0.381897	
-0.380371	
-0.381042	
-0.380981	
-0.381226	
-0.381348	
-0.38147	
-0.380493	
-0.379944	
-0.380981	
-0.380432	
-0.381104	
-0.379028	
-0.380554	
-0.378418	
-0.379211	
-0.378784	
-0.379211	
-0.378601	
-0.379272	
-0.37793	
-0.377625	
-0.378052	
-0.377563	
-0.376953	
-0.375244	
-0.377319	
-0.377075	
-0.378052	
-0.376587	
-0.377258	
-0.376221	
-0.377563	
-0.376404	
-0.376648	
-0.376709	
-0.37738	
-0.378235	
-0.376892	
-0.377686	
-0.376709	
-0.378662	
-0.376404	
-0.379211	
-0.377441	
-0.377747	
-0.376953	
-0.378113	
-0.378418	
-0.378418	
-0.378784	
-0.37793	
-0.377808	
-0.377563	
-0.378662	
-0.375916	
-0.377197	
-0.376648	
-0.377197	
-0.376953	
-0.377625	
-0.377136	
-0.376099	
-0.37616	
-0.377686	
-0.376587	
-0.376587	
-0.376465	
-0.376343	
-0.377197	
-0.376831	
-0.377563	
-0.376648	
-0.377502	
-0.376465	
-0.377686	
-0.376709	
-0.377502	
-0.376343	
-0.377686	
-0.378357	
-0.378784	
-0.378296	
-0.377808	
-0.379028	
-0.378906	
-0.378967	
-0.376953	
-0.377869	
-0.377319	
-0.378906	
-0.377869	
-0.378418	
-0.378235	
-0.378784	
-0.377625	
-0.378967	
-0.378418	
-0.378052	
-0.37793	
-0.377075	
-0.379272	
-0.378296	
-0.378967	
-0.377869	
-0.380371	
-0.378479	
-0.380493	
-0.379883	
-0.379639	
-0.379456	
-0.380371	
-0.380493	
-0.380371	
-0.380676	
-0.379456	
-0.381531	
-0.380188	
-0.381958	
-0.379822	
-0.380493	
-0.378784	
-0.380493	
-0.380554	
-0.380676	
-0.380432	
-0.380615	
-0.380798	
-0.379944	
-0.380188	
-0.378662	
-0.378845	
-0.377075	
-0.37915	
-0.378174	
-0.378601	
-0.378052	
-0.377747	
-0.377136	
-0.37793	
-0.377014	
-0.376709	
-0.376831	
-0.376953	
-0.376953	
-0.376648	
-0.37616	
-0.375427	
-0.376953	
-0.376099	
-0.378296	
-0.376648	
-0.376465	
-0.375122	
-0.376831	
-0.376404	
-0.376526	
-0.376526	
-0.376648	
-0.377014	
-0.377075	
-0.377991	
-0.375671	
-0.376587	
-0.376038	
-0.377136	
-0.377502	
-0.378357	
-0.378113	
-0.379028	
-0.377991	
-0.379639	
-0.379272	
-0.379883	
-0.379272	
-0.379517	
-0.380554	
-0.3797	
-0.380127	
-0.379211	
-0.381226	
-0.379944	
-0.381775	
-0.380188	
-0.381042	
-0.380676	
-0.381226	
-0.381042	
-0.381592	
-0.381042	
-0.380737	
-0.381042	
-0.381287	
-0.382202	
-0.379822	
-0.380432	
-0.378601	
-0.379822	
-0.379578	
-0.380493	
-0.3797	
-0.3797	
-0.379395	
-0.380066	
-0.379517	
-0.379761	
-0.379639	
-0.379822	
-0.381042	
-0.380188	
-0.381042	
-0.380188	
-0.381836	
-0.379822	
-0.380859	
-0.380127	
-0.380615	
-0.380005	
-0.380615	
-0.38147	
-0.381836	
-0.380981	
-0.380859	
-0.382019	
-0.381409	
-0.383362	
-0.381104	
-0.381165	
-0.38031	
-0.382324	
-0.381653	
-0.38208	
-0.381592	
-0.382507	
-0.381531	
-0.381531	
-0.382874	
-0.381714	
-0.381226	
-0.380127	
-0.382874	
-0.381531	
-0.382141	
-0.381775	
-0.382141	
-0.380798	
-0.382263	
-0.381042	
-0.381592	
-0.381348	
-0.381958	
-0.382935	
-0.382507	
-0.382324	
-0.381104	
-0.382629	
-0.381226	
-0.38385	
-0.381165	
-0.381836	
-0.380432	
-0.381165	
-0.380737	
-0.380615	
-0.379639	
-0.379944	
-0.379761	
-0.379639	
-0.380432	
-0.378357	
-0.379333	
-0.378479	
-0.380066	
-0.37915	
-0.380249	
-0.379517	
-0.379456	
-0.380005	
-0.380432	
-0.380066	
-0.379883	
-0.380127	
-0.380127	
-0.382446	
-0.38208	
-0.383118	
-0.381897	
-0.383606	
-0.382751	
-0.384766	
-0.383606	
-0.383972	
-0.384033	
-0.384827	
-0.385132	
-0.384827	
-0.385071	
-0.38446	
-0.385071	
-0.385254	
-0.385376	
-0.384094	
-0.384888	
-0.383728	
-0.384644	
-0.385254	
-0.386047	
-0.385376	
-0.385986	
-0.385132	
-0.385437	
-0.384521	
-0.383301	
-0.383179	
-0.382385	
-0.384277	
-0.383362	
-0.383362	
-0.381775	
-0.383606	
-0.38147	
-0.382751	
-0.381836	
-0.381958	
-0.381348	
-0.381226	
-0.381165	
-0.380981	
-0.380432	
-0.38031	
-0.380371	
-0.3797	
-0.381409	
-0.379517	
-0.380554	
-0.378784	
-0.381165	
-0.380615	
-0.381531	
-0.380127	
-0.380493	
-0.381226	
-0.381165	
-0.382751	
-0.380493	
-0.38147	
-0.381653	
-0.383545	
-0.382385	
-0.383606	
-0.382446	
-0.383789	
-0.382751	
-0.384033	
-0.383972	
-0.384094	
-0.384583	
-0.38324	
-0.38501	
-0.384949	
-0.385254	
-0.384155	
-0.385315	
-0.385498	
-0.386292	
-0.385376	
-0.385315	
-0.384888	
-0.385498	
-0.385925	
-0.385864	
-0.385559	
-0.384644	
-0.385437	
-0.385315	
-0.385803	
-0.383972	
-0.384583	
-0.383728	
-0.384399	
-0.384277	
-0.384888	
-0.38385	
-0.384033	
-0.382507	
-0.385315	
-0.384583	
-0.384705	
-0.384277	
-0.383606	
-0.385681	
-0.38562	
-0.385071	
-0.384583	
-0.385437	
-0.384827	
-0.386169	
-0.385071	
-0.385315	
-0.384827	
-0.385559	
-0.385742	
-0.38623	
-0.385254	
-0.385132	
-0.386169	
-0.38562	
-0.385803	
-0.384155	
-0.384766	
-0.383484	
-0.384949	
-0.384583	
-0.385376	
-0.383911	
-0.384583	
-0.38324	
-0.384521	
-0.38501	
-0.383301	
-0.383362	
-0.383667	
-0.385193	
-0.384155	
-0.384216	
-0.383118	
-0.384277	
-0.382629	
-0.384705	
-0.38446	
-0.384216	
-0.384033	
-0.384277	
-0.384827	
-0.384827	
-0.384399	
-0.383057	
-0.384521	
-0.383301	
-0.384521	
-0.382263	
-0.382446	
-0.381409	
-0.38269	
-0.382263	
-0.382385	
-0.382141	
-0.382141	
-0.382202	
-0.381897	
-0.382507	
-0.380676	
-0.381348	
-0.380676	
-0.383118	
-0.381958	
-0.382507	
-0.381165	
-0.381531	
-0.381714	
-0.382813	
-0.382751	
-0.382935	
-0.38324	
-0.383179	
-0.38446	
-0.384094	
-0.384216	
-0.383484	
-0.385132	
-0.385193	
-0.386169	
-0.384277	
-0.384766	
-0.384277	
-0.385376	
-0.385498	
-0.385803	
-0.38562	
-0.385925	
-0.385803	
-0.386047	
-0.387146	
-0.384827	
-0.38562	
-0.385254	
-0.386719	
-0.386475	
-0.386475	
-0.386353	
-0.386719	
-0.386169	
-0.387451	
-0.385986	
-0.386414	
-0.386047	
-0.384949	
-0.386353	
-0.38562	
-0.385864	
-0.384155	
-0.386292	
-0.38385	
-0.385315	
-0.384155	
-0.383911	
-0.382263	
-0.382996	
-0.383118	
-0.383545	
-0.383362	
-0.38324	
-0.383606	
-0.382019	
-0.38324	
-0.381592	
-0.382446	
-0.382019	
-0.383179	
-0.383362	
-0.382996	
-0.381775	
-0.382019	
-0.382507	
-0.383362	
-0.383484	
-0.382446	
-0.382568	
-0.382141	
-0.383728	
-0.383301	
-0.384399	
-0.383179	
-0.383972	
-0.383179	
-0.384216	
-0.383667	
-0.383179	
-0.382751	
-0.383179	
-0.383606	
-0.383728	
-0.383118	
-0.383423	
-0.38324	
-0.383057	
-0.383362	
-0.382996	
-0.38269	
-0.382324	
-0.38324	
-0.382996	
-0.382751	
-0.382507	
-0.382996	
-0.382568	
-0.382751	
-0.383057	
-0.381042	
-0.381409	
-0.381714	
-0.383118	
-0.382141	
-0.382996	
-0.381653	
-0.382996	
-0.381531	
-0.383606	
-0.382263	
-0.382568	
-0.381592	
-0.381958	
-0.382141	
-0.382568	
-0.382874	
-0.381348	
-0.382751	
-0.38147	
-0.382935	
-0.381531	
-0.382629	
-0.381592	
-0.382507	
-0.382019	
-0.382202	
-0.381836	
-0.382263	
-0.383301	
-0.381897	
-0.382385	
-0.380554	
-0.381836	
-0.381409	
-0.383362	
-0.382935	
-0.383972	
-0.38324	
-0.384583	
-0.384155	
-0.384949	
-0.384827	
-0.384644	
-0.384094	
-0.383423	
-0.385559	
-0.385132	
-0.38501	
-0.383301	
-0.384705	
-0.383484	
-0.384949	
-0.384399	
-0.383972	
-0.383118	
-0.384338	
-0.384216	
-0.383057	
-0.382813	
-0.38147	
-0.382202	
-0.381531	
-0.38147	
-0.379883	
-0.379639	
-0.3797	
-0.379822	
-0.379822	
-0.379883	
-0.379272	
-0.379089	
-0.378723	
-0.380615	
-0.379761	
-0.378906	
-0.37854	
-0.378235	
-0.380127	
-0.379272	
-0.379761	
-0.378418	
-0.379272	
-0.378418	
-0.380493	
-0.379395	
-0.380066	
-0.379211	
-0.380798	
-0.381897	
-0.381592	
-0.381287	
-0.381226	
-0.382935	
-0.381958	
-0.383118	
-0.381775	
-0.382874	
-0.383179	
-0.383606	
-0.383362	
-0.383728	
-0.383057	
-0.383911	
-0.38385	
-0.384827	
-0.385254	
-0.38324	
-0.384277	
-0.383179	
-0.384094	
-0.384338	
-0.38446	
-0.383789	
-0.384766	
-0.384583	
-0.384644	
-0.383972	
-0.383362	
-0.382019	
-0.383484	
-0.384338	
-0.382751	
-0.382935	
-0.381287	
-0.382813	
-0.380798	
-0.381165	
-0.380859	
-0.381165	
-0.379944	
-0.38031	
-0.379822	
-0.38031	
-0.38031	
-0.379578	
-0.380127	
-0.380188	
-0.380676	
-0.379211	
-0.37915	
-0.3797	
-0.380371	
-0.380432	
-0.380798	
-0.379578	
-0.379883	
-0.38031	
-0.381592	
-0.380127	
-0.380676	
-0.380066	
-0.380188	
-0.381775	
-0.381409	
-0.381897	
-0.381226	
-0.381653	
-0.380432	
-0.381653	
-0.380676	
-0.380554	
-0.379517	
-0.380554	
-0.381226	
-0.380432	
-0.380249	
-0.379761	
-0.380371	
-0.379944	
-0.380798	
-0.37854	
-0.379578	
-0.379333	
-0.379883	
-0.379761	
-0.380127	
-0.379089	
-0.3797	
-0.379822	
-0.380066	
-0.380371	
-0.379639	
-0.379883	
-0.379578	
-0.38147	
-0.380798	
-0.381348	
-0.380798	
-0.382507	
-0.380737	
-0.382263	
-0.382019	
-0.381165	
-0.379822	
-0.381165	
-0.382202	
-0.381653	
-0.381775	
-0.380615	
-0.382629	
-0.38092	
-0.38208	
-0.380615	
-0.381165	
-0.38092	
-0.381592	
-0.381226	
-0.381409	
-0.381042	
-0.381592	
-0.381653	
-0.382263	
-0.383484	
-0.382019	
-0.382629	
-0.382874	
-0.383545	
-0.382568	
-0.384277	
-0.383423	
-0.38385	
-0.383545	
-0.384399	
-0.38446	
-0.383911	
-0.383667	
-0.38269	
-0.384521	
-0.384277	
-0.383728	
-0.382996	
-0.384399	
-0.383545	
-0.384583	
-0.382751	
-0.384155	
-0.382507	
-0.38324	
-0.382507	
-0.382874	
-0.382385	
-0.381592	
-0.380798	
-0.381714	
-0.381958	
-0.380859	
-0.380432	
-0.380127	
-0.381165	
-0.381104	
-0.380737	
-0.380493	
-0.38031	
-0.379944	
-0.381104	
-0.380005	
-0.380249	
-0.379578	
-0.379089	
-0.380676	
-0.380432	
-0.380432	
-0.378662	
-0.380005	
-0.378784	
-0.381042	
-0.379517	
-0.380066	
-0.3797	
-0.38031	
-0.380432	
-0.380737	
-0.380737	
-0.38092	
-0.381775	
-0.381897	
-0.383545	
-0.380615	
-0.38208	
-0.381409	
-0.38324	
-0.38324	
-0.383362	
-0.382935	
-0.383545	
-0.383423	
-0.38385	
-0.384216	
-0.383728	
-0.383911	
-0.383362	
-0.38562	
-0.384766	
-0.384949	
-0.384155	
-0.384888	
-0.383545	
-0.385559	
-0.384949	
-0.38446	
-0.384216	
-0.384521	
-0.384583	
-0.38324	
-0.383179	
-0.382629	
-0.383606	
-0.383118	
-0.384338	
-0.382751	
	
