E:\DOCUMENTS AND SETTINGS\JPOTAS\MEUS DOCUMENTOS\UFRJ\RSCI-BM 12 WK SERIES\070727-RSCI-BM-05\RSCI-BM-05-REMG\070727-RSCI-BM-05-REMG-0004.ACQ
0.025000 msec/sample
1 channel
Analog input
Volts
CH1	
2000	
-0.383362	
-0.382935	
-0.383179	
-0.383728	
-0.383728	
-0.383362	
-0.382446	
-0.38385	
-0.384033	
-0.384521	
-0.383057	
-0.383057	
-0.382629	
-0.383362	
-0.383423	
-0.383911	
-0.383484	
-0.383667	
-0.383484	
-0.384277	
-0.384949	
-0.383972	
-0.384216	
-0.38385	
-0.385498	
-0.385071	
-0.384827	
-0.385071	
-0.385376	
-0.385254	
-0.385925	
-0.385376	
-0.385315	
-0.385315	
-0.385254	
-0.38623	
-0.385864	
-0.384766	
-0.384033	
-0.384766	
-0.384705	
-0.385681	
-0.384094	
-0.384094	
-0.38269	
-0.38385	
-0.384094	
-0.38446	
-0.383179	
-0.383545	
-0.383423	
-0.38324	
-0.384033	
-0.382202	
-0.382629	
-0.382629	
-0.384705	
-0.384216	
-0.38385	
-0.383484	
-0.384094	
-0.382874	
-0.383606	
-0.38385	
-0.382202	
-0.382202	
-0.382019	
-0.384155	
-0.383362	
-0.383362	
-0.383118	
-0.383911	
-0.384094	
-0.385315	
-0.384705	
-0.385071	
-0.385132	
-0.386475	
-0.386902	
-0.387146	
-0.387024	
-0.386353	
-0.388	
-0.387512	
-0.388306	
-0.38739	
-0.387573	
-0.387268	
-0.38855	
-0.387268	
-0.387085	
-0.386292	
-0.38623	
-0.38623	
-0.386536	
-0.38678	
-0.384705	
-0.385315	
-0.38446	
-0.385864	
-0.385193	
-0.385315	
-0.385132	
-0.38501	
-0.385132	
-0.386169	
-0.385681	
-0.38501	
-0.38562	
-0.385437	
-0.386169	
-0.386963	
-0.386841	
-0.385742	
-0.386536	
-0.386902	
-0.387878	
-0.386597	
-0.386841	
-0.386169	
-0.387512	
-0.387329	
-0.387756	
-0.386719	
-0.386658	
-0.38678	
-0.386719	
-0.386597	
-0.385376	
-0.385864	
-0.385742	
-0.386658	
-0.386353	
-0.386475	
-0.386414	
-0.387085	
-0.386719	
-0.387146	
-0.387085	
-0.386475	
-0.386841	
-0.386841	
-0.388489	
-0.388611	
-0.388123	
-0.386963	
-0.388245	
-0.388733	
-0.389648	
-0.388489	
-0.388245	
-0.387329	
-0.388062	
-0.388062	
-0.38855	
-0.387146	
-0.386841	
-0.387207	
-0.386963	
-0.388245	
-0.386475	
-0.386658	
-0.385925	
-0.387268	
-0.386658	
-0.38678	
-0.385864	
-0.386475	
-0.385742	
-0.386536	
-0.387146	
-0.385376	
-0.386108	
-0.385376	
-0.386658	
-0.386169	
-0.385498	
-0.385925	
-0.386536	
-0.386536	
-0.387634	
-0.386658	
-0.386841	
-0.386169	
-0.38678	
-0.387024	
-0.387085	
-0.386597	
-0.386292	
-0.386841	
-0.38623	
-0.387146	
-0.385925	
-0.386047	
-0.384216	
-0.385803	
-0.385376	
-0.380432	
-0.377319	
-0.37793	
-0.378174	
-0.378418	
-0.378357	
-0.382751	
-0.384644	
-0.384033	
-0.38501	
-0.384216	
-0.383972	
-0.383728	
-0.383484	
-0.383606	
-0.384644	
-0.384033	
-0.383423	
-0.38385	
-0.38385	
-0.384827	
-0.384705	
-0.384583	
-0.384094	
-0.379578	
-0.378662	
-0.379944	
-0.379333	
-0.379456	
-0.378906	
-0.386353	
-0.387512	
-0.38855	
-0.388062	
-0.387878	
-0.388489	
-0.389099	
-0.389282	
-0.387817	
-0.388672	
-0.388	
-0.388916	
-0.388245	
-0.388367	
-0.387817	
-0.388367	
-0.38916	
-0.389221	
-0.388672	
-0.387756	
-0.388306	
-0.387451	
-0.389099	
-0.38855	
-0.387451	
-0.386169	
-0.386963	
-0.386475	
-0.387024	
-0.385681	
-0.385803	
-0.38446	
-0.385254	
-0.385742	
-0.385864	
-0.384766	
-0.384338	
-0.385376	
-0.384644	
-0.385132	
-0.384277	
-0.384277	
-0.384277	
-0.385315	
-0.384766	
-0.385254	
-0.384521	
-0.384949	
-0.384521	
-0.384949	
-0.384888	
-0.383606	
-0.384216	
-0.38385	
-0.385803	
-0.385498	
-0.385437	
-0.384766	
-0.386414	
-0.386597	
-0.387695	
-0.386536	
-0.386475	
-0.386841	
-0.388	
-0.389221	
-0.390686	
-0.390869	
-0.392029	
-0.39386	
-0.395203	
-0.396606	
-0.396973	
-0.398865	
-0.399719	
-0.401917	
-0.402527	
-0.403687	
-0.404053	
-0.40564	
-0.406738	
-0.409546	
-0.409485	
-0.409424	
-0.41095	
-0.412781	
-0.413391	
-0.415771	
-0.416138	
-0.417358	
-0.418457	
-0.419678	
-0.421265	
-0.421143	
-0.422729	
-0.423401	
-0.42511	
-0.426147	
-0.428345	
-0.430542	
-0.432251	
-0.434143	
-0.436218	
-0.437683	
-0.439575	
-0.441101	
-0.443237	
-0.446594	
-0.448608	
-0.452026	
-0.454285	
-0.458069	
-0.461121	
-0.464355	
-0.467529	
-0.470093	
-0.473389	
-0.476807	
-0.477905	
-0.479187	
-0.481018	
-0.483215	
-0.484497	
-0.484131	
-0.483765	
-0.483948	
-0.486511	
-0.486084	
-0.486633	
-0.485779	
-0.485596	
-0.486084	
-0.48645	
-0.485413	
-0.483459	
-0.483154	
-0.481995	
-0.482361	
-0.482178	
-0.481201	
-0.480652	
-0.480469	
-0.480652	
-0.481628	
-0.480713	
-0.480774	
-0.47998	
-0.481628	
-0.481445	
-0.481873	
-0.481018	
-0.480896	
-0.480896	
-0.480896	
-0.480896	
-0.479126	
-0.478882	
-0.477661	
-0.47876	
-0.477234	
-0.475769	
-0.474304	
-0.473572	
-0.472534	
-0.472717	
-0.470398	
-0.468079	
-0.46637	
-0.46521	
-0.462952	
-0.461914	
-0.459106	
-0.456299	
-0.454956	
-0.453064	
-0.450439	
-0.44696	
-0.444824	
-0.441101	
-0.439575	
-0.436707	
-0.435547	
-0.431091	
-0.428467	
-0.425781	
-0.423523	
-0.420532	
-0.416382	
-0.413513	
-0.408386	
-0.406921	
-0.401917	
-0.398682	
-0.393555	
-0.39032	
-0.387024	
-0.384338	
-0.381104	
-0.377808	
-0.375793	
-0.372437	
-0.371948	
-0.369507	
-0.366638	
-0.364746	
-0.363159	
-0.361511	
-0.359863	
-0.356812	
-0.355652	
-0.353943	
-0.35321	
-0.352112	
-0.351746	
-0.350342	
-0.349182	
-0.350098	
-0.349792	
-0.350586	
-0.348877	
-0.349792	
-0.34967	
-0.351868	
-0.351563	
-0.352844	
-0.352234	
-0.354004	
-0.354553	
-0.355774	
-0.355591	
-0.354736	
-0.356812	
-0.357544	
-0.359619	
-0.360352	
-0.360352	
-0.360779	
-0.361694	
-0.361633	
-0.362488	
-0.362061	
-0.362671	
-0.363525	
-0.364929	
-0.364746	
-0.364258	
-0.364075	
-0.364075	
-0.36377	
-0.365112	
-0.36499	
-0.365234	
-0.365295	
-0.366272	
-0.366638	
-0.367676	
-0.367249	
-0.367554	
-0.367981	
-0.368042	
-0.368958	
-0.368958	
-0.369324	
-0.369019	
-0.369446	
-0.369812	
-0.368896	
-0.36908	
-0.368713	
-0.369019	
-0.368469	
-0.368164	
-0.368042	
-0.368591	
-0.368286	
-0.368408	
-0.367493	
-0.367493	
-0.367798	
-0.368286	
-0.368103	
-0.366821	
-0.366943	
-0.366028	
-0.367798	
-0.367249	
-0.36676	
-0.36554	
-0.367493	
-0.366882	
-0.366882	
-0.366943	
-0.367798	
-0.367065	
-0.367981	
-0.368713	
-0.369019	
-0.368591	
-0.369263	
-0.36853	
-0.370789	
-0.371033	
-0.370483	
-0.370728	
-0.371033	
-0.372009	
-0.37262	
-0.373108	
-0.373657	
-0.373535	
-0.374573	
-0.374207	
-0.374573	
-0.375122	
-0.375366	
-0.37677	
-0.376282	
-0.377197	
-0.376831	
-0.376709	
-0.376099	
-0.376953	
-0.377014	
-0.376526	
-0.376892	
-0.376343	
-0.37616	
-0.377197	
-0.375488	
-0.376038	
-0.375	
-0.37561	
-0.374756	
-0.375366	
-0.37561	
-0.375366	
-0.374817	
-0.374939	
-0.373962	
-0.374512	
-0.37384	
-0.374939	
-0.374207	
-0.373779	
-0.373291	
-0.374146	
-0.374451	
-0.374817	
-0.374939	
-0.374878	
-0.375916	
-0.375916	
-0.375061	
-0.375244	
-0.375427	
-0.375244	
-0.376953	
-0.377136	
-0.377991	
-0.377563	
-0.378235	
-0.378723	
-0.379761	
-0.380493	
-0.379028	
-0.380615	
-0.380859	
-0.382019	
-0.382324	
-0.382202	
-0.381042	
-0.382507	
-0.382385	
-0.38385	
-0.382629	
-0.382751	
-0.382019	
-0.38324	
-0.383301	
-0.383728	
-0.382996	
-0.383179	
-0.383301	
-0.383057	
-0.383545	
-0.382935	
-0.382813	
-0.38208	
-0.383362	
-0.383545	
-0.383301	
-0.38269	
-0.383179	
-0.383545	
-0.384827	
-0.385498	
-0.383667	
-0.384888	
-0.384216	
-0.386108	
-0.385254	
-0.384827	
-0.384399	
-0.384766	
-0.384216	
-0.384766	
-0.384338	
-0.384277	
-0.383789	
-0.383362	
-0.383484	
-0.384705	
-0.38324	
-0.383484	
-0.383545	
-0.383911	
-0.38446	
-0.38385	
-0.383911	
-0.382751	
-0.384338	
-0.383362	
-0.383789	
-0.383057	
-0.383545	
-0.383911	
-0.384399	
-0.384583	
-0.38324	
-0.383484	
-0.382874	
-0.383972	
-0.38324	
-0.382874	
-0.382813	
-0.382813	
-0.382507	
-0.383545	
-0.382385	
-0.381836	
-0.381042	
-0.380981	
-0.381287	
-0.38147	
-0.380554	
-0.379639	
-0.38031	
-0.381042	
-0.381348	
-0.380188	
-0.380188	
-0.379272	
-0.380127	
-0.38031	
-0.38092	
-0.380432	
-0.380127	
-0.380737	
-0.38147	
-0.381348	
-0.38031	
-0.381165	
-0.381104	
-0.382874	
-0.382141	
-0.382263	
-0.382507	
-0.382629	
-0.382996	
-0.383545	
-0.384155	
-0.383118	
-0.383728	
-0.383057	
-0.384399	
-0.384583	
-0.383972	
-0.382568	
-0.383667	
-0.383484	
-0.38446	
-0.383545	
-0.382996	
-0.382202	
-0.38324	
-0.382874	
-0.382446	
-0.381897	
-0.382202	
-0.382141	
-0.381775	
-0.382385	
-0.38147	
-0.381592	
-0.379822	
-0.382568	
-0.382751	
-0.381348	
-0.380371	
-0.38147	
-0.381348	
-0.381104	
-0.381714	
-0.379028	
-0.379578	
-0.379333	
-0.380249	
-0.381531	
-0.380615	
-0.381165	
-0.381104	
-0.381897	
-0.383057	
-0.382324	
-0.382629	
-0.383057	
-0.384644	
-0.384521	
-0.38501	
-0.384705	
-0.385254	
-0.384949	
-0.38562	
-0.386475	
-0.386597	
-0.386292	
-0.385742	
-0.387451	
-0.38678	
-0.386414	
-0.384949	
-0.385925	
-0.386047	
-0.385803	
-0.386169	
-0.384216	
-0.384644	
-0.384277	
-0.384583	
-0.385193	
-0.384583	
-0.384705	
-0.384583	
-0.385559	
-0.385681	
-0.38501	
-0.383789	
-0.385254	
-0.385071	
-0.386169	
-0.387024	
-0.385742	
-0.386169	
-0.386047	
-0.386536	
-0.387268	
-0.386169	
-0.386169	
-0.385803	
-0.387268	
-0.386658	
-0.387817	
-0.386169	
-0.38678	
-0.386414	
-0.386169	
-0.386414	
-0.385071	
-0.385437	
-0.386536	
-0.385681	
-0.385986	
-0.386108	
-0.386597	
-0.386169	
-0.385803	
-0.386902	
-0.387146	
-0.385559	
-0.387146	
-0.38623	
-0.38739	
-0.387512	
-0.387695	
-0.387634	
-0.388	
-0.387939	
-0.389648	
-0.388977	
-0.388184	
-0.387024	
-0.386902	
-0.387878	
-0.388306	
-0.387207	
-0.386902	
-0.38678	
-0.386719	
-0.387085	
-0.38678	
-0.387207	
-0.385254	
-0.386353	
-0.385498	
-0.386536	
-0.386292	
-0.385986	
-0.385498	
-0.385986	
-0.386658	
-0.385559	
-0.385742	
-0.384949	
-0.385376	
-0.38623	
-0.385742	
-0.385986	
-0.386292	
-0.386536	
-0.387573	
-0.386536	
-0.387268	
-0.386292	
-0.385986	
-0.385681	
-0.387146	
-0.386414	
-0.386963	
-0.386719	
-0.386475	
-0.386719	
-0.386108	
-0.385925	
-0.384766	
-0.385376	
-0.384033	
-0.385498	
-0.38446	
-0.384644	
-0.384277	
-0.384644	
-0.384583	
-0.383606	
-0.383972	
-0.383423	
-0.383606	
-0.383362	
-0.382935	
-0.383606	
-0.382996	
-0.382568	
-0.38385	
-0.383728	
-0.382874	
-0.38324	
-0.382507	
-0.383301	
-0.384216	
-0.384094	
-0.384216	
-0.384583	
-0.384705	
-0.385986	
-0.38501	
-0.38562	
-0.384216	
-0.385498	
-0.384583	
-0.386841	
-0.386414	
-0.386902	
-0.387146	
-0.388123	
-0.388123	
-0.387939	
-0.387756	
-0.387146	
-0.387512	
-0.386719	
-0.387573	
-0.387573	
-0.387268	
-0.387451	
-0.387512	
-0.388	
-0.38623	
-0.386353	
-0.386536	
-0.386292	
-0.386597	
-0.386108	
-0.385437	
-0.385132	
-0.384705	
-0.384949	
-0.384216	
-0.383423	
-0.382629	
-0.381958	
-0.381714	
-0.382874	
-0.382019	
-0.382507	
-0.381958	
-0.381836	
-0.382568	
-0.381958	
-0.381958	
-0.381714	
-0.382263	
-0.381042	
-0.382263	
-0.381958	
-0.382019	
-0.381531	
-0.382019	
-0.382935	
-0.381958	
-0.38147	
-0.381287	
-0.381958	
-0.382263	
-0.382874	
-0.382446	
-0.382507	
-0.383118	
-0.383423	
-0.382629	
-0.382019	
-0.381836	
-0.381653	
-0.38269	
-0.383484	
-0.382935	
-0.383118	
-0.383118	
-0.384338	
-0.384644	
-0.384888	
-0.384399	
-0.383301	
-0.384277	
-0.383484	
-0.385803	
-0.385376	
-0.384888	
-0.385254	
-0.38501	
-0.385193	
-0.385132	
-0.38501	
-0.38501	
-0.384766	
-0.385193	
-0.385498	
-0.384949	
-0.384949	
-0.384521	
-0.384827	
-0.38385	
-0.382813	
-0.384033	
-0.383057	
-0.383301	
-0.383728	
-0.383728	
-0.383728	
-0.383606	
-0.383545	
-0.384399	
-0.383484	
-0.383606	
-0.382874	
-0.383118	
-0.383057	
-0.384644	
-0.384277	
-0.383789	
-0.383667	
-0.384033	
-0.38446	
-0.383911	
-0.383606	
-0.382202	
-0.383667	
-0.383545	
-0.383728	
-0.383423	
-0.383606	
-0.382935	
-0.383179	
-0.383545	
-0.382202	
-0.382141	
-0.381653	
-0.381348	
-0.382202	
-0.38208	
-0.381836	
-0.381531	
-0.381226	
-0.382446	
-0.38147	
-0.381958	
-0.380615	
-0.38031	
-0.380676	
-0.381836	
-0.380615	
-0.381348	
-0.381653	
-0.381775	
-0.382141	
-0.381836	
-0.38208	
-0.380249	
-0.381958	
-0.380798	
-0.382568	
-0.382019	
-0.382813	
-0.382263	
-0.382996	
-0.38385	
-0.382202	
-0.382141	
-0.382446	
-0.382507	
-0.382568	
-0.382507	
-0.382324	
-0.382507	
-0.381897	
-0.383728	
-0.383301	
-0.383606	
-0.382446	
-0.38269	
-0.382874	
-0.382874	
-0.382629	
-0.382507	
-0.382019	
-0.381897	
-0.382874	
-0.381104	
-0.381592	
-0.379944	
-0.380249	
-0.378845	
-0.380554	
-0.379272	
-0.378784	
-0.378906	
-0.37915	
-0.379517	
-0.377502	
-0.377563	
-0.37616	
-0.377441	
-0.377136	
-0.378235	
-0.378174	
-0.378357	
-0.378906	
-0.379395	
-0.379761	
-0.378967	
-0.3797	
-0.378723	
-0.379089	
-0.379761	
-0.380066	
-0.380249	
-0.379883	
-0.379944	
-0.381165	
-0.380127	
-0.380188	
-0.379517	
-0.379272	
-0.379272	
-0.379211	
-0.37915	
-0.378784	
-0.379211	
-0.378906	
-0.379333	
-0.378479	
-0.379089	
-0.377686	
-0.378845	
-0.377747	
-0.378784	
-0.378967	
-0.379028	
-0.378418	
-0.379578	
-0.380249	
-0.379272	
-0.378906	
-0.378723	
-0.379395	
-0.380066	
-0.379211	
-0.379211	
-0.379395	
-0.380188	
-0.379456	
-0.378906	
-0.378662	
-0.377991	
-0.377136	
-0.378174	
-0.378418	
-0.377136	
-0.377808	
-0.377197	
-0.377319	
-0.378052	
-0.377319	
-0.377319	
-0.375793	
-0.377502	
-0.376221	
-0.378296	
-0.377563	
-0.37738	
-0.377441	
-0.378113	
-0.378906	
-0.378723	
-0.377686	
-0.377441	
-0.378113	
-0.378662	
-0.378418	
-0.378479	
-0.378357	
-0.378601	
-0.379883	
-0.378479	
-0.378296	
-0.378296	
-0.378174	
-0.378662	
-0.379395	
-0.378845	
-0.378662	
-0.378601	
-0.378479	
-0.37915	
-0.378357	
-0.378601	
-0.377441	
-0.377869	
-0.377136	
-0.378906	
-0.378052	
-0.377869	
-0.378113	
-0.378784	
-0.379211	
-0.378174	
-0.378662	
-0.37793	
-0.378662	
-0.378967	
-0.379517	
-0.379578	
-0.379639	
-0.379089	
-0.380493	
-0.380249	
-0.380066	
-0.380188	
-0.379822	
-0.380249	
-0.380981	
-0.381165	
-0.381042	
-0.381042	
-0.381653	
-0.38269	
-0.381348	
-0.381409	
-0.38092	
-0.380432	
-0.380066	
-0.381531	
-0.380615	
-0.380188	
-0.379517	
-0.379639	
-0.381042	
-0.379272	
-0.379089	
-0.377563	
-0.377869	
-0.37738	
-0.37854	
-0.378174	
-0.37793	
-0.377258	
-0.377441	
-0.377686	
-0.376709	
-0.376404	
-0.376038	
-0.376526	
-0.376709	
-0.376404	
-0.376465	
-0.376648	
-0.37738	
-0.377869	
-0.377258	
-0.377197	
-0.376648	
-0.375732	
-0.376953	
-0.37738	
-0.376709	
-0.377441	
-0.378113	
-0.378845	
-0.380249	
-0.379517	
-0.380066	
-0.378723	
-0.380554	
-0.379517	
-0.382202	
-0.38092	
-0.381287	
-0.381653	
-0.382141	
-0.382202	
-0.381409	
-0.381104	
-0.380554	
-0.381836	
-0.381409	
-0.381165	
-0.380981	
-0.381714	
-0.382019	
-0.381958	
-0.382019	
-0.380432	
-0.381287	
-0.380432	
-0.381104	
-0.381531	
-0.38092	
-0.381165	
-0.381226	
-0.381165	
-0.382019	
-0.381653	
-0.381897	
-0.38031	
-0.380798	
-0.380554	
-0.381897	
-0.380859	
-0.38031	
-0.380737	
-0.380371	
-0.380615	
-0.379822	
-0.379028	
-0.378235	
-0.378601	
-0.378967	
-0.379028	
-0.378357	
-0.378113	
-0.378296	
-0.379028	
-0.379028	
-0.377808	
-0.378113	
-0.377502	
-0.378174	
-0.379089	
-0.37854	
-0.379089	
-0.378601	
-0.378784	
-0.379761	
-0.379211	
-0.380249	
-0.379089	
-0.378662	
-0.378906	
-0.380432	
-0.379761	
-0.379578	
-0.379517	
-0.379517	
-0.380676	
-0.379639	
-0.380188	
-0.378479	
-0.379578	
-0.378479	
-0.379456	
-0.378967	
-0.379211	
-0.378601	
-0.379517	
-0.379944	
-0.378906	
-0.379089	
-0.378296	
-0.379333	
-0.3797	
-0.379517	
-0.379578	
-0.379272	
-0.379211	
-0.380432	
-0.380188	
-0.380249	
-0.379272	
-0.379883	
-0.380188	
-0.381348	
-0.380493	
-0.381104	
-0.381165	
-0.381226	
-0.382446	
-0.381104	
-0.382324	
-0.380615	
-0.38147	
-0.380615	
-0.382141	
-0.38147	
-0.381592	
-0.381042	
-0.381836	
-0.38208	
-0.38092	
-0.380676	
-0.379639	
-0.380432	
-0.379883	
-0.380249	
-0.3797	
-0.379517	
-0.3797	
-0.380493	
-0.379272	
-0.378296	
-0.379333	
-0.379333	
-0.378967	
-0.379761	
-0.380066	
-0.379883	
-0.380188	
-0.38031	
-0.381409	
-0.379333	
-0.3797	
-0.379028	
-0.379089	
-0.378296	
-0.380554	
-0.379333	
-0.379211	
-0.3797	
-0.380005	
-0.381287	
-0.379944	
-0.380371	
-0.379395	
-0.380554	
-0.38092	
-0.38208	
-0.382324	
-0.382324	
-0.383423	
-0.383667	
-0.384338	
-0.383301	
-0.384033	
-0.382935	
-0.383423	
-0.384521	
-0.384155	
-0.383728	
-0.38385	
-0.383667	
-0.384216	
-0.382385	
-0.382874	
-0.381897	
-0.381836	
-0.381531	
-0.382813	
-0.381714	
-0.381714	
-0.381592	
-0.381775	
-0.38208	
-0.381958	
-0.381958	
-0.380249	
-0.381958	
-0.382019	
-0.382935	
-0.382263	
-0.382629	
-0.382629	
-0.383362	
-0.384033	
-0.383301	
-0.382751	
-0.382019	
-0.38324	
-0.384277	
-0.38385	
-0.383545	
-0.383362	
-0.383728	
-0.383606	
-0.383667	
-0.383179	
-0.382568	
-0.381348	
-0.381958	
-0.383057	
-0.382446	
-0.38269	
-0.382996	
-0.383362	
-0.38446	
-0.382263	
-0.383423	
-0.381958	
-0.383301	
-0.381958	
-0.384338	
-0.384033	
-0.384766	
-0.38501	
-0.384888	
-0.385498	
-0.384705	
-0.384766	
-0.384766	
-0.384277	
-0.384705	
-0.385498	
-0.384888	
-0.384521	
-0.383789	
-0.384583	
-0.384155	
-0.383484	
-0.382935	
-0.382507	
-0.383118	
-0.382996	
-0.383301	
-0.383179	
-0.383667	
-0.383423	
-0.384033	
-0.382813	
-0.383606	
-0.382935	
-0.382629	
-0.381592	
-0.383606	
-0.383057	
-0.382568	
-0.382751	
-0.382996	
-0.383667	
-0.382813	
-0.382813	
-0.382874	
-0.383057	
-0.383728	
-0.383789	
-0.383301	
-0.383606	
-0.382202	
-0.383423	
-0.384216	
-0.384338	
-0.383179	
-0.382568	
-0.382935	
-0.383057	
-0.382813	
-0.382324	
-0.38324	
-0.38208	
-0.38269	
-0.380798	
-0.382202	
-0.380798	
-0.380798	
-0.379761	
-0.381653	
-0.380554	
-0.38031	
-0.38031	
-0.380066	
-0.381042	
-0.380005	
-0.380005	
-0.378174	
-0.379944	
-0.380066	
-0.380981	
-0.380676	
-0.381592	
-0.38031	
-0.382202	
-0.382385	
-0.382141	
-0.381836	
-0.382019	
-0.382629	
-0.383118	
-0.383118	
-0.383301	
-0.384155	
-0.382813	
-0.384583	
-0.384216	
-0.385376	
-0.383667	
-0.383484	
-0.384033	
-0.385254	
-0.38501	
-0.385254	
-0.384583	
-0.384705	
-0.384949	
-0.384216	
-0.384705	
-0.383667	
-0.384033	
-0.384521	
-0.38562	
-0.38446	
-0.384399	
-0.383179	
-0.383667	
-0.383728	
-0.383057	
-0.382263	
-0.381653	
-0.380859	
-0.380798	
-0.380737	
-0.380127	
-0.380859	
-0.379272	
-0.380676	
-0.379639	
-0.380005	
-0.380249	
-0.379333	
-0.380005	
-0.380493	
-0.380005	
-0.380249	
-0.379333	
-0.379883	
-0.380676	
-0.379883	
-0.380676	
-0.378601	
-0.380066	
-0.378845	
-0.381531	
-0.380615	
-0.38092	
-0.380066	
-0.38031	
-0.380127	
-0.380981	
-0.380249	
-0.380676	
-0.38092	
-0.381165	
-0.381714	
-0.38208	
-0.381653	
-0.380737	
-0.381165	
-0.382568	
-0.38269	
-0.382263	
-0.382019	
-0.382935	
-0.383179	
-0.383301	
-0.383118	
-0.383911	
-0.382935	
-0.384521	
-0.384216	
-0.38501	
-0.38324	
-0.382813	
-0.383179	
-0.384705	
-0.384521	
-0.383606	
-0.383606	
-0.382751	
-0.384399	
-0.383362	
-0.383179	
-0.381592	
-0.382446	
-0.383179	
-0.383728	
-0.382324	
-0.381775	
-0.381836	
-0.38269	
-0.383484	
-0.382568	
-0.382019	
-0.381775	
-0.382568	
-0.38269	
-0.383179	
-0.38269	
-0.382874	
-0.382263	
-0.383911	
-0.383545	
-0.38385	
-0.382446	
-0.381409	
-0.381836	
-0.38324	
-0.383362	
-0.382202	
-0.382446	
-0.382263	
-0.383606	
-0.382568	
-0.382385	
-0.381287	
-0.382019	
-0.380676	
-0.382751	
-0.381653	
-0.381348	
-0.38031	
-0.381287	
-0.381958	
-0.380798	
-0.380615	
-0.381165	
-0.38031	
-0.380859	
-0.381897	
-0.380737	
-0.380249	
-0.379456	
-0.381287	
-0.381409	
-0.381897	
-0.380676	
-0.379944	
-0.381165	
-0.38208	
-0.38269	
-0.381897	
-0.381836	
-0.382141	
-0.383423	
-0.382324	
-0.382935	
-0.381836	
-0.382507	
-0.381897	
-0.383728	
-0.38269	
-0.382568	
-0.381531	
-0.382263	
-0.38324	
-0.382629	
-0.382813	
-0.381165	
-0.382446	
-0.382568	
-0.383789	
-0.382874	
-0.382629	
-0.382385	
-0.38269	
-0.383362	
-0.382935	
-0.381897	
-0.381287	
-0.381531	
-0.382019	
-0.382141	
-0.380127	
-0.380127	
-0.379395	
-0.380615	
-0.379028	
-0.380005	
-0.378235	
-0.378235	
-0.378235	
-0.379089	
-0.378479	
-0.377808	
-0.378174	
-0.377563	
-0.379517	
-0.378906	
-0.3797	
-0.378357	
-0.379822	
-0.379456	
-0.380737	
-0.380737	
-0.380737	
-0.379272	
-0.380859	
-0.38208	
-0.380798	
-0.380737	
-0.379517	
-0.380127	
-0.380371	
-0.381348	
-0.3797	
-0.3797	
-0.379578	
-0.381165	
-0.380127	
-0.379578	
-0.378906	
-0.379028	
-0.379395	
-0.380249	
-0.379883	
-0.37915	
-0.37915	
-0.378784	
-0.380676	
-0.379211	
-0.379456	
-0.378479	
-0.380249	
-0.379944	
-0.381409	
-0.380432	
-0.380249	
-0.379395	
-0.380127	
-0.381592	
-0.380005	
-0.379944	
-0.379639	
-0.379883	
-0.379822	
-0.380127	
-0.379639	
-0.378723	
-0.377686	
-0.379028	
-0.378906	
-0.379578	
-0.37793	
-0.377014	
-0.378235	
-0.379272	
-0.379639	
-0.378357	
-0.377869	
-0.377869	
-0.379639	
-0.379456	
-0.380493	
-0.378662	
-0.379639	
-0.378845	
-0.380859	
-0.379578	
-0.379517	
-0.379211	
-0.379517	
-0.38031	
-0.380371	
-0.380127	
-0.379761	
-0.379883	
-0.3797	
-0.38092	
-0.38031	
-0.380066	
-0.378967	
-0.380676	
-0.38092	
-0.380188	
-0.379517	
-0.378357	
-0.379822	
-0.380127	
-0.380127	
-0.379883	
-0.379822	
-0.379761	
-0.381042	
-0.379944	
-0.380371	
-0.378784	
-0.379761	
-0.379517	
-0.38092	
-0.380615	
-0.380737	
-0.380737	
-0.380005	
-0.382446	
-0.381775	
-0.382446	
-0.380554	
-0.381592	
-0.38147	
-0.382996	
-0.382385	
-0.382507	
-0.381409	
-0.382568	
-0.384155	
-0.382874	
-0.382935	
-0.382935	
-0.383423	
-0.383911	
-0.384155	
-0.38324	
-0.383057	
-0.382263	
-0.383667	
-0.382629	
-0.383118	
-0.381287	
-0.381592	
-0.381165	
-0.381592	
-0.382019	
-0.380615	
-0.380127	
-0.380066	
-0.381531	
-0.380005	
-0.380249	
-0.378479	
-0.379211	
-0.378052	
-0.379822	
-0.378967	
-0.378479	
-0.377747	
-0.378967	
-0.380127	
-0.379028	
-0.37915	
-0.378418	
-0.379028	
-0.378967	
-0.380371	
-0.379456	
-0.379395	
-0.378418	
-0.379822	
-0.38031	
-0.381226	
-0.380615	
-0.380737	
-0.381592	
-0.38324	
-0.383118	
-0.383179	
-0.382751	
-0.382385	
-0.38446	
-0.383179	
-0.384399	
-0.382874	
-0.38324	
-0.382629	
-0.384644	
-0.384216	
-0.383972	
-0.383606	
-0.383545	
-0.385559	
-0.383972	
-0.384094	
-0.382202	
-0.383545	
-0.383789	
-0.384705	
-0.38324	
-0.383057	
-0.38269	
-0.383667	
-0.384155	
-0.383301	
-0.383545	
-0.381836	
-0.38324	
-0.383545	
-0.384277	
-0.383179	
-0.383362	
-0.38269	
-0.383545	
-0.383301	
-0.382996	
-0.382263	
-0.381226	
-0.381409	
-0.381348	
-0.381287	
-0.381104	
-0.380981	
-0.380066	
-0.381775	
-0.380371	
-0.38092	
-0.378845	
-0.380127	
-0.380066	
-0.382385	
-0.380432	
-0.380066	
-0.379395	
-0.380798	
-0.38147	
-0.381104	
-0.380737	
-0.380127	
-0.38147	
-0.38208	
-0.382568	
-0.381836	
-0.381592	
-0.380981	
-0.381958	
-0.38208	
-0.382324	
-0.380676	
-0.381226	
-0.381653	
-0.382324	
-0.381836	
-0.381653	
	
