E:\DOCUMENTS AND SETTINGS\JPOTAS\MEUS DOCUMENTOS\UFRJ\RSCI-BM 12 WK SERIES\070727-RSCI-BM-05\RSCI-BM-05-REMG\070727-RSCI-BM-05-REMG-0012.ACQ
0.025000 msec/sample
1 channel
Analog input
Volts
CH1	
2000	
-0.387573	
-0.389648	
-0.387878	
-0.388	
-0.386536	
-0.388916	
-0.388428	
-0.388306	
-0.387878	
-0.387085	
-0.387878	
-0.388794	
-0.389221	
-0.387939	
-0.388489	
-0.387634	
-0.389099	
-0.388306	
-0.388245	
-0.386353	
-0.387939	
-0.387573	
-0.389648	
-0.389343	
-0.389404	
-0.389038	
-0.38916	
-0.389404	
-0.388672	
-0.388672	
-0.388977	
-0.387939	
-0.387878	
-0.389404	
-0.388123	
-0.387512	
-0.386597	
-0.388367	
-0.387573	
-0.387024	
-0.385742	
-0.384766	
-0.385315	
-0.385864	
-0.385925	
-0.385254	
-0.384583	
-0.383911	
-0.385193	
-0.384155	
-0.38446	
-0.383057	
-0.383728	
-0.383118	
-0.383667	
-0.383606	
-0.382935	
-0.382813	
-0.381287	
-0.383179	
-0.38208	
-0.381836	
-0.381409	
-0.380981	
-0.38092	
-0.382751	
-0.381287	
-0.381165	
-0.38031	
-0.381531	
-0.381653	
-0.381287	
-0.380798	
-0.380249	
-0.380981	
-0.380676	
-0.381958	
-0.38092	
-0.38092	
-0.380371	
-0.382202	
-0.382874	
-0.383118	
-0.381958	
-0.382507	
-0.383545	
-0.384583	
-0.386108	
-0.38446	
-0.384705	
-0.384216	
-0.385193	
-0.38501	
-0.384827	
-0.383667	
-0.38501	
-0.383545	
-0.384949	
-0.384216	
-0.383789	
-0.383545	
-0.383911	
-0.384399	
-0.383362	
-0.383118	
-0.382568	
-0.382446	
-0.38269	
-0.38385	
-0.38269	
-0.382263	
-0.381714	
-0.383667	
-0.382751	
-0.383606	
-0.38208	
-0.381592	
-0.382446	
-0.382751	
-0.383606	
-0.382629	
-0.382202	
-0.381165	
-0.383545	
-0.382935	
-0.38324	
-0.381592	
-0.383057	
-0.382874	
-0.38385	
-0.383179	
-0.383423	
-0.382935	
-0.382568	
-0.383362	
-0.383057	
-0.382446	
-0.382019	
-0.382263	
-0.382874	
-0.384094	
-0.382813	
-0.382446	
-0.382324	
-0.383179	
-0.38324	
-0.383484	
-0.382996	
-0.38208	
-0.383057	
-0.383057	
-0.384033	
-0.382874	
-0.382385	
-0.381226	
-0.383362	
-0.38208	
-0.381775	
-0.38031	
-0.380676	
-0.379944	
-0.381531	
-0.381409	
-0.381042	
-0.381104	
-0.38031	
-0.382385	
-0.381897	
-0.381226	
-0.38147	
-0.382141	
-0.382507	
-0.382996	
-0.383118	
-0.383179	
-0.383118	
-0.383667	
-0.384338	
-0.383484	
-0.38269	
-0.382446	
-0.383118	
-0.383423	
-0.38446	
-0.383423	
-0.383179	
-0.382263	
-0.384033	
-0.384399	
-0.384521	
-0.382996	
-0.382507	
-0.383362	
-0.383728	
-0.38385	
-0.383789	
-0.383545	
-0.376526	
-0.374634	
-0.374146	
-0.373901	
-0.373352	
-0.374451	
-0.382019	
-0.385681	
-0.385559	
-0.384949	
-0.384521	
-0.385315	
-0.385681	
-0.385376	
-0.384583	
-0.384644	
-0.384399	
-0.384949	
-0.386169	
-0.384155	
-0.384949	
-0.384277	
-0.385742	
-0.385315	
-0.386047	
-0.385254	
-0.384399	
-0.38446	
-0.38623	
-0.387329	
-0.38623	
-0.386475	
-0.385437	
-0.388062	
-0.38623	
-0.387207	
-0.386047	
-0.386658	
-0.385132	
-0.387268	
-0.387146	
-0.386047	
-0.385559	
-0.38562	
-0.386597	
-0.385376	
-0.384827	
-0.384094	
-0.384705	
-0.384644	
-0.385742	
-0.38385	
-0.383728	
-0.383118	
-0.383728	
-0.384094	
-0.383972	
-0.382446	
-0.381836	
-0.381836	
-0.38208	
-0.382629	
-0.381409	
-0.381104	
-0.379333	
-0.381897	
-0.380859	
-0.380066	
-0.379333	
-0.378845	
-0.378845	
-0.379395	
-0.379456	
-0.379028	
-0.378906	
-0.377747	
-0.379211	
-0.37915	
-0.378784	
-0.377747	
-0.378662	
-0.379028	
-0.380249	
-0.379517	
-0.379883	
-0.379456	
-0.380005	
-0.381409	
-0.382263	
-0.381958	
-0.382202	
-0.38324	
-0.384033	
-0.385559	
-0.384583	
-0.385071	
-0.384277	
-0.388	
-0.388428	
-0.389465	
-0.388855	
-0.389526	
-0.390137	
-0.392395	
-0.393005	
-0.393127	
-0.394226	
-0.394897	
-0.396301	
-0.396912	
-0.397339	
-0.398499	
-0.399231	
-0.400818	
-0.403992	
-0.403625	
-0.404663	
-0.404968	
-0.408325	
-0.409485	
-0.410889	
-0.412537	
-0.414917	
-0.41687	
-0.419312	
-0.420654	
-0.422791	
-0.423706	
-0.427734	
-0.430176	
-0.432373	
-0.433594	
-0.436829	
-0.439087	
-0.441895	
-0.443481	
-0.445251	
-0.447205	
-0.450989	
-0.452698	
-0.454773	
-0.455505	
-0.459351	
-0.461792	
-0.464783	
-0.466858	
-0.46814	
-0.469421	
-0.470703	
-0.471436	
-0.472961	
-0.472717	
-0.473694	
-0.474426	
-0.475891	
-0.476685	
-0.475464	
-0.474548	
-0.473694	
-0.474854	
-0.473877	
-0.47345	
-0.4729	
-0.473083	
-0.471497	
-0.47113	
-0.469543	
-0.468811	
-0.468018	
-0.468994	
-0.468811	
-0.468323	
-0.467041	
-0.466187	
-0.466797	
-0.467285	
-0.467896	
-0.46637	
-0.466736	
-0.466003	
-0.466431	
-0.465332	
-0.464417	
-0.463013	
-0.463501	
-0.461792	
-0.461914	
-0.460938	
-0.4599	
-0.45874	
-0.457764	
-0.458374	
-0.457153	
-0.456238	
-0.455078	
-0.454224	
-0.45343	
-0.453369	
-0.450745	
-0.449707	
-0.447693	
-0.447876	
-0.446594	
-0.445618	
-0.442932	
-0.441284	
-0.439941	
-0.439026	
-0.438293	
-0.435669	
-0.433777	
-0.431458	
-0.430786	
-0.428101	
-0.42627	
-0.422302	
-0.420776	
-0.417542	
-0.415527	
-0.411865	
-0.407776	
-0.403931	
-0.400146	
-0.396729	
-0.393372	
-0.390076	
-0.386169	
-0.383118	
-0.380432	
-0.378784	
-0.375732	
-0.373779	
-0.371338	
-0.369568	
-0.368164	
-0.365662	
-0.363037	
-0.360779	
-0.359436	
-0.358093	
-0.357178	
-0.355103	
-0.354126	
-0.352295	
-0.353577	
-0.353027	
-0.352783	
-0.351868	
-0.351196	
-0.352539	
-0.35376	
-0.354309	
-0.354004	
-0.354858	
-0.354736	
-0.357117	
-0.357727	
-0.35791	
-0.358826	
-0.359558	
-0.360474	
-0.362183	
-0.361938	
-0.362549	
-0.362549	
-0.364929	
-0.365234	
-0.365967	
-0.365295	
-0.365784	
-0.366882	
-0.368774	
-0.369446	
-0.369629	
-0.369995	
-0.369568	
-0.371887	
-0.371948	
-0.37207	
-0.372314	
-0.372742	
-0.373291	
-0.374023	
-0.37384	
-0.373962	
-0.37384	
-0.374756	
-0.375305	
-0.375793	
-0.376587	
-0.37738	
-0.378967	
-0.379272	
-0.379639	
-0.379578	
-0.379822	
-0.380554	
-0.380005	
-0.379639	
-0.379639	
-0.379333	
-0.379761	
-0.379395	
-0.379211	
-0.378723	
-0.378113	
-0.378479	
-0.377747	
-0.37738	
-0.375183	
-0.375671	
-0.376099	
-0.376953	
-0.375427	
-0.37561	
-0.374451	
-0.375549	
-0.37561	
-0.375793	
-0.374634	
-0.373596	
-0.374573	
-0.374817	
-0.374939	
-0.374573	
-0.374207	
-0.373291	
-0.374634	
-0.373962	
-0.374023	
-0.373962	
-0.374084	
-0.374268	
-0.375	
-0.37439	
-0.374451	
-0.37323	
-0.375244	
-0.374573	
-0.375183	
-0.373718	
-0.374695	
-0.374451	
-0.37616	
-0.376038	
-0.375732	
-0.37561	
-0.376221	
-0.376953	
-0.37677	
-0.376221	
-0.375122	
-0.376343	
-0.376953	
-0.377502	
-0.376404	
-0.376526	
-0.375183	
-0.376709	
-0.375305	
-0.375061	
-0.373108	
-0.373596	
-0.373535	
-0.374268	
-0.372803	
-0.372803	
-0.371582	
-0.374023	
-0.372009	
-0.373413	
-0.371826	
-0.372192	
-0.371155	
-0.373535	
-0.372864	
-0.373108	
-0.37262	
-0.374573	
-0.373718	
-0.374756	
-0.373596	
-0.374695	
-0.374573	
-0.375549	
-0.376648	
-0.376404	
-0.376404	
-0.375916	
-0.378235	
-0.377502	
-0.37738	
-0.376465	
-0.378723	
-0.379333	
-0.380249	
-0.379456	
-0.380127	
-0.379822	
-0.381775	
-0.382324	
-0.382507	
-0.381531	
-0.382446	
-0.382568	
-0.382874	
-0.383545	
-0.382874	
-0.382996	
-0.382019	
-0.38501	
-0.383057	
-0.383362	
-0.382813	
-0.38324	
-0.382202	
-0.384155	
-0.384338	
-0.383606	
-0.382874	
-0.382385	
-0.383423	
-0.381958	
-0.381409	
-0.38031	
-0.381104	
-0.380981	
-0.382751	
-0.381653	
-0.381775	
-0.381165	
-0.382324	
-0.38269	
-0.382935	
-0.382751	
-0.383667	
-0.383484	
-0.383667	
-0.384399	
-0.383972	
-0.384216	
-0.384583	
-0.385254	
-0.385193	
-0.385986	
-0.384949	
-0.385254	
-0.384521	
-0.385925	
-0.386475	
-0.38501	
-0.385437	
-0.384338	
-0.385803	
-0.384583	
-0.385315	
-0.38385	
-0.38501	
-0.384033	
-0.385803	
-0.385254	
-0.384583	
-0.384338	
-0.384338	
-0.384338	
-0.384399	
-0.384094	
-0.38446	
-0.384338	
-0.384399	
-0.384949	
-0.384399	
-0.384583	
-0.383362	
-0.384827	
-0.384399	
-0.384705	
-0.383362	
-0.383911	
-0.384155	
-0.384827	
-0.385254	
-0.384399	
-0.384644	
-0.383301	
-0.38446	
-0.382568	
-0.384644	
-0.382507	
-0.383606	
-0.383667	
-0.385437	
-0.383911	
-0.384888	
-0.384277	
-0.383972	
-0.384277	
-0.384766	
-0.38385	
-0.384216	
-0.384033	
-0.383728	
-0.384827	
-0.383545	
-0.383972	
-0.382324	
-0.383667	
-0.381958	
-0.381958	
-0.381775	
-0.381714	
-0.381409	
-0.381775	
-0.382385	
-0.380554	
-0.38092	
-0.380615	
-0.38092	
-0.37915	
-0.380615	
-0.378662	
-0.380188	
-0.378845	
-0.379883	
-0.379395	
-0.379089	
-0.378113	
-0.377502	
-0.378174	
-0.378052	
-0.377869	
-0.377563	
-0.377441	
-0.376038	
-0.377808	
-0.377258	
-0.377319	
-0.375122	
-0.377014	
-0.37561	
-0.376587	
-0.376221	
-0.376404	
-0.376465	
-0.376343	
-0.377625	
-0.37738	
-0.376709	
-0.376221	
-0.378113	
-0.377563	
-0.378784	
-0.378052	
-0.379211	
-0.379456	
-0.380127	
-0.381287	
-0.381836	
-0.380676	
-0.380737	
-0.381531	
-0.381348	
-0.381897	
-0.379639	
-0.380249	
-0.380188	
-0.381836	
-0.381226	
-0.381104	
-0.380066	
-0.379761	
-0.378906	
-0.379944	
-0.379089	
-0.379089	
-0.378845	
-0.378906	
-0.380005	
-0.379639	
-0.379028	
-0.378357	
-0.379639	
-0.379211	
-0.379333	
-0.379272	
-0.379333	
-0.379333	
-0.379944	
-0.380859	
-0.379822	
-0.379639	
-0.378174	
-0.38031	
-0.380371	
-0.380554	
-0.378723	
-0.379517	
-0.379089	
-0.380188	
-0.380676	
-0.379578	
-0.379517	
-0.378479	
-0.379761	
-0.379822	
-0.379822	
-0.379028	
-0.3797	
-0.379333	
-0.38147	
-0.379395	
-0.379578	
-0.378784	
-0.3797	
-0.379517	
-0.379456	
-0.379639	
-0.379944	
-0.380127	
-0.380615	
-0.381042	
-0.379822	
-0.379211	
-0.378174	
-0.379578	
-0.377869	
-0.378967	
-0.377319	
-0.378052	
-0.377563	
-0.379028	
-0.378662	
-0.377625	
-0.37738	
-0.376953	
-0.378235	
-0.378174	
-0.378235	
-0.377991	
-0.378967	
-0.379517	
-0.380798	
-0.379883	
-0.379761	
-0.37854	
-0.379517	
-0.379883	
-0.38031	
-0.380005	
-0.3797	
-0.379578	
-0.380493	
-0.380737	
-0.380005	
-0.379456	
-0.378662	
-0.380615	
-0.379639	
-0.380676	
-0.379944	
-0.380371	
-0.380188	
-0.381409	
-0.381348	
-0.380371	
-0.380249	
-0.380066	
-0.381104	
-0.381165	
-0.381226	
-0.379944	
-0.380615	
-0.379333	
-0.382568	
-0.380493	
-0.380554	
-0.380005	
-0.380493	
-0.380798	
-0.381409	
-0.380371	
-0.380615	
-0.381104	
-0.381348	
-0.382629	
-0.380615	
-0.380493	
-0.379639	
-0.381592	
-0.380676	
-0.382202	
-0.38147	
-0.38208	
-0.382385	
-0.382446	
-0.383423	
-0.383057	
-0.382263	
-0.381653	
-0.383606	
-0.383301	
-0.384399	
-0.382629	
-0.383057	
-0.382996	
-0.384583	
-0.383911	
-0.382507	
-0.382202	
-0.381409	
-0.382629	
-0.381958	
-0.381897	
-0.38092	
-0.381409	
-0.380432	
-0.382202	
-0.380615	
-0.379883	
-0.37854	
-0.380127	
-0.380432	
-0.379639	
-0.379639	
-0.379211	
-0.37854	
-0.379028	
-0.379883	
-0.377991	
-0.377686	
-0.376343	
-0.378052	
-0.376892	
-0.377136	
-0.376282	
-0.375793	
-0.375366	
-0.377319	
-0.376831	
-0.375854	
-0.375183	
-0.374695	
-0.376099	
-0.375916	
-0.375732	
-0.374268	
-0.375671	
-0.375427	
-0.376587	
-0.37561	
-0.376221	
-0.375427	
-0.376404	
-0.376892	
-0.377991	
-0.377747	
-0.37793	
-0.378418	
-0.379639	
-0.380859	
-0.379028	
-0.379333	
-0.37793	
-0.379883	
-0.379089	
-0.380005	
-0.378784	
-0.378906	
-0.378723	
-0.379578	
-0.37915	
-0.377808	
-0.377563	
-0.377014	
-0.37854	
-0.377441	
-0.377747	
-0.376038	
-0.377319	
-0.375977	
-0.378906	
-0.37738	
-0.377502	
-0.376099	
-0.377563	
-0.37738	
-0.37738	
-0.377502	
-0.376831	
-0.377563	
-0.37793	
-0.378967	
-0.377747	
-0.377563	
-0.376953	
-0.378357	
-0.378601	
-0.378784	
-0.377747	
-0.377686	
-0.378174	
-0.378357	
-0.378845	
-0.378113	
-0.377563	
-0.376526	
-0.378479	
-0.378052	
-0.378601	
-0.377136	
-0.377747	
-0.377319	
-0.379456	
-0.378723	
-0.378967	
-0.377258	
-0.378357	
-0.378235	
-0.378296	
-0.377991	
-0.378113	
-0.378418	
-0.378235	
-0.37915	
-0.377747	
-0.377319	
-0.375793	
-0.377258	
-0.377625	
-0.37738	
-0.376648	
-0.377136	
-0.377319	
-0.377808	
-0.377747	
-0.377747	
-0.377808	
-0.377502	
-0.378967	
-0.37915	
-0.380005	
-0.379089	
-0.3797	
-0.379395	
-0.382019	
-0.38147	
-0.380493	
-0.38031	
-0.380676	
-0.381775	
-0.381287	
-0.381897	
-0.381104	
-0.381775	
-0.38208	
-0.384216	
-0.382324	
-0.382568	
-0.381592	
-0.382996	
-0.383362	
-0.384033	
-0.383484	
-0.383606	
-0.383972	
-0.384888	
-0.385681	
-0.38446	
-0.385071	
-0.383057	
-0.385315	
-0.385254	
-0.385681	
-0.384705	
-0.385193	
-0.38501	
-0.385986	
-0.386169	
-0.385376	
-0.384888	
-0.384766	
-0.386597	
-0.38562	
-0.385376	
-0.384094	
-0.383789	
-0.382385	
-0.384094	
-0.382813	
-0.381775	
-0.380615	
-0.381348	
-0.381897	
-0.38147	
-0.381409	
-0.38092	
-0.381348	
-0.382202	
-0.382935	
-0.381531	
-0.38208	
-0.38031	
-0.382324	
-0.38269	
-0.383362	
-0.382507	
-0.382996	
-0.38269	
-0.383728	
-0.384949	
-0.383362	
-0.38324	
-0.381958	
-0.384644	
-0.384399	
-0.384277	
-0.383057	
-0.383545	
-0.382568	
-0.384766	
-0.383484	
-0.38324	
-0.382935	
-0.382629	
-0.383423	
-0.382996	
-0.383179	
-0.382324	
-0.383118	
-0.382629	
-0.384888	
-0.383118	
-0.382813	
-0.381592	
-0.383606	
-0.382996	
-0.383423	
-0.383362	
-0.382996	
-0.382874	
-0.383789	
-0.385498	
-0.383606	
-0.383972	
-0.382446	
-0.384277	
-0.383606	
-0.384949	
-0.383545	
-0.383667	
-0.383484	
-0.383362	
-0.383789	
-0.383057	
-0.383423	
-0.38324	
-0.384583	
-0.385071	
-0.385071	
-0.384705	
-0.384338	
-0.38446	
-0.386719	
-0.385315	
-0.385071	
-0.384277	
-0.385437	
-0.385498	
-0.384827	
-0.384338	
-0.383789	
-0.384155	
-0.384583	
-0.384766	
-0.383423	
-0.383423	
-0.382751	
-0.384277	
-0.383545	
-0.383667	
-0.382507	
-0.383057	
-0.383118	
-0.384033	
-0.384338	
-0.383545	
-0.383118	
-0.381531	
-0.383423	
-0.382996	
-0.383728	
-0.382019	
-0.382751	
-0.381653	
-0.38385	
-0.382629	
-0.382507	
-0.381653	
-0.382019	
-0.382263	
-0.383118	
-0.381653	
-0.382507	
-0.382507	
-0.382507	
-0.383667	
-0.382385	
-0.382263	
-0.381348	
-0.383423	
-0.38208	
-0.38324	
-0.382446	
-0.38269	
-0.382507	
-0.383057	
-0.38446	
-0.383118	
-0.382813	
-0.382019	
-0.383789	
-0.383423	
-0.383423	
-0.381165	
-0.381714	
-0.380737	
-0.382629	
-0.38208	
-0.381042	
-0.380371	
-0.379639	
-0.380737	
-0.380371	
-0.379822	
-0.379944	
-0.380005	
-0.380066	
-0.381042	
-0.380798	
-0.380493	
-0.379395	
-0.381409	
-0.380859	
-0.381714	
-0.380859	
-0.381714	
-0.381714	
-0.382629	
-0.384094	
-0.382935	
-0.382813	
-0.382568	
-0.383789	
-0.384033	
-0.38446	
-0.383057	
-0.383911	
-0.384277	
-0.385986	
-0.386108	
-0.385132	
-0.385559	
-0.385986	
-0.386536	
-0.386902	
-0.386902	
-0.386719	
-0.387268	
-0.38623	
-0.388794	
-0.387695	
-0.38739	
-0.386719	
-0.387512	
-0.387939	
-0.388611	
-0.387756	
-0.388367	
-0.388428	
-0.389099	
-0.389465	
-0.388672	
-0.388184	
-0.386047	
-0.388367	
-0.387756	
-0.388245	
-0.386658	
-0.387146	
-0.38562	
-0.385803	
-0.386475	
-0.384338	
-0.38446	
-0.383423	
-0.384521	
-0.384521	
-0.385193	
-0.384644	
-0.384766	
-0.383484	
-0.385925	
-0.385437	
-0.385254	
-0.384644	
-0.384216	
-0.385315	
-0.386536	
-0.385986	
-0.385681	
-0.385864	
-0.385742	
-0.387451	
-0.386597	
-0.38623	
-0.385559	
-0.387878	
-0.386658	
-0.38623	
-0.385925	
-0.386169	
-0.386108	
-0.386292	
-0.387207	
-0.385864	
-0.385437	
-0.384705	
-0.386597	
-0.385986	
-0.385803	
-0.385193	
-0.38623	
-0.385315	
-0.386841	
-0.386719	
-0.38623	
-0.385437	
-0.384888	
-0.386292	
-0.386597	
-0.386108	
-0.386047	
-0.385986	
-0.385193	
-0.38739	
-0.386047	
-0.386047	
-0.38501	
-0.387146	
-0.387085	
-0.387085	
-0.386475	
-0.38678	
-0.385925	
-0.386658	
-0.387756	
-0.386597	
-0.387024	
-0.386841	
-0.387695	
-0.386902	
-0.387878	
-0.386292	
-0.387268	
-0.387085	
-0.388489	
-0.387512	
-0.386414	
-0.386169	
-0.384888	
-0.386536	
-0.38562	
-0.386047	
-0.384277	
-0.385132	
-0.383545	
-0.385559	
-0.384094	
-0.383911	
-0.382996	
-0.384094	
-0.383057	
-0.383118	
-0.382874	
-0.382813	
-0.382446	
-0.382629	
-0.384033	
-0.381958	
-0.381958	
-0.380737	
-0.382324	
-0.380859	
-0.381165	
-0.379883	
-0.380371	
-0.380005	
-0.380798	
-0.381226	
-0.379822	
-0.379089	
-0.378235	
-0.380493	
-0.3797	
-0.380371	
-0.378479	
-0.379272	
-0.378601	
-0.380127	
-0.379761	
-0.379333	
-0.378418	
-0.378967	
-0.379822	
-0.379639	
-0.380066	
-0.380981	
-0.380859	
-0.381226	
-0.382874	
-0.38208	
-0.382324	
-0.381653	
-0.38324	
-0.383484	
-0.383972	
-0.382507	
-0.383423	
-0.383301	
-0.383728	
-0.384827	
-0.383545	
-0.381958	
-0.381287	
-0.383362	
-0.382935	
-0.382996	
-0.381409	
-0.382019	
-0.381348	
-0.382751	
-0.382202	
-0.38092	
-0.380188	
-0.379944	
-0.380737	
-0.381042	
-0.381531	
-0.379578	
-0.381165	
-0.380737	
-0.382568	
-0.380981	
-0.381226	
-0.380493	
-0.381226	
-0.381104	
-0.381592	
-0.381531	
-0.381592	
-0.381287	
-0.381958	
-0.38208	
-0.381348	
-0.38147	
-0.379822	
-0.382507	
-0.381714	
-0.382385	
-0.381104	
-0.381592	
-0.381104	
-0.382324	
-0.382568	
-0.381287	
-0.38147	
-0.381104	
-0.382141	
-0.381653	
-0.382141	
-0.380005	
-0.381042	
-0.380432	
-0.382629	
-0.382507	
-0.38147	
-0.380737	
-0.380676	
-0.381836	
-0.380859	
-0.380249	
-0.380371	
-0.380493	
-0.380249	
-0.380493	
-0.380005	
-0.379456	
-0.378967	
-0.38031	
-0.379883	
-0.380554	
-0.380188	
-0.380615	
-0.380554	
-0.381287	
-0.381287	
-0.380859	
-0.380493	
-0.381042	
-0.382263	
-0.381836	
-0.382874	
-0.381653	
-0.381775	
-0.381042	
-0.383484	
-0.382568	
-0.382019	
-0.380432	
-0.380981	
-0.382141	
-0.382446	
-0.381348	
-0.381897	
-0.382568	
-0.382385	
-0.383667	
-0.382568	
-0.382263	
-0.382202	
-0.382813	
-0.382568	
-0.38324	
-0.382507	
-0.382263	
-0.382446	
-0.38324	
-0.38385	
-0.38269	
-0.382446	
-0.381897	
-0.383911	
-0.383057	
-0.384033	
-0.382751	
-0.38269	
-0.382324	
-0.384644	
-0.383972	
-0.382568	
-0.38208	
-0.382263	
-0.383728	
-0.383362	
-0.383423	
-0.382202	
-0.383667	
-0.383789	
-0.38562	
-0.383972	
-0.383484	
-0.383606	
-0.385071	
-0.385071	
-0.385559	
-0.385803	
-0.384827	
-0.385254	
-0.385742	
-0.386902	
-0.385559	
-0.385193	
-0.384583	
-0.386292	
-0.385437	
-0.385315	
-0.384338	
-0.384827	
-0.383667	
-0.384583	
-0.384338	
-0.383301	
-0.38269	
-0.382751	
-0.383545	
-0.382751	
-0.382751	
-0.381348	
-0.382202	
-0.380798	
-0.381958	
-0.381226	
-0.380432	
-0.379272	
-0.379517	
-0.3797	
-0.379883	
-0.379639	
-0.379272	
-0.378967	
-0.378906	
-0.380005	
-0.379089	
-0.378113	
-0.377258	
-0.379089	
-0.377991	
-0.379028	
-0.377502	
-0.377808	
-0.377563	
-0.378723	
-0.379578	
-0.378296	
-0.378174	
-0.37738	
-0.379456	
-0.378906	
-0.379456	
-0.378662	
-0.379211	
-0.379578	
-0.382263	
-0.381897	
-0.381714	
-0.380554	
-0.381348	
-0.382507	
-0.382568	
-0.382385	
-0.380737	
-0.381531	
-0.381714	
-0.382385	
-0.381348	
-0.381226	
-0.38092	
-0.381104	
-0.380981	
-0.38092	
-0.380188	
-0.380127	
-0.380127	
-0.381104	
-0.381042	
-0.379822	
-0.3797	
-0.37854	
-0.380432	
-0.379944	
-0.380676	
-0.3797	
-0.380371	
-0.37915	
-0.381531	
-0.380676	
-0.379639	
-0.379272	
-0.380188	
-0.381104	
-0.380798	
-0.38031	
-0.379822	
-0.380615	
-0.380798	
-0.381775	
-0.380249	
-0.380676	
-0.379089	
-0.380554	
-0.380127	
-0.381775	
-0.380493	
-0.379944	
-0.380371	
-0.380737	
-0.381592	
-0.380432	
-0.380859	
-0.378723	
-0.38092	
-0.380554	
-0.381348	
-0.380432	
-0.380676	
-0.380554	
-0.382019	
-0.381775	
-0.380859	
-0.380249	
-0.379517	
-0.380493	
-0.380005	
-0.380188	
-0.378113	
-0.379517	
-0.379944	
-0.381348	
-0.379578	
-0.380066	
-0.379639	
-0.380432	
-0.380249	
-0.380981	
-0.381042	
-0.381592	
-0.381226	
-0.38208	
-0.383789	
-0.382751	
-0.382446	
-0.381104	
-0.383911	
-0.383728	
-0.384216	
-0.383667	
-0.384216	
-0.383972	
-0.384399	
-0.385193	
-0.385071	
-0.384033	
-0.384399	
-0.386475	
-0.385559	
-0.386475	
-0.385559	
-0.386169	
-0.385376	
-0.387939	
-0.387329	
-0.38678	
-0.386658	
-0.386108	
-0.387329	
-0.387329	
-0.387024	
-0.387573	
-0.387634	
-0.387939	
-0.389587	
-0.387939	
-0.387939	
-0.387329	
-0.388245	
-0.388428	
-0.388489	
-0.387878	
-0.387695	
-0.388	
-0.387756	
-0.388367	
-0.386292	
-0.385864	
-0.384888	
-0.385559	
-0.384888	
-0.385193	
-0.384399	
-0.383972	
-0.383057	
-0.384888	
-0.385254	
-0.383728	
-0.384033	
-0.383911	
-0.385559	
-0.385132	
-0.384888	
-0.384155	
-0.384827	
-0.38501	
-0.386902	
-0.385681	
-0.385986	
-0.385437	
-0.386719	
-0.38678	
-0.386597	
-0.38623	
-0.386108	
-0.38623	
-0.386536	
-0.387756	
-0.38623	
-0.38623	
-0.384766	
-0.387512	
-0.386108	
-0.387085	
-0.385742	
-0.38623	
-0.385254	
-0.386536	
-0.387268	
-0.385925	
-0.385254	
-0.383789	
-0.386536	
-0.385864	
-0.38678	
-0.38501	
-0.385864	
-0.384644	
-0.387146	
-0.38623	
-0.38623	
-0.386108	
-0.386292	
-0.386719	
-0.386597	
-0.387085	
-0.38678	
-0.38623	
-0.386658	
-0.388123	
-0.386902	
-0.386047	
-0.384888	
-0.386902	
-0.386292	
-0.387024	
-0.386597	
-0.387329	
-0.387329	
-0.388855	
-0.389709	
-0.388367	
-0.388062	
-0.387085	
-0.388489	
-0.388428	
-0.388184	
-0.386841	
-0.387329	
-0.386902	
-0.388672	
-0.387634	
-0.38678	
-0.386414	
-0.385803	
-0.385986	
-0.38623	
-0.385986	
-0.386047	
-0.385376	
-0.386353	
-0.387329	
-0.385803	
-0.386047	
-0.384583	
-0.386597	
-0.385864	
-0.386658	
-0.385437	
-0.386047	
-0.385315	
-0.38562	
-0.38678	
-0.385193	
-0.385071	
-0.384399	
-0.386475	
-0.385315	
-0.386353	
-0.384766	
-0.385193	
-0.385132	
-0.386963	
-0.385803	
-0.384766	
-0.384216	
-0.38446	
-0.385437	
-0.384888	
-0.385132	
-0.384705	
-0.385803	
-0.385071	
-0.386719	
-0.385559	
-0.385864	
-0.384216	
-0.385803	
-0.385986	
-0.386047	
-0.38562	
-0.38562	
-0.385498	
-0.385376	
-0.386292	
-0.38446	
-0.384277	
-0.383545	
-0.384583	
-0.383789	
-0.383728	
-0.382813	
-0.38269	
-0.382629	
-0.383972	
-0.384399	
-0.383423	
-0.382629	
-0.381775	
-0.383667	
-0.382996	
-0.383606	
-0.382385	
-0.383484	
-0.383118	
-0.38562	
-0.385071	
-0.384338	
-0.383545	
-0.384521	
-0.385437	
-0.386292	
-0.386108	
-0.386169	
-0.386414	
-0.387268	
-0.388611	
-0.387207	
-0.387207	
-0.386292	
-0.38916	
-0.388306	
-0.38855	
-0.388062	
-0.389465	
-0.388916	
-0.390015	
-0.390564	
-0.389648	
-0.389954	
-0.388672	
-0.390869	
-0.39093	
-0.391663	
-0.389282	
-0.390625	
-0.390137	
-0.392029	
-0.391357	
-0.390808	
-0.390442	
-0.389893	
-0.391052	
-0.391296	
-0.390808	
-0.390137	
-0.390198	
-0.389038	
-0.390625	
-0.388611	
-0.388062	
-0.386414	
-0.386963	
-0.387512	
-0.386902	
-0.387024	
-0.387207	
-0.387085	
-0.387207	
-0.388123	
-0.387268	
-0.387085	
-0.385681	
-0.387817	
-0.387634	
-0.38855	
-0.38739	
-0.387878	
-0.388428	
-0.389404	
-0.389954	
-0.388916	
-0.388489	
-0.387329	
-0.389404	
-0.388977	
-0.388672	
-0.388611	
-0.38855	
-0.387573	
-0.389954	
-0.389282	
-0.389038	
-0.388062	
-0.387695	
-0.388306	
-0.388611	
-0.387939	
-0.388306	
-0.388367	
-0.388428	
-0.388855	
-0.388184	
-0.387817	
-0.387451	
-0.389099	
-0.388123	
	
