E:\DOCUMENTS AND SETTINGS\JPOTAS\MEUS DOCUMENTOS\UFRJ\RSCI-BM 12 WK SERIES\070727-RSCI-BM-05\RSCI-BM-05-REMG\070727-RSCI-BM-05-REMG-0008.ACQ
0.025000 msec/sample
1 channel
Analog input
Volts
CH1	
2000	
-0.381836	
-0.381836	
-0.381958	
-0.38269	
-0.38269	
-0.38385	
-0.382996	
-0.383667	
-0.382446	
-0.383484	
-0.383545	
-0.383179	
-0.383606	
-0.382019	
-0.383667	
-0.383606	
-0.383667	
-0.383118	
-0.383545	
-0.383179	
-0.383667	
-0.384033	
-0.383423	
-0.384155	
-0.382751	
-0.383728	
-0.383301	
-0.384583	
-0.383972	
-0.383728	
-0.383911	
-0.384338	
-0.38446	
-0.384216	
-0.384338	
-0.384338	
-0.385071	
-0.38562	
-0.384094	
-0.384094	
-0.383301	
-0.384033	
-0.384827	
-0.382874	
-0.382385	
-0.382751	
-0.38324	
-0.383118	
-0.383301	
-0.383118	
-0.382935	
-0.38208	
-0.383362	
-0.384033	
-0.383728	
-0.385132	
-0.383606	
-0.384583	
-0.384094	
-0.386169	
-0.385803	
-0.385132	
-0.385986	
-0.386658	
-0.386353	
-0.385864	
-0.386475	
-0.386353	
-0.386414	
-0.387512	
-0.386536	
-0.386597	
-0.387268	
-0.388123	
-0.387756	
-0.387268	
-0.387268	
-0.387146	
-0.387085	
-0.386963	
-0.388123	
-0.386841	
-0.385986	
-0.384888	
-0.386353	
-0.38739	
-0.385925	
-0.385559	
-0.385071	
-0.386292	
-0.385925	
-0.386963	
-0.385559	
-0.385376	
-0.385925	
-0.385864	
-0.385498	
-0.385437	
-0.38562	
-0.384766	
-0.385315	
-0.384583	
-0.384949	
-0.384338	
-0.384705	
-0.384705	
-0.384521	
-0.384338	
-0.384216	
-0.383972	
-0.383667	
-0.384155	
-0.384888	
-0.383606	
-0.38324	
-0.381409	
-0.384155	
-0.384094	
-0.382507	
-0.382141	
-0.382141	
-0.381592	
-0.381226	
-0.381531	
-0.380615	
-0.379883	
-0.379761	
-0.379395	
-0.379822	
-0.379089	
-0.379517	
-0.378052	
-0.37854	
-0.379333	
-0.379944	
-0.379272	
-0.378723	
-0.378479	
-0.379456	
-0.379211	
-0.378967	
-0.379395	
-0.379761	
-0.379517	
-0.380554	
-0.380066	
-0.380127	
-0.379089	
-0.381042	
-0.381653	
-0.380371	
-0.380127	
-0.380371	
-0.381042	
-0.380371	
-0.381958	
-0.381348	
-0.381836	
-0.38269	
-0.383179	
-0.384521	
-0.384399	
-0.385071	
-0.384277	
-0.385986	
-0.385681	
-0.386536	
-0.38623	
-0.386292	
-0.385559	
-0.385986	
-0.386414	
-0.386353	
-0.387024	
-0.386353	
-0.386841	
-0.386719	
-0.386719	
-0.38623	
-0.386353	
-0.386963	
-0.386658	
-0.385864	
-0.385315	
-0.385071	
-0.384644	
-0.384766	
-0.384521	
-0.384338	
-0.384033	
-0.383728	
-0.383728	
-0.383301	
-0.383423	
-0.383362	
-0.382324	
-0.383362	
-0.377014	
-0.375305	
-0.374573	
-0.374817	
-0.374573	
-0.375671	
-0.383484	
-0.384277	
-0.384949	
-0.38385	
-0.384644	
-0.384094	
-0.383911	
-0.384094	
-0.384033	
-0.384827	
-0.384827	
-0.384521	
-0.384583	
-0.384644	
-0.384155	
-0.384338	
-0.386169	
-0.385071	
-0.384949	
-0.383179	
-0.385681	
-0.385803	
-0.385437	
-0.385254	
-0.385132	
-0.385254	
-0.385254	
-0.386475	
-0.385559	
-0.385376	
-0.385132	
-0.385803	
-0.385681	
-0.385254	
-0.385864	
-0.385193	
-0.384888	
-0.384827	
-0.385681	
-0.385742	
-0.385864	
-0.384766	
-0.385864	
-0.385986	
-0.38562	
-0.385559	
-0.386047	
-0.385437	
-0.386169	
-0.385925	
-0.385437	
-0.384949	
-0.386841	
-0.38623	
-0.384766	
-0.383789	
-0.38385	
-0.383911	
-0.383728	
-0.384155	
-0.383911	
-0.383301	
-0.382263	
-0.382996	
-0.383362	
-0.382324	
-0.381897	
-0.381348	
-0.382324	
-0.381348	
-0.382141	
-0.380859	
-0.38092	
-0.380615	
-0.381531	
-0.381348	
-0.381836	
-0.381714	
-0.381714	
-0.381836	
-0.382202	
-0.382446	
-0.382507	
-0.38208	
-0.383972	
-0.384155	
-0.38324	
-0.383179	
-0.383911	
-0.384521	
-0.385437	
-0.387329	
-0.387817	
-0.388916	
-0.390015	
-0.391663	
-0.3927	
-0.393188	
-0.395752	
-0.395874	
-0.397644	
-0.39917	
-0.400208	
-0.401733	
-0.402832	
-0.405396	
-0.407532	
-0.408447	
-0.410278	
-0.411682	
-0.413757	
-0.414978	
-0.417175	
-0.417664	
-0.419006	
-0.420654	
-0.423157	
-0.424194	
-0.425903	
-0.427429	
-0.428101	
-0.429688	
-0.43219	
-0.433655	
-0.435791	
-0.437317	
-0.440796	
-0.441772	
-0.443481	
-0.44574	
-0.447693	
-0.449585	
-0.452515	
-0.453674	
-0.456116	
-0.458313	
-0.462708	
-0.464233	
-0.46637	
-0.468689	
-0.470642	
-0.472351	
-0.474365	
-0.474304	
-0.47583	
-0.476624	
-0.478455	
-0.478821	
-0.47876	
-0.477844	
-0.479126	
-0.479919	
-0.479736	
-0.48053	
-0.480042	
-0.47937	
-0.478088	
-0.477966	
-0.476379	
-0.47467	
-0.474915	
-0.473633	
-0.472961	
-0.472534	
-0.47168	
-0.471191	
-0.470825	
-0.471313	
-0.471313	
-0.470337	
-0.469543	
-0.469604	
-0.469788	
-0.469299	
-0.469543	
-0.467346	
-0.466797	
-0.464905	
-0.464844	
-0.463745	
-0.462646	
-0.462219	
-0.460449	
-0.459656	
-0.458496	
-0.457825	
-0.455994	
-0.454285	
-0.452576	
-0.451843	
-0.44989	
-0.447937	
-0.446472	
-0.444885	
-0.437744	
-0.433899	
-0.432007	
-0.430603	
-0.428162	
-0.427917	
-0.433105	
-0.431763	
-0.429321	
-0.427307	
-0.425659	
-0.424011	
-0.422607	
-0.419617	
-0.417542	
-0.415222	
-0.413269	
-0.411438	
-0.407776	
-0.405518	
-0.401123	
-0.398621	
-0.395691	
-0.393066	
-0.389343	
-0.386047	
-0.382507	
-0.381409	
-0.378601	
-0.376099	
-0.373962	
-0.370789	
-0.369324	
-0.367126	
-0.36615	
-0.363831	
-0.361633	
-0.359802	
-0.359314	
-0.35675	
-0.354736	
-0.353638	
-0.352783	
-0.35144	
-0.351379	
-0.350647	
-0.350891	
-0.349731	
-0.351563	
-0.3526	
-0.352417	
-0.35376	
-0.354065	
-0.355286	
-0.355652	
-0.358337	
-0.359314	
-0.360046	
-0.360779	
-0.362793	
-0.363464	
-0.364685	
-0.365173	
-0.366638	
-0.36731	
-0.368774	
-0.368896	
-0.370056	
-0.369507	
-0.371155	
-0.372681	
-0.372375	
-0.373596	
-0.372925	
-0.374268	
-0.374084	
-0.374695	
-0.374512	
-0.374878	
-0.375305	
-0.375793	
-0.375244	
-0.375122	
-0.375793	
-0.376465	
-0.375549	
-0.377136	
-0.377075	
-0.377502	
-0.378235	
-0.37793	
-0.378235	
-0.378296	
-0.378418	
-0.378845	
-0.37854	
-0.379883	
-0.379333	
-0.380127	
-0.380188	
-0.381287	
-0.381836	
-0.382813	
-0.383545	
-0.38385	
-0.384644	
-0.385803	
-0.385742	
-0.386353	
-0.387146	
-0.388489	
-0.389832	
-0.390747	
-0.391663	
-0.392029	
-0.393494	
-0.395935	
-0.395813	
-0.39679	
-0.397095	
-0.400085	
-0.401855	
-0.402954	
-0.403687	
-0.405579	
-0.407227	
-0.408142	
-0.412537	
-0.413513	
-0.414734	
-0.41626	
-0.419983	
-0.421875	
-0.423462	
-0.425415	
-0.426697	
-0.43042	
-0.433777	
-0.435181	
-0.436462	
-0.438599	
-0.441711	
-0.444336	
-0.445679	
-0.445862	
-0.448059	
-0.449341	
-0.452026	
-0.453186	
-0.454956	
-0.455872	
-0.458252	
-0.459106	
-0.460876	
-0.460205	
-0.460754	
-0.460876	
-0.460938	
-0.461609	
-0.459656	
-0.459045	
-0.456848	
-0.456909	
-0.456604	
-0.454651	
-0.453186	
-0.452454	
-0.451843	
-0.453796	
-0.452271	
-0.451416	
-0.450012	
-0.450317	
-0.450073	
-0.44928	
-0.448364	
-0.447388	
-0.446838	
-0.447388	
-0.446655	
-0.444885	
-0.443848	
-0.443909	
-0.443115	
-0.442688	
-0.441772	
-0.441223	
-0.440552	
-0.439697	
-0.440063	
-0.439209	
-0.438293	
-0.437439	
-0.4375	
-0.437256	
-0.436157	
-0.435364	
-0.434021	
-0.433411	
-0.433594	
-0.431396	
-0.430237	
-0.427368	
-0.426941	
-0.425415	
-0.423279	
-0.420715	
-0.418396	
-0.416748	
-0.413513	
-0.412598	
-0.407776	
-0.404663	
-0.399963	
-0.397644	
-0.394958	
-0.391113	
-0.388306	
-0.383423	
-0.381348	
-0.377441	
-0.375977	
-0.372498	
-0.369995	
-0.367371	
-0.365723	
-0.363525	
-0.361755	
-0.360046	
-0.358337	
-0.356934	
-0.356079	
-0.353699	
-0.352417	
-0.35144	
-0.352173	
-0.350952	
-0.349854	
-0.349548	
-0.349548	
-0.350159	
-0.349854	
-0.351257	
-0.350098	
-0.350098	
-0.349854	
-0.34967	
-0.349854	
-0.349915	
-0.350098	
-0.350098	
-0.350525	
-0.352173	
-0.352417	
-0.353088	
-0.353333	
-0.355042	
-0.356567	
-0.357117	
-0.356506	
-0.357727	
-0.359497	
-0.359924	
-0.36145	
-0.360413	
-0.361267	
-0.359924	
-0.362122	
-0.362	
-0.361755	
-0.362122	
-0.362366	
-0.362854	
-0.364014	
-0.362915	
-0.363098	
-0.363647	
-0.363586	
-0.363037	
-0.363831	
-0.363464	
-0.364075	
-0.363281	
-0.365112	
-0.364258	
-0.364136	
-0.363892	
-0.365051	
-0.364746	
-0.365173	
-0.364502	
-0.364929	
-0.365234	
-0.36676	
-0.366455	
-0.366821	
-0.366272	
-0.367432	
-0.367615	
-0.367737	
-0.36792	
-0.36853	
-0.368835	
-0.369873	
-0.369324	
-0.369568	
-0.370056	
-0.370605	
-0.37146	
-0.370239	
-0.369507	
-0.369385	
-0.36969	
-0.368896	
-0.370728	
-0.369629	
-0.369629	
-0.3703	
-0.370483	
-0.370544	
-0.370789	
-0.370056	
-0.370056	
-0.370361	
-0.372559	
-0.371094	
-0.372131	
-0.371277	
-0.372742	
-0.374146	
-0.37439	
-0.373962	
-0.373047	
-0.373657	
-0.375	
-0.375061	
-0.375305	
-0.375	
-0.375	
-0.376526	
-0.376526	
-0.375732	
-0.375305	
-0.376404	
-0.37738	
-0.377686	
-0.37738	
-0.376953	
-0.377258	
-0.378418	
-0.377563	
-0.377625	
-0.37677	
-0.377319	
-0.376404	
-0.377747	
-0.377625	
-0.376953	
-0.377808	
-0.377441	
-0.376953	
-0.377625	
-0.377502	
-0.377869	
-0.377808	
-0.378784	
-0.377869	
-0.377502	
-0.377014	
-0.378113	
-0.378601	
-0.377197	
-0.377869	
-0.377014	
-0.377625	
-0.377136	
-0.378113	
-0.37677	
-0.377197	
-0.376465	
-0.37738	
-0.377441	
-0.377502	
-0.377747	
-0.376465	
-0.376831	
-0.377197	
-0.378052	
-0.376953	
-0.375916	
-0.375671	
-0.375916	
-0.375244	
-0.374695	
-0.375	
-0.374573	
-0.374268	
-0.375488	
-0.374512	
-0.374023	
-0.374207	
-0.374268	
-0.375061	
-0.374207	
-0.373962	
-0.374023	
-0.374817	
-0.374207	
-0.376038	
-0.375305	
-0.375732	
-0.374146	
-0.375854	
-0.375671	
-0.376099	
-0.375977	
-0.375305	
-0.376587	
-0.376953	
-0.377502	
-0.376953	
-0.376709	
-0.376709	
-0.377991	
-0.378052	
-0.378174	
-0.378113	
-0.378845	
-0.3797	
-0.381287	
-0.380737	
-0.38092	
-0.380798	
-0.382263	
-0.382935	
-0.382629	
-0.382446	
-0.382141	
-0.383118	
-0.38208	
-0.384277	
-0.38324	
-0.38269	
-0.381775	
-0.383057	
-0.383545	
-0.383118	
-0.382202	
-0.381287	
-0.381958	
-0.382324	
-0.382751	
-0.381836	
-0.381226	
-0.38092	
-0.380249	
-0.379456	
-0.380005	
-0.379883	
-0.379028	
-0.378418	
-0.379639	
-0.378906	
-0.378784	
-0.378357	
-0.378296	
-0.379028	
-0.379089	
-0.378723	
-0.378967	
-0.379089	
-0.379639	
-0.380066	
-0.37915	
-0.379578	
-0.378174	
-0.380615	
-0.380798	
-0.380066	
-0.379089	
-0.379333	
-0.379639	
-0.381226	
-0.381348	
-0.380615	
-0.380432	
-0.380432	
-0.381653	
-0.381104	
-0.381348	
-0.38092	
-0.381836	
-0.381714	
-0.382935	
-0.383118	
-0.382507	
-0.382324	
-0.382324	
-0.384216	
-0.382202	
-0.381897	
-0.380981	
-0.382019	
-0.381836	
-0.382996	
-0.381531	
-0.381348	
-0.379822	
-0.382385	
-0.381836	
-0.381348	
-0.380005	
-0.379822	
-0.381592	
-0.381836	
-0.382202	
-0.38147	
-0.381104	
-0.381653	
-0.38208	
-0.381287	
-0.381226	
-0.380615	
-0.380737	
-0.381775	
-0.381287	
-0.38092	
-0.379822	
-0.379089	
-0.37793	
-0.380005	
-0.378723	
-0.377808	
-0.377197	
-0.377869	
-0.378174	
-0.378296	
-0.377686	
-0.376709	
-0.376038	
-0.376831	
-0.376953	
-0.375732	
-0.375061	
-0.374634	
-0.376282	
-0.376099	
-0.375916	
-0.376221	
-0.376038	
-0.37616	
-0.376709	
-0.376099	
-0.37616	
-0.375427	
-0.375916	
-0.376648	
-0.376953	
-0.376892	
-0.376709	
-0.376099	
-0.376343	
-0.377869	
-0.377075	
-0.377136	
-0.377258	
-0.378174	
-0.378479	
-0.3797	
-0.379089	
-0.379333	
-0.379333	
-0.380859	
-0.381226	
-0.380249	
-0.380432	
-0.379761	
-0.381897	
-0.382568	
-0.384644	
-0.384583	
-0.384949	
-0.384399	
-0.38678	
-0.386047	
-0.386108	
-0.385254	
-0.385986	
-0.385559	
-0.385803	
-0.385742	
-0.385437	
-0.38501	
-0.38446	
-0.386047	
-0.384277	
-0.383972	
-0.382874	
-0.383484	
-0.383484	
-0.383789	
-0.383789	
-0.383057	
-0.382568	
-0.382263	
-0.38385	
-0.382446	
-0.382141	
-0.381042	
-0.38208	
-0.382629	
-0.383301	
-0.382141	
-0.381958	
-0.380859	
-0.383179	
-0.381836	
-0.381348	
-0.379944	
-0.380676	
-0.381592	
-0.381836	
-0.382385	
-0.381226	
-0.380737	
-0.380127	
-0.382202	
-0.380676	
-0.380493	
-0.378784	
-0.38031	
-0.380249	
-0.379944	
-0.380554	
-0.379761	
-0.379395	
-0.379333	
-0.38147	
-0.379395	
-0.379395	
-0.379333	
-0.379944	
-0.379761	
-0.381775	
-0.380432	
-0.380371	
-0.380371	
-0.382141	
-0.381409	
-0.380859	
-0.380005	
-0.379822	
-0.380188	
-0.380432	
-0.381531	
-0.380005	
-0.380249	
-0.379272	
-0.38092	
-0.379761	
-0.37854	
-0.378235	
-0.378601	
-0.378906	
-0.378906	
-0.37915	
-0.378174	
-0.378174	
-0.377197	
-0.378235	
-0.37793	
-0.377197	
-0.377502	
-0.377625	
-0.377747	
-0.377747	
-0.377441	
-0.377014	
-0.377502	
-0.377502	
-0.378296	
-0.376892	
-0.377258	
-0.377686	
-0.378296	
-0.378357	
-0.380066	
-0.378601	
-0.378601	
-0.37854	
-0.380066	
-0.37915	
-0.37854	
-0.378235	
-0.377747	
-0.379089	
-0.379211	
-0.379883	
-0.37915	
-0.379517	
-0.377869	
-0.378967	
-0.379211	
-0.379578	
-0.37915	
-0.379333	
-0.379761	
-0.380371	
-0.380249	
-0.380432	
-0.380554	
-0.38031	
-0.381042	
-0.379395	
-0.380554	
-0.380432	
-0.381104	
-0.381836	
-0.382629	
-0.381653	
-0.382446	
-0.381958	
-0.383911	
-0.384094	
-0.384338	
-0.383911	
-0.383728	
-0.38501	
-0.385315	
-0.386475	
-0.385376	
-0.385864	
-0.384827	
-0.387024	
-0.386292	
-0.386597	
-0.385376	
-0.386475	
-0.38623	
-0.386169	
-0.387451	
-0.386475	
-0.38678	
-0.385193	
-0.387085	
-0.385071	
-0.385315	
-0.385742	
-0.385376	
-0.384949	
-0.385864	
-0.385498	
-0.385742	
-0.384949	
-0.386292	
-0.385071	
-0.384521	
-0.383972	
-0.383789	
-0.384277	
-0.384094	
-0.385315	
-0.38269	
-0.382629	
-0.381836	
-0.381836	
-0.380737	
-0.380676	
-0.379761	
-0.379944	
-0.380005	
-0.380005	
-0.38092	
-0.379456	
-0.380615	
-0.378235	
-0.379761	
-0.378723	
-0.378967	
-0.379822	
-0.379639	
-0.380371	
-0.380432	
-0.380493	
-0.380615	
-0.38031	
-0.381348	
-0.382324	
-0.380798	
-0.381409	
-0.381348	
-0.381897	
-0.382019	
-0.383545	
-0.382385	
-0.382507	
-0.382141	
-0.38269	
-0.38269	
-0.382141	
-0.381592	
-0.381104	
-0.382263	
-0.383057	
-0.383972	
-0.382996	
-0.38324	
-0.381042	
-0.382324	
-0.382019	
-0.381958	
-0.381897	
-0.382019	
-0.382019	
-0.382568	
-0.382446	
-0.382141	
-0.382385	
-0.381958	
-0.38324	
-0.381653	
-0.381653	
-0.381653	
-0.38208	
-0.381897	
-0.382019	
-0.382385	
-0.381958	
-0.380432	
-0.381348	
-0.381226	
-0.380188	
-0.379089	
-0.379639	
-0.38031	
-0.380554	
-0.382263	
-0.380615	
-0.381165	
-0.3797	
-0.381104	
-0.380493	
-0.380249	
-0.380493	
-0.380981	
-0.380188	
-0.380737	
-0.381042	
-0.380798	
-0.381042	
-0.379578	
-0.381287	
-0.379639	
-0.380676	
-0.380371	
-0.380554	
-0.381226	
-0.381897	
-0.381775	
-0.381897	
-0.382751	
-0.38324	
-0.383667	
-0.38208	
-0.383484	
-0.382751	
-0.384033	
-0.383972	
-0.385925	
-0.384216	
-0.384399	
-0.383972	
-0.384888	
-0.385132	
-0.385376	
-0.384949	
-0.385254	
-0.385986	
-0.385864	
-0.386719	
-0.386047	
-0.386169	
-0.384644	
-0.385681	
-0.385315	
-0.385254	
-0.385437	
-0.385315	
-0.384827	
-0.38623	
-0.385315	
-0.385254	
-0.385254	
-0.385986	
-0.385742	
-0.383972	
-0.384888	
-0.384338	
-0.384644	
-0.384644	
-0.385864	
-0.383972	
-0.384155	
-0.383057	
-0.384338	
-0.383118	
-0.382935	
-0.381592	
-0.38269	
-0.382019	
-0.381714	
-0.381958	
-0.380249	
-0.380127	
-0.377014	
-0.378906	
-0.378357	
-0.378662	
-0.377686	
-0.378113	
-0.378296	
-0.379456	
-0.378235	
-0.378052	
-0.378479	
-0.379456	
-0.379639	
-0.377991	
-0.37915	
-0.379028	
-0.380493	
-0.380127	
-0.381042	
-0.379822	
-0.380859	
-0.379211	
-0.380981	
-0.380859	
-0.380981	
-0.379761	
-0.380676	
-0.381348	
-0.381592	
-0.382141	
-0.381104	
-0.38208	
-0.379761	
-0.382385	
-0.381226	
-0.381348	
-0.380859	
-0.381836	
-0.381348	
-0.38147	
-0.381836	
-0.381287	
-0.382141	
-0.381897	
-0.382629	
-0.380859	
-0.38147	
-0.381348	
-0.382324	
-0.38269	
-0.383301	
-0.382813	
-0.382507	
-0.382202	
-0.383423	
-0.382507	
-0.382446	
-0.382324	
-0.382507	
-0.382996	
-0.383118	
-0.383362	
-0.382507	
-0.382324	
-0.381592	
-0.382446	
-0.381104	
-0.381226	
-0.381165	
-0.38147	
-0.38147	
-0.381897	
-0.382263	
-0.381592	
-0.382263	
-0.381714	
-0.382324	
-0.381592	
-0.382385	
-0.382263	
-0.383423	
-0.383423	
-0.38501	
-0.384827	
-0.384827	
-0.384766	
-0.384399	
-0.384338	
-0.383484	
-0.384644	
-0.384705	
-0.385498	
-0.385803	
-0.386414	
-0.385437	
-0.385864	
-0.38446	
-0.386353	
-0.386047	
-0.385864	
-0.384766	
-0.385437	
-0.385315	
-0.385986	
-0.385681	
-0.38501	
-0.385498	
-0.384705	
-0.384888	
-0.384644	
-0.384216	
-0.384094	
-0.384583	
-0.384583	
-0.385559	
-0.38501	
-0.384521	
-0.384583	
-0.384155	
-0.384888	
-0.382996	
-0.383789	
-0.383301	
-0.384583	
-0.383972	
-0.383911	
-0.384033	
-0.383057	
-0.382446	
-0.383362	
-0.383057	
-0.382813	
-0.381958	
-0.382874	
-0.383057	
-0.382996	
-0.382996	
-0.382629	
-0.382935	
-0.382507	
-0.382263	
-0.381287	
-0.380676	
-0.379578	
-0.380005	
-0.379883	
-0.380249	
-0.379883	
-0.379272	
-0.379517	
-0.378479	
-0.378662	
-0.376831	
-0.377808	
-0.37793	
-0.377563	
-0.378113	
-0.37915	
-0.378235	
-0.378052	
-0.377258	
-0.378845	
-0.378784	
-0.378113	
-0.378357	
-0.37738	
-0.378967	
-0.379944	
-0.3797	
-0.379272	
-0.379944	
-0.378662	
-0.380188	
-0.379517	
-0.380066	
-0.379333	
-0.380371	
-0.380798	
-0.381287	
-0.381958	
-0.382141	
-0.382935	
-0.382751	
-0.384338	
-0.383545	
-0.384033	
-0.383911	
-0.384583	
-0.385254	
-0.385986	
-0.386108	
-0.386292	
-0.385437	
-0.385254	
-0.386841	
-0.385376	
-0.385864	
-0.38501	
-0.386047	
-0.386292	
-0.386353	
-0.385681	
-0.385986	
-0.385254	
-0.38623	
-0.38501	
-0.384827	
-0.383728	
-0.383606	
-0.384216	
-0.384216	
-0.383728	
-0.382874	
-0.384033	
-0.382935	
-0.38385	
-0.382874	
-0.383301	
-0.38147	
-0.383118	
-0.383484	
-0.382385	
-0.38385	
-0.381775	
-0.383484	
-0.383118	
-0.384338	
-0.382141	
-0.382874	
-0.382324	
-0.383972	
-0.383667	
-0.383423	
-0.382996	
-0.383545	
-0.383545	
-0.38385	
-0.38385	
-0.383667	
-0.383423	
-0.38324	
-0.384033	
-0.384399	
-0.384094	
-0.383911	
-0.385193	
-0.384644	
-0.385315	
-0.384277	
-0.385193	
-0.384216	
-0.385742	
-0.384521	
-0.385681	
-0.384766	
-0.384949	
-0.385132	
-0.384583	
-0.385193	
-0.38385	
-0.384155	
-0.384216	
-0.384705	
-0.384827	
-0.385193	
-0.385437	
-0.385437	
-0.385193	
-0.384521	
-0.385864	
-0.384155	
-0.38501	
-0.384644	
-0.384705	
-0.385437	
-0.38501	
-0.384827	
-0.385254	
-0.384399	
-0.38501	
-0.383972	
-0.383667	
-0.381958	
-0.382568	
-0.382385	
-0.382141	
-0.381531	
-0.381714	
-0.382935	
-0.381409	
-0.381592	
-0.38092	
-0.380859	
-0.380554	
-0.379944	
-0.380554	
-0.380066	
-0.380676	
-0.380432	
-0.380554	
-0.380005	
-0.380981	
-0.379944	
-0.380188	
-0.380493	
-0.380798	
-0.38092	
-0.381287	
-0.380798	
-0.381653	
-0.38092	
-0.38208	
-0.38147	
-0.381226	
-0.380249	
-0.380859	
-0.381653	
-0.381531	
-0.381165	
-0.382507	
-0.382996	
-0.382141	
-0.382996	
-0.382751	
-0.383057	
-0.382751	
-0.383728	
-0.384033	
-0.384216	
-0.384644	
-0.386047	
-0.386719	
-0.386047	
-0.387939	
-0.386658	
-0.387817	
-0.388733	
-0.389221	
-0.389038	
-0.389221	
-0.388733	
-0.388977	
-0.388184	
-0.389526	
-0.389038	
-0.387756	
-0.387207	
-0.387512	
-0.386414	
-0.386414	
-0.386292	
-0.386963	
-0.387268	
-0.386108	
-0.386902	
-0.385315	
-0.385132	
-0.384399	
-0.385071	
-0.385254	
-0.385437	
-0.386353	
-0.385193	
-0.385559	
-0.385193	
-0.385254	
-0.383423	
-0.384766	
-0.386108	
-0.38501	
-0.384583	
-0.384583	
-0.384583	
-0.384888	
-0.384521	
-0.384583	
-0.385132	
-0.384583	
-0.384399	
-0.385193	
-0.384705	
-0.384766	
-0.384155	
-0.384644	
-0.385254	
-0.383911	
-0.384888	
-0.384094	
-0.38446	
-0.383728	
-0.383667	
-0.384705	
-0.384949	
-0.38562	
-0.384155	
-0.385132	
-0.384399	
-0.38562	
-0.384216	
-0.385437	
-0.385254	
-0.385132	
-0.385803	
-0.385315	
-0.385803	
-0.385254	
-0.385437	
-0.384644	
-0.386108	
-0.385193	
-0.385315	
-0.385132	
-0.384216	
-0.384094	
-0.383667	
-0.383789	
-0.383789	
-0.383423	
-0.383972	
-0.382874	
-0.381897	
-0.381287	
-0.381409	
-0.382507	
-0.38208	
-0.381104	
-0.381714	
-0.38208	
-0.381348	
-0.381592	
-0.380615	
-0.380981	
-0.380554	
-0.381409	
-0.381104	
-0.381592	
-0.381897	
-0.382507	
-0.382019	
-0.381348	
-0.383301	
-0.382202	
-0.38269	
-0.38269	
-0.382385	
-0.383301	
-0.383179	
-0.382751	
-0.383362	
-0.382507	
-0.383423	
-0.383057	
-0.38269	
-0.382446	
-0.383301	
-0.383423	
-0.383423	
-0.38385	
-0.384094	
-0.38446	
-0.384277	
-0.384277	
-0.384033	
-0.384705	
-0.384094	
-0.385376	
-0.384338	
-0.384888	
-0.38562	
-0.38562	
-0.386475	
-0.384766	
-0.386902	
-0.385376	
-0.386597	
-0.387695	
-0.388977	
-0.388245	
-0.388672	
-0.387512	
-0.388611	
-0.389038	
-0.39032	
-0.390137	
-0.389771	
-0.389771	
-0.389404	
-0.390137	
-0.389832	
-0.390564	
-0.390015	
-0.390442	
-0.389893	
-0.390381	
-0.389893	
-0.389954	
-0.38855	
-0.389771	
-0.389832	
-0.389404	
-0.389893	
-0.388611	
-0.389343	
-0.38916	
-0.389648	
-0.388306	
-0.388428	
-0.388306	
-0.38916	
-0.388245	
-0.387634	
-0.387024	
-0.387878	
-0.388428	
-0.386292	
-0.386841	
-0.384705	
-0.385132	
-0.384766	
-0.38446	
-0.383972	
-0.384033	
-0.383118	
-0.382996	
-0.383057	
-0.383667	
-0.383301	
-0.38269	
-0.381531	
-0.38208	
-0.382874	
-0.383118	
-0.383972	
-0.383118	
-0.383728	
-0.383057	
-0.384094	
-0.383972	
-0.384338	
-0.384216	
-0.385437	
-0.385254	
-0.385803	
-0.385193	
-0.386292	
-0.386902	
-0.385986	
-0.386353	
-0.385193	
-0.385925	
-0.386719	
-0.386414	
-0.385864	
-0.386902	
-0.38623	
-0.386475	
-0.386597	
-0.386841	
-0.386963	
-0.385315	
-0.385193	
-0.386536	
-0.386475	
-0.385925	
-0.386292	
-0.386047	
-0.386597	
-0.386353	
-0.385925	
-0.385925	
-0.385986	
-0.386169	
-0.386658	
-0.386597	
-0.386292	
-0.386292	
-0.386047	
-0.387512	
-0.385498	
-0.386047	
-0.384827	
-0.385193	
-0.384766	
-0.384888	
-0.385132	
-0.384827	
-0.384766	
-0.384766	
-0.385559	
-0.385803	
-0.386047	
-0.384155	
-0.384277	
-0.384583	
-0.38501	
-0.385071	
-0.385193	
-0.384827	
-0.385315	
-0.38501	
-0.38446	
-0.38501	
-0.384766	
-0.384705	
-0.38501	
-0.384644	
-0.384949	
-0.385254	
-0.384888	
-0.385681	
-0.38562	
-0.386597	
-0.385986	
-0.386169	
-0.387024	
-0.387756	
-0.387573	
-0.388184	
-0.387085	
-0.388794	
-0.388977	
-0.387878	
-0.389343	
-0.387634	
-0.388123	
-0.389282	
-0.390076	
-0.389832	
-0.390381	
-0.390198	
-0.390686	
-0.390686	
-0.390381	
-0.390015	
-0.389221	
-0.389709	
-0.390015	
-0.389709	
-0.389893	
-0.390564	
-0.389709	
-0.389893	
-0.389343	
-0.389771	
-0.389343	
-0.388977	
-0.389587	
-0.390503	
-0.389587	
-0.389221	
-0.388916	
-0.389099	
-0.389648	
-0.388855	
-0.389221	
-0.387207	
-0.386475	
-0.387512	
-0.387024	
-0.386719	
-0.387024	
-0.386719	
-0.38623	
-0.386108	
-0.385071	
-0.385254	
-0.383484	
-0.383606	
-0.382629	
-0.382935	
-0.382568	
-0.382813	
-0.382813	
-0.383301	
-0.383301	
-0.38269	
-0.382385	
-0.382263	
-0.383667	
-0.384583	
-0.383728	
-0.384216	
-0.384216	
-0.384277	
-0.385803	
-0.384521	
-0.38562	
-0.384155	
-0.38562	
	
