E:\DOCUMENTS AND SETTINGS\JPOTAS\MEUS DOCUMENTOS\UFRJ\RSCI-BM 12 WK SERIES\070727-RSCI-BM-05\RSCI-BM-05-REMG\070727-RSCI-BM-05-REMG-0003.ACQ
0.025000 msec/sample
1 channel
Analog input
Volts
CH1	
2000	
-0.386475	
-0.386414	
-0.387146	
-0.38501	
-0.384644	
-0.385193	
-0.385742	
-0.386475	
-0.385437	
-0.385742	
-0.385071	
-0.385986	
-0.385559	
-0.386902	
-0.384216	
-0.385315	
-0.384155	
-0.385193	
-0.385864	
-0.385681	
-0.385437	
-0.384705	
-0.386169	
-0.385925	
-0.385925	
-0.385071	
-0.385376	
-0.38446	
-0.385864	
-0.386108	
-0.38623	
-0.385864	
-0.386292	
-0.387451	
-0.386719	
-0.386414	
-0.386108	
-0.386108	
-0.386047	
-0.387329	
-0.386047	
-0.385437	
-0.384583	
-0.386597	
-0.385864	
-0.385681	
-0.383972	
-0.383606	
-0.383484	
-0.384033	
-0.384766	
-0.383545	
-0.383423	
-0.382629	
-0.384521	
-0.383789	
-0.384644	
-0.38269	
-0.383728	
-0.382141	
-0.384705	
-0.385498	
-0.385376	
-0.386475	
-0.387146	
-0.388062	
-0.387329	
-0.387451	
-0.387817	
-0.387756	
-0.387878	
-0.388916	
-0.388062	
-0.388306	
-0.388	
-0.388611	
-0.388245	
-0.388123	
-0.386536	
-0.386169	
-0.386047	
-0.386658	
-0.386597	
-0.386108	
-0.386353	
-0.385437	
-0.386597	
-0.386475	
-0.387878	
-0.385559	
-0.38623	
-0.384888	
-0.38678	
-0.386902	
-0.386841	
-0.387024	
-0.387207	
-0.387695	
-0.387573	
-0.387146	
-0.387024	
-0.386536	
-0.386353	
-0.387146	
-0.386414	
-0.386047	
-0.385681	
-0.386475	
-0.385986	
-0.385681	
-0.384888	
-0.384033	
-0.385437	
-0.385376	
-0.38623	
-0.385254	
-0.385437	
-0.384949	
-0.386841	
-0.386108	
-0.387817	
-0.385193	
-0.386353	
-0.386108	
-0.387329	
-0.387634	
-0.387756	
-0.387634	
-0.387573	
-0.388672	
-0.388611	
-0.388916	
-0.388245	
-0.388245	
-0.387146	
-0.388977	
-0.38916	
-0.388611	
-0.388672	
-0.389099	
-0.389099	
-0.388428	
-0.387451	
-0.386292	
-0.386902	
-0.387451	
-0.387817	
-0.386902	
-0.386902	
-0.387329	
-0.388306	
-0.387512	
-0.388428	
-0.386292	
-0.386536	
-0.386902	
-0.387024	
-0.387573	
-0.386841	
-0.386841	
-0.38623	
-0.387634	
-0.387146	
-0.388062	
-0.386902	
-0.38739	
-0.385437	
-0.387512	
-0.387939	
-0.387634	
-0.387817	
-0.38855	
-0.389038	
-0.38855	
-0.388184	
-0.387756	
-0.387878	
-0.387695	
-0.38855	
-0.387634	
-0.387634	
-0.387329	
-0.388733	
-0.38739	
-0.387817	
-0.38623	
-0.385986	
-0.386047	
-0.386658	
-0.387329	
-0.385864	
-0.386353	
-0.385925	
-0.387329	
-0.386108	
-0.388123	
-0.384888	
-0.380615	
-0.377563	
-0.379333	
-0.379578	
-0.379944	
-0.380066	
-0.386047	
-0.387939	
-0.387695	
-0.387817	
-0.386658	
-0.386841	
-0.386475	
-0.387451	
-0.387146	
-0.387634	
-0.38739	
-0.387939	
-0.388489	
-0.388062	
-0.386353	
-0.385925	
-0.385681	
-0.385315	
-0.385864	
-0.38446	
-0.384338	
-0.383728	
-0.384888	
-0.38385	
-0.384583	
-0.382019	
-0.382324	
-0.381714	
-0.382935	
-0.383972	
-0.383362	
-0.383484	
-0.383118	
-0.385864	
-0.385742	
-0.385925	
-0.385071	
-0.385742	
-0.384216	
-0.386902	
-0.386902	
-0.386597	
-0.38739	
-0.387695	
-0.388916	
-0.38855	
-0.388123	
-0.387207	
-0.388733	
-0.388855	
-0.38916	
-0.388489	
-0.388245	
-0.387939	
-0.389648	
-0.389282	
-0.389526	
-0.387878	
-0.388245	
-0.388794	
-0.389465	
-0.389648	
-0.389282	
-0.389404	
-0.388489	
-0.389832	
-0.389465	
-0.389893	
-0.387817	
-0.389099	
-0.387268	
-0.390015	
-0.389709	
-0.388428	
-0.388428	
-0.388611	
-0.389099	
-0.388916	
-0.388428	
-0.387268	
-0.387024	
-0.38739	
-0.388489	
-0.387268	
-0.387756	
-0.387573	
-0.389038	
-0.388	
-0.389893	
-0.388855	
-0.390076	
-0.390259	
-0.392029	
-0.392883	
-0.393372	
-0.394958	
-0.395996	
-0.39856	
-0.398743	
-0.400513	
-0.399048	
-0.401978	
-0.401611	
-0.405029	
-0.405823	
-0.406738	
-0.407715	
-0.409912	
-0.40979	
-0.412476	
-0.412109	
-0.413452	
-0.413574	
-0.415466	
-0.41687	
-0.418518	
-0.420105	
-0.421326	
-0.421753	
-0.423523	
-0.423645	
-0.425415	
-0.42688	
-0.428833	
-0.430908	
-0.432068	
-0.433533	
-0.436401	
-0.437317	
-0.438293	
-0.440613	
-0.442932	
-0.445007	
-0.446472	
-0.450806	
-0.453552	
-0.457275	
-0.460266	
-0.464539	
-0.466431	
-0.470764	
-0.470337	
-0.473206	
-0.474121	
-0.477783	
-0.478516	
-0.479492	
-0.479248	
-0.482239	
-0.481995	
-0.48291	
-0.481567	
-0.483032	
-0.481567	
-0.483398	
-0.483154	
-0.482788	
-0.482239	
-0.482544	
-0.480957	
-0.480713	
-0.479858	
-0.479248	
-0.47821	
-0.478149	
-0.478821	
-0.477661	
-0.477783	
-0.4776	
-0.479431	
-0.478577	
-0.479736	
-0.478027	
-0.478455	
-0.477112	
-0.478516	
-0.478882	
-0.478149	
-0.4776	
-0.477356	
-0.477783	
-0.476563	
-0.475769	
-0.473328	
-0.473267	
-0.472229	
-0.473206	
-0.471191	
-0.469849	
-0.468201	
-0.466797	
-0.463928	
-0.462341	
-0.45874	
-0.45636	
-0.453186	
-0.451294	
-0.449585	
-0.446472	
-0.443665	
-0.440247	
-0.439514	
-0.436096	
-0.435303	
-0.430054	
-0.429016	
-0.426514	
-0.425171	
-0.422913	
-0.419983	
-0.417297	
-0.413879	
-0.411011	
-0.407898	
-0.404785	
-0.398438	
-0.396118	
-0.391479	
-0.389343	
-0.384949	
-0.381592	
-0.378113	
-0.375854	
-0.37262	
-0.369568	
-0.367126	
-0.36499	
-0.36261	
-0.359375	
-0.358826	
-0.356689	
-0.35437	
-0.352661	
-0.352844	
-0.350586	
-0.350891	
-0.34729	
-0.348633	
-0.347839	
-0.348877	
-0.349182	
-0.348572	
-0.348694	
-0.349426	
-0.349548	
-0.349915	
-0.350525	
-0.350281	
-0.35199	
-0.350342	
-0.354065	
-0.354614	
-0.355591	
-0.356201	
-0.356445	
-0.356201	
-0.356445	
-0.356628	
-0.357361	
-0.357361	
-0.357666	
-0.358948	
-0.359009	
-0.359863	
-0.359253	
-0.361023	
-0.361145	
-0.362	
-0.361206	
-0.361511	
-0.361633	
-0.363647	
-0.363525	
-0.364197	
-0.364197	
-0.364563	
-0.364685	
-0.365601	
-0.365234	
-0.366211	
-0.364319	
-0.366211	
-0.365784	
-0.366394	
-0.36676	
-0.36676	
-0.366211	
-0.366394	
-0.36676	
-0.366638	
-0.36499	
-0.366455	
-0.365967	
-0.36554	
-0.365723	
-0.364685	
-0.364868	
-0.36554	
-0.364441	
-0.364807	
-0.362793	
-0.364197	
-0.363831	
-0.363831	
-0.363953	
-0.364502	
-0.363525	
-0.363831	
-0.363098	
-0.364014	
-0.364136	
-0.364563	
-0.365295	
-0.365295	
-0.365723	
-0.364807	
-0.366028	
-0.366699	
-0.367859	
-0.367249	
-0.368225	
-0.36615	
-0.368591	
-0.368774	
-0.368713	
-0.368713	
-0.369568	
-0.369385	
-0.369629	
-0.370422	
-0.370178	
-0.369995	
-0.370117	
-0.371521	
-0.371582	
-0.372131	
-0.372192	
-0.372131	
-0.371887	
-0.372681	
-0.372314	
-0.372498	
-0.37323	
-0.372742	
-0.373291	
-0.373169	
-0.37384	
-0.373596	
-0.37439	
-0.374939	
-0.376526	
-0.376221	
-0.375854	
-0.376221	
-0.377808	
-0.377869	
-0.378357	
-0.378174	
-0.378357	
-0.378174	
-0.378296	
-0.378357	
-0.376831	
-0.379089	
-0.377686	
-0.377319	
-0.377197	
-0.376587	
-0.375916	
-0.375244	
-0.374146	
-0.37616	
-0.375488	
-0.375305	
-0.375183	
-0.375549	
-0.375488	
-0.374146	
-0.375366	
-0.374756	
-0.375244	
-0.375244	
-0.375916	
-0.374084	
-0.375671	
-0.374512	
-0.37616	
-0.376099	
-0.377319	
-0.376709	
-0.376465	
-0.376343	
-0.376587	
-0.375732	
-0.37616	
-0.377258	
-0.377197	
-0.377075	
-0.376282	
-0.377319	
-0.376404	
-0.377563	
-0.375366	
-0.377808	
-0.377014	
-0.377441	
-0.377136	
-0.377014	
-0.378418	
-0.377625	
-0.378174	
-0.377625	
-0.379089	
-0.379456	
-0.380127	
-0.378723	
-0.381165	
-0.38092	
-0.381042	
-0.381287	
-0.381531	
-0.382019	
-0.382202	
-0.382996	
-0.383972	
-0.383118	
-0.383484	
-0.383362	
-0.383728	
-0.384033	
-0.383545	
-0.384216	
-0.383118	
-0.383728	
-0.384033	
-0.383545	
-0.383118	
-0.382263	
-0.384216	
-0.383057	
-0.384277	
-0.383179	
-0.383972	
-0.383423	
-0.384705	
-0.382751	
-0.384033	
-0.383057	
-0.384277	
-0.384155	
-0.383789	
-0.384399	
-0.384277	
-0.384705	
-0.384827	
-0.38501	
-0.384949	
-0.384583	
-0.384033	
-0.385559	
-0.385315	
-0.385742	
-0.385437	
-0.385742	
-0.385315	
-0.386353	
-0.385254	
-0.385132	
-0.383911	
-0.384766	
-0.385803	
-0.384888	
-0.384827	
-0.383789	
-0.384888	
-0.383362	
-0.384949	
-0.383057	
-0.383057	
-0.382263	
-0.383301	
-0.38324	
-0.383545	
-0.383179	
-0.382507	
-0.383667	
-0.383911	
-0.383362	
-0.383545	
-0.383545	
-0.383362	
-0.384888	
-0.384399	
-0.385376	
-0.384766	
-0.385925	
-0.385376	
-0.38739	
-0.386047	
-0.385925	
-0.385498	
-0.386536	
-0.387146	
-0.386047	
-0.38562	
-0.385132	
-0.385315	
-0.384644	
-0.385742	
-0.383301	
-0.384094	
-0.382141	
-0.38446	
-0.384583	
-0.384583	
-0.383545	
-0.382446	
-0.383057	
-0.38385	
-0.382935	
-0.383301	
-0.383484	
-0.383789	
-0.38446	
-0.38446	
-0.385498	
-0.38562	
-0.386353	
-0.385376	
-0.387878	
-0.386841	
-0.386719	
-0.38678	
-0.387512	
-0.388855	
-0.388184	
-0.387817	
-0.387878	
-0.387817	
-0.388245	
-0.388916	
-0.387146	
-0.386475	
-0.385986	
-0.386841	
-0.387878	
-0.387207	
-0.386841	
-0.386841	
-0.386047	
-0.387451	
-0.386536	
-0.387146	
-0.386902	
-0.385864	
-0.388	
-0.388733	
-0.38739	
-0.387878	
-0.386658	
-0.387878	
-0.388123	
-0.388	
-0.387451	
-0.387085	
-0.387817	
-0.388428	
-0.387207	
-0.387207	
-0.386719	
-0.386902	
-0.386719	
-0.387634	
-0.385925	
-0.38623	
-0.385559	
-0.386475	
-0.38678	
-0.386292	
-0.387268	
-0.386047	
-0.386353	
-0.386353	
-0.388977	
-0.386597	
-0.386963	
-0.386108	
-0.388306	
-0.388184	
-0.388855	
-0.388367	
-0.387817	
-0.388977	
-0.389282	
-0.389587	
-0.389343	
-0.389221	
-0.388733	
-0.390137	
-0.389282	
-0.389587	
-0.388184	
-0.389282	
-0.389343	
-0.390381	
-0.388672	
-0.388672	
-0.387634	
-0.388306	
-0.388855	
-0.388428	
-0.387329	
-0.387695	
-0.387939	
-0.387878	
-0.389648	
-0.388306	
-0.388306	
-0.387695	
-0.388794	
-0.388977	
-0.388428	
-0.387268	
-0.386414	
-0.387024	
-0.388123	
-0.388977	
-0.388245	
-0.387756	
-0.387512	
-0.389587	
-0.388733	
-0.389038	
-0.388062	
-0.388794	
-0.387451	
-0.38916	
-0.389221	
-0.388977	
-0.388916	
-0.388	
-0.389648	
-0.389099	
-0.387695	
-0.388245	
-0.388	
-0.387939	
-0.38855	
-0.387634	
-0.387573	
-0.38678	
-0.388245	
-0.388	
-0.387451	
-0.386475	
-0.386719	
-0.386414	
-0.386719	
-0.388123	
-0.387024	
-0.387024	
-0.385742	
-0.387634	
-0.387451	
-0.387451	
-0.38623	
-0.386902	
-0.385803	
-0.387268	
-0.387939	
-0.387329	
-0.386841	
-0.386536	
-0.387756	
-0.387878	
-0.388062	
-0.387268	
-0.387695	
-0.386719	
-0.388489	
-0.387573	
-0.38678	
-0.386414	
-0.386597	
-0.386414	
-0.384949	
-0.384644	
-0.383484	
-0.383423	
-0.383362	
-0.384766	
-0.382813	
-0.383057	
-0.38208	
-0.383728	
-0.383667	
-0.384338	
-0.383545	
-0.382935	
-0.38446	
-0.385315	
-0.386902	
-0.38562	
-0.385742	
-0.384338	
-0.386841	
-0.386658	
-0.387207	
-0.385803	
-0.386658	
-0.386047	
-0.387634	
-0.38739	
-0.387268	
-0.386963	
-0.387207	
-0.388672	
-0.387939	
-0.387207	
-0.387146	
-0.387024	
-0.386841	
-0.387573	
-0.386902	
-0.386353	
-0.386414	
-0.387756	
-0.388367	
-0.387207	
-0.386902	
-0.386292	
-0.38678	
-0.388	
-0.389465	
-0.387207	
-0.386902	
-0.386169	
-0.387329	
-0.387451	
-0.387634	
-0.386414	
-0.386108	
-0.38562	
-0.386963	
-0.386353	
-0.386047	
-0.385498	
-0.38446	
-0.384521	
-0.384827	
-0.383667	
-0.383972	
-0.383606	
-0.383484	
-0.384521	
-0.384033	
-0.383545	
-0.383423	
-0.384155	
-0.384094	
-0.383911	
-0.383484	
-0.383972	
-0.383423	
-0.384338	
-0.385498	
-0.384277	
-0.384094	
-0.383179	
-0.384888	
-0.384766	
-0.385193	
-0.383728	
-0.383484	
-0.38385	
-0.384338	
-0.385437	
-0.383911	
-0.383911	
-0.383179	
-0.383911	
-0.383728	
-0.384399	
-0.382751	
-0.384094	
-0.383423	
-0.384521	
-0.383728	
-0.38324	
-0.382813	
-0.383484	
-0.383118	
-0.383179	
-0.382385	
-0.382385	
-0.382568	
-0.382813	
-0.383057	
-0.381958	
-0.381897	
-0.381226	
-0.382324	
-0.383179	
-0.383118	
-0.381714	
-0.380676	
-0.381836	
-0.382629	
-0.383606	
-0.381653	
-0.381775	
-0.38031	
-0.383423	
-0.382202	
-0.38269	
-0.380981	
-0.381958	
-0.380554	
-0.382019	
-0.381958	
-0.381836	
-0.381042	
-0.38147	
-0.382446	
-0.381348	
-0.381104	
-0.381104	
-0.381104	
-0.381226	
-0.38208	
-0.380615	
-0.380127	
-0.380127	
-0.381226	
-0.381836	
-0.381653	
-0.381042	
-0.381104	
-0.381165	
-0.382385	
-0.383911	
-0.382324	
-0.382202	
-0.382263	
-0.383667	
-0.383179	
-0.383118	
-0.382629	
-0.382751	
-0.38147	
-0.383301	
-0.383606	
-0.38324	
-0.382996	
-0.381287	
-0.38269	
-0.382568	
-0.381409	
-0.379761	
-0.380371	
-0.38031	
-0.379944	
-0.379272	
-0.378967	
-0.378601	
-0.379028	
-0.379028	
-0.378662	
-0.377991	
-0.377747	
-0.377563	
-0.378418	
-0.380005	
-0.378784	
-0.378967	
-0.378479	
-0.379761	
-0.380066	
-0.380554	
-0.378967	
-0.378235	
-0.378845	
-0.379578	
-0.380615	
-0.379395	
-0.379517	
-0.377625	
-0.379822	
-0.379578	
-0.379944	
-0.378052	
-0.378906	
-0.378723	
-0.379395	
-0.379395	
-0.378906	
-0.379028	
-0.379089	
-0.380005	
-0.379578	
-0.380066	
-0.37915	
-0.379944	
-0.380188	
-0.381104	
-0.380005	
-0.380066	
-0.379883	
-0.381348	
-0.381042	
-0.38092	
-0.379883	
-0.378967	
-0.380371	
-0.380188	
-0.38092	
-0.379517	
-0.3797	
-0.378174	
-0.380798	
-0.3797	
-0.379944	
-0.377869	
-0.378113	
-0.377075	
-0.377991	
-0.377502	
-0.376892	
-0.377136	
-0.376526	
-0.377747	
-0.377136	
-0.377014	
-0.377136	
-0.377014	
-0.377563	
-0.378479	
-0.377563	
-0.377502	
-0.377502	
-0.378784	
-0.378723	
-0.378784	
-0.377686	
-0.377869	
-0.378174	
-0.378479	
-0.3797	
-0.378418	
-0.378052	
-0.377808	
-0.378418	
-0.37793	
-0.378845	
-0.377136	
-0.378052	
-0.37793	
-0.378723	
-0.378845	
-0.378296	
-0.37793	
-0.376831	
-0.377563	
-0.37793	
-0.377075	
-0.37738	
-0.377014	
-0.376221	
-0.377563	
-0.377136	
-0.377014	
-0.376587	
-0.377991	
-0.377808	
-0.377686	
-0.376648	
-0.376892	
-0.377136	
-0.377502	
-0.379028	
-0.377808	
-0.378235	
-0.377747	
-0.378784	
-0.378296	
-0.379211	
-0.377197	
-0.377686	
-0.377747	
-0.378723	
-0.380371	
-0.378784	
-0.37854	
-0.377197	
-0.378845	
-0.378784	
-0.378662	
-0.37793	
-0.378174	
-0.377625	
-0.378723	
-0.378479	
-0.377747	
-0.377747	
-0.378235	
-0.378967	
-0.377991	
-0.378113	
-0.377686	
-0.377563	
-0.377686	
-0.37854	
-0.377441	
-0.37738	
-0.377441	
-0.379578	
-0.379944	
-0.380127	
-0.379639	
-0.379944	
-0.380432	
-0.381226	
-0.382996	
-0.381348	
-0.38147	
-0.380371	
-0.382996	
-0.382446	
-0.382446	
-0.380493	
-0.380859	
-0.379822	
-0.381226	
-0.380066	
-0.379883	
-0.379333	
-0.378296	
-0.379578	
-0.378662	
-0.37793	
-0.377747	
-0.377686	
-0.377625	
-0.378418	
-0.378052	
-0.37793	
-0.377441	
-0.377747	
-0.378601	
-0.377869	
-0.376465	
-0.376892	
-0.377136	
-0.377502	
-0.378601	
-0.37738	
-0.377502	
-0.377075	
-0.379028	
-0.378296	
-0.378113	
-0.376282	
-0.375854	
-0.375793	
-0.377258	
-0.377625	
-0.377136	
-0.376343	
-0.375305	
-0.377136	
-0.377625	
-0.377075	
-0.377136	
-0.377319	
-0.377808	
-0.378113	
-0.378357	
-0.378296	
-0.37793	
-0.378784	
-0.379395	
-0.380188	
-0.379761	
-0.379639	
-0.379639	
-0.380188	
-0.381958	
-0.380066	
-0.380371	
-0.379883	
-0.38147	
-0.381348	
-0.381836	
-0.380554	
-0.379517	
-0.380188	
-0.381042	
-0.380981	
-0.379395	
-0.379272	
-0.378235	
-0.380493	
-0.380066	
-0.379822	
-0.37854	
-0.378906	
-0.378784	
-0.379761	
-0.379456	
-0.379211	
-0.378479	
-0.379456	
-0.380066	
-0.379883	
-0.379456	
-0.379761	
-0.379517	
-0.3797	
-0.380676	
-0.379395	
-0.379822	
-0.379517	
-0.380798	
-0.38147	
-0.381409	
-0.380249	
-0.380493	
-0.380737	
-0.380798	
-0.382446	
-0.381592	
-0.381104	
-0.379761	
-0.382874	
-0.382629	
-0.381958	
-0.380859	
-0.380737	
-0.380188	
-0.382141	
-0.381287	
-0.381042	
-0.380981	
-0.381714	
-0.381653	
-0.38147	
-0.380859	
-0.380249	
-0.38147	
-0.381104	
-0.382019	
-0.381165	
-0.381775	
-0.381226	
-0.381714	
-0.382751	
-0.382324	
-0.381287	
-0.381531	
-0.38147	
-0.382202	
-0.383667	
-0.382507	
-0.38208	
-0.381531	
-0.384155	
-0.382996	
-0.382996	
-0.381897	
-0.381165	
-0.380371	
-0.381714	
-0.381836	
-0.380737	
-0.380371	
-0.3797	
-0.381409	
-0.380493	
-0.380127	
-0.37854	
-0.379883	
-0.37915	
-0.380432	
-0.379822	
-0.379883	
-0.379761	
-0.380371	
-0.380432	
-0.380615	
-0.380676	
-0.380615	
-0.381409	
-0.38269	
-0.384277	
-0.38324	
-0.383484	
-0.382813	
-0.384888	
-0.384094	
-0.38501	
-0.384094	
-0.383362	
-0.384094	
-0.385132	
-0.38562	
-0.383972	
-0.383606	
-0.381653	
-0.384094	
-0.383606	
-0.383118	
-0.381592	
-0.383179	
-0.382446	
-0.383301	
-0.383057	
-0.382996	
-0.38269	
-0.382446	
-0.383423	
-0.383362	
-0.382751	
-0.382446	
-0.382751	
-0.383118	
-0.384705	
-0.383911	
-0.38385	
-0.38324	
-0.384521	
-0.384888	
-0.38385	
-0.382996	
-0.382935	
-0.382751	
-0.382202	
-0.383972	
-0.382324	
-0.382568	
-0.380798	
-0.383118	
-0.382996	
-0.382263	
-0.381042	
-0.381226	
-0.381104	
-0.382446	
-0.382813	
-0.382385	
-0.382568	
-0.382385	
-0.383423	
-0.383423	
-0.382935	
-0.383118	
-0.383789	
-0.384277	
-0.385376	
-0.384583	
-0.384949	
-0.38501	
-0.385986	
-0.386414	
-0.386597	
-0.385498	
-0.385681	
-0.385071	
-0.38562	
-0.386536	
-0.385376	
-0.385132	
-0.384216	
-0.385559	
-0.384888	
-0.385071	
-0.383789	
-0.383057	
-0.382996	
-0.384766	
-0.385193	
-0.383606	
-0.383789	
-0.382568	
-0.384338	
-0.384033	
-0.384033	
-0.383179	
-0.383972	
-0.384155	
-0.384399	
-0.384094	
-0.383972	
-0.383972	
-0.38446	
-0.38446	
-0.384949	
-0.38446	
-0.384583	
-0.384644	
-0.385376	
-0.386719	
-0.385498	
-0.385132	
-0.384766	
-0.38623	
-0.38623	
-0.38562	
-0.384766	
-0.384155	
-0.384033	
-0.385254	
-0.386108	
-0.384705	
-0.384644	
-0.382751	
-0.385498	
-0.384583	
-0.384155	
-0.382568	
-0.383728	
-0.382813	
-0.383545	
-0.383728	
-0.383789	
-0.383118	
-0.38324	
-0.384583	
-0.384277	
-0.383118	
-0.383545	
-0.38385	
-0.383911	
-0.385254	
-0.384155	
-0.384094	
-0.383667	
-0.385315	
-0.385681	
-0.384705	
-0.384216	
-0.384216	
-0.384827	
-0.384827	
-0.386658	
-0.38501	
-0.38446	
-0.383484	
-0.385498	
-0.383972	
-0.383911	
-0.382019	
-0.38208	
-0.381042	
-0.382202	
-0.38208	
-0.381287	
-0.380676	
-0.380493	
-0.381531	
-0.380615	
-0.380188	
-0.379883	
-0.380493	
-0.380737	
-0.382813	
-0.382385	
-0.38269	
-0.382385	
-0.383728	
-0.384338	
-0.384644	
-0.383484	
-0.383789	
-0.383728	
-0.384827	
-0.386169	
-0.38501	
-0.384583	
-0.383423	
-0.386292	
-0.385803	
-0.385559	
-0.384277	
-0.383789	
-0.384399	
-0.385681	
-0.385925	
-0.385193	
-0.385132	
-0.383789	
-0.385498	
-0.385254	
-0.384705	
-0.384949	
-0.385071	
-0.384888	
-0.386108	
-0.385864	
-0.386047	
-0.38562	
-0.386292	
-0.386658	
-0.386536	
-0.385925	
-0.385071	
-0.385254	
-0.385803	
-0.386414	
-0.385193	
-0.384949	
-0.384888	
-0.385864	
-0.385437	
-0.384644	
-0.383423	
-0.38208	
-0.38269	
-0.383118	
-0.384399	
-0.382629	
-0.382629	
-0.381104	
-0.38385	
-0.38324	
-0.382263	
-0.382019	
-0.382874	
-0.382141	
-0.382813	
-0.38324	
-0.383484	
-0.383057	
-0.383423	
-0.384583	
-0.384155	
-0.383484	
-0.382996	
-0.38324	
-0.38324	
-0.384705	
-0.383118	
-0.384155	
-0.383545	
-0.384949	
-0.384521	
-0.38501	
-0.38324	
-0.382629	
-0.383484	
-0.383606	
-0.385193	
-0.384155	
-0.383728	
-0.383118	
-0.38446	
-0.383911	
-0.383911	
-0.382019	
-0.382996	
-0.382324	
-0.382935	
-0.382935	
-0.38269	
-0.382263	
-0.381287	
-0.382996	
-0.382629	
-0.382141	
-0.381653	
-0.38208	
-0.382446	
-0.383057	
-0.382141	
-0.382324	
-0.382324	
-0.383667	
-0.383179	
-0.38324	
-0.382202	
-0.38269	
-0.382507	
-0.382935	
-0.383789	
-0.383057	
-0.382751	
-0.381958	
-0.383118	
-0.382996	
-0.38324	
-0.38147	
-0.38147	
-0.38147	
-0.382446	
-0.38324	
-0.381958	
-0.381836	
-0.380798	
-0.382263	
-0.38147	
-0.381653	
-0.381165	
-0.38208	
-0.381104	
-0.383423	
-0.382935	
-0.382751	
-0.382996	
-0.383911	
-0.384766	
-0.384094	
-0.383667	
-0.38385	
-0.383911	
-0.384888	
-0.385864	
-0.384521	
-0.384705	
-0.384033	
-0.385193	
-0.384949	
-0.385315	
-0.383972	
-0.382324	
-0.38269	
-0.383057	
-0.383972	
-0.381714	
-0.381165	
-0.378784	
-0.381531	
-0.381348	
-0.380432	
-0.37915	
-0.38031	
-0.379639	
-0.380371	
-0.379944	
-0.380554	
-0.380249	
-0.379944	
-0.381775	
-0.382141	
-0.380981	
-0.38092	
-0.381409	
-0.381714	
-0.382813	
-0.381165	
-0.381714	
-0.381165	
-0.381897	
-0.382446	
-0.382263	
-0.381592	
-0.38031	
-0.381592	
-0.381897	
-0.383057	
-0.381653	
-0.382019	
-0.379944	
-0.382263	
-0.381531	
-0.382385	
-0.38031	
-0.381714	
-0.381348	
-0.382446	
-0.382446	
-0.382813	
-0.382507	
-0.382263	
-0.383667	
-0.383179	
-0.383057	
-0.381653	
-0.382874	
-0.383118	
-0.383789	
-0.383179	
-0.382996	
-0.382996	
-0.383362	
-0.383606	
-0.383118	
-0.382202	
-0.381836	
-0.381958	
-0.381958	
-0.382629	
-0.380981	
-0.38031	
-0.379578	
-0.381653	
-0.380676	
-0.381287	
-0.380066	
-0.379822	
-0.379456	
-0.38092	
-0.381104	
-0.380188	
-0.380188	
-0.380127	
-0.382385	
-0.38147	
-0.381531	
-0.380493	
-0.381226	
-0.381226	
-0.382813	
-0.381775	
-0.381348	
-0.381348	
-0.381897	
-0.382996	
-0.382446	
-0.381653	
-0.381287	
-0.381775	
-0.38208	
-0.383362	
-0.38208	
-0.381775	
-0.381409	
-0.38269	
-0.382263	
-0.382996	
-0.381897	
-0.380432	
-0.380554	
-0.381348	
-0.381897	
-0.380737	
-0.380859	
-0.379517	
-0.382324	
-0.381409	
-0.381287	
-0.380005	
-0.381348	
-0.38031	
-0.381775	
-0.381409	
-0.381653	
-0.381775	
-0.381897	
-0.382935	
-0.382629	
-0.382141	
-0.381958	
-0.382813	
-0.38269	
-0.384338	
-0.383057	
-0.382996	
-0.382263	
-0.384338	
-0.383789	
-0.383667	
-0.382324	
-0.381836	
-0.38269	
-0.382996	
-0.384277	
-0.383118	
-0.382629	
-0.38092	
-0.383728	
-0.382751	
-0.382996	
-0.38147	
-0.382202	
-0.381042	
-0.382507	
-0.382629	
-0.382202	
-0.381531	
-0.381531	
-0.383179	
-0.382751	
-0.382813	
-0.382568	
-0.383972	
-0.384705	
-0.385864	
-0.385376	
-0.385071	
-0.385315	
-0.386292	
-0.387512	
-0.386536	
-0.386414	
-0.38623	
-0.38623	
-0.386719	
-0.387939	
-0.38623	
-0.385498	
-0.38385	
-0.385559	
-0.384766	
-0.38501	
-0.382874	
-0.382446	
-0.382568	
-0.383728	
-0.384155	
-0.382813	
-0.382507	
-0.38092	
-0.382813	
-0.383057	
-0.381897	
-0.382019	
-0.382385	
-0.382385	
-0.382751	
-0.382507	
-0.381958	
-0.382202	
-0.382446	
-0.383301	
-0.382935	
-0.381775	
-0.381592	
-0.382202	
-0.382751	
-0.383789	
-0.382019	
-0.381897	
-0.381714	
-0.382813	
-0.38269	
-0.382813	
-0.382019	
-0.38092	
-0.381714	
-0.382874	
-0.384033	
-0.382996	
-0.383118	
-0.381409	
-0.384521	
-0.384399	
-0.384399	
-0.382751	
-0.383911	
-0.384155	
-0.38562	
-0.385254	
-0.385498	
-0.386047	
-0.386047	
-0.386292	
-0.386169	
-0.385559	
-0.38562	
-0.38562	
-0.386108	
-0.387268	
-0.385742	
-0.386108	
-0.385803	
-0.38623	
-0.386108	
-0.385742	
-0.38446	
-0.384338	
-0.384094	
-0.384949	
-0.38678	
-0.385254	
-0.384583	
-0.382935	
-0.385803	
-0.385132	
-0.385254	
-0.384033	
-0.384094	
-0.384094	
-0.385193	
-0.384705	
-0.385193	
-0.385132	
-0.384949	
-0.385925	
-0.385193	
-0.38562	
-0.384399	
-0.38501	
-0.385559	
-0.38678	
-0.386169	
-0.386169	
-0.386047	
-0.386719	
	
