E:\DOCUMENTS AND SETTINGS\JPOTAS\MEUS DOCUMENTOS\UFRJ\RSCI-BM 12 WK SERIES\070727-RSCI-BM-05\RSCI-BM-05-REMG\070727-RSCI-BM-05-REMG-0005.ACQ
0.025000 msec/sample
1 channel
Analog input
Volts
CH1	
2000	
-0.385254	
-0.385376	
-0.385193	
-0.385193	
-0.384766	
-0.385742	
-0.384399	
-0.384827	
-0.383423	
-0.384155	
-0.383606	
-0.384094	
-0.38446	
-0.383484	
-0.384338	
-0.384033	
-0.384827	
-0.383179	
-0.384155	
-0.382874	
-0.383118	
-0.382202	
-0.383545	
-0.383179	
-0.383179	
-0.383362	
-0.381897	
-0.382324	
-0.381042	
-0.380981	
-0.380493	
-0.380798	
-0.38147	
-0.381897	
-0.381042	
-0.381287	
-0.381042	
-0.381592	
-0.380798	
-0.381592	
-0.380127	
-0.381165	
-0.380676	
-0.381104	
-0.381897	
-0.381042	
-0.382446	
-0.381287	
-0.382568	
-0.381775	
-0.382324	
-0.381104	
-0.382263	
-0.381287	
-0.381958	
-0.383057	
-0.382385	
-0.38269	
-0.381348	
-0.38208	
-0.381592	
-0.382324	
-0.380981	
-0.381775	
-0.381409	
-0.382202	
-0.381897	
-0.381958	
-0.382202	
-0.383301	
-0.381714	
-0.381714	
-0.381226	
-0.382202	
-0.381836	
-0.382019	
-0.382629	
-0.382629	
-0.382446	
-0.381958	
-0.382935	
-0.381958	
-0.38324	
-0.381042	
-0.38208	
-0.382446	
-0.382813	
-0.383301	
-0.382935	
-0.383667	
-0.382202	
-0.383972	
-0.381714	
-0.382935	
-0.382141	
-0.382507	
-0.381775	
-0.382935	
-0.382507	
-0.38269	
-0.382446	
-0.383057	
-0.382996	
-0.381409	
-0.382385	
-0.381775	
-0.382385	
-0.382202	
-0.382568	
-0.382202	
-0.38269	
-0.382263	
-0.382935	
-0.381775	
-0.382568	
-0.38147	
-0.381897	
-0.381897	
-0.382507	
-0.383728	
-0.382629	
-0.383423	
-0.382629	
-0.384033	
-0.382751	
-0.383301	
-0.382141	
-0.383301	
-0.382446	
-0.383789	
-0.384888	
-0.384827	
-0.385132	
-0.384216	
-0.385315	
-0.38385	
-0.384399	
-0.384155	
-0.384766	
-0.384644	
-0.385071	
-0.384277	
-0.384399	
-0.38385	
-0.384888	
-0.383362	
-0.384644	
-0.382507	
-0.383667	
-0.383484	
-0.38385	
-0.384155	
-0.383484	
-0.384033	
-0.38385	
-0.384583	
-0.38324	
-0.384033	
-0.382568	
-0.383606	
-0.383362	
-0.383423	
-0.383911	
-0.383911	
-0.384399	
-0.382935	
-0.383362	
-0.382568	
-0.384094	
-0.382629	
-0.383118	
-0.38208	
-0.382874	
-0.383484	
-0.383606	
-0.38324	
-0.384766	
-0.38324	
-0.383423	
-0.383179	
-0.383789	
-0.383423	
-0.383362	
-0.383911	
-0.383118	
-0.383667	
-0.383789	
-0.385132	
-0.383606	
-0.384583	
-0.382385	
-0.384827	
-0.384033	
-0.384338	
-0.384888	
-0.384521	
-0.385254	
-0.378479	
-0.378296	
-0.376892	
-0.378052	
-0.376709	
-0.377136	
-0.38208	
-0.38385	
-0.384766	
-0.384277	
-0.384521	
-0.384338	
-0.384033	
-0.382507	
-0.383118	
-0.383484	
-0.383667	
-0.383423	
-0.383911	
-0.383911	
-0.384155	
-0.383545	
-0.384155	
-0.382996	
-0.383972	
-0.38208	
-0.38324	
-0.383423	
-0.383545	
-0.384521	
-0.383179	
-0.384705	
-0.383789	
-0.384399	
-0.383301	
-0.384033	
-0.382813	
-0.38385	
-0.382751	
-0.38324	
-0.378235	
-0.376953	
-0.377563	
-0.376648	
-0.377686	
-0.377258	
-0.384827	
-0.383728	
-0.385254	
-0.383972	
-0.385498	
-0.384888	
-0.385071	
-0.384705	
-0.385803	
-0.384521	
-0.385742	
-0.383545	
-0.384949	
-0.384827	
-0.384949	
-0.385254	
-0.384705	
-0.385315	
-0.384766	
-0.386414	
-0.385071	
-0.385864	
-0.385681	
-0.385559	
-0.385193	
-0.385742	
-0.386597	
-0.385864	
-0.38623	
-0.385437	
-0.386475	
-0.384949	
-0.386414	
-0.384949	
-0.386597	
-0.385254	
-0.387024	
-0.387024	
-0.387085	
-0.387146	
-0.388306	
-0.387573	
-0.387268	
-0.386963	
-0.388306	
-0.388062	
-0.388916	
-0.389404	
-0.389343	
-0.390259	
-0.390808	
-0.392944	
-0.393555	
-0.395508	
-0.395691	
-0.397217	
-0.397766	
-0.398865	
-0.400574	
-0.400757	
-0.402466	
-0.402527	
-0.403076	
-0.403503	
-0.405457	
-0.406799	
-0.407288	
-0.408569	
-0.411072	
-0.411377	
-0.412598	
-0.413391	
-0.415588	
-0.415466	
-0.416565	
-0.416626	
-0.419006	
-0.41925	
-0.421631	
-0.422791	
-0.424377	
-0.425598	
-0.428833	
-0.428955	
-0.431641	
-0.4328	
-0.435608	
-0.437073	
-0.440369	
-0.441895	
-0.444397	
-0.44696	
-0.450684	
-0.451599	
-0.454163	
-0.456543	
-0.46228	
-0.464355	
-0.46875	
-0.471802	
-0.474854	
-0.477905	
-0.480164	
-0.480408	
-0.481445	
-0.483093	
-0.484985	
-0.485657	
-0.487	
-0.488037	
-0.488159	
-0.488708	
-0.487915	
-0.489746	
-0.48877	
-0.489258	
-0.488037	
-0.489014	
-0.487122	
-0.487549	
-0.486816	
-0.486633	
-0.485168	
-0.485535	
-0.484558	
-0.484863	
-0.483826	
-0.484253	
-0.483887	
-0.485229	
-0.486328	
-0.485474	
-0.486755	
-0.486267	
-0.487366	
-0.485657	
-0.486755	
-0.486023	
-0.486694	
-0.48468	
-0.485901	
-0.485657	
-0.485107	
-0.485168	
-0.484863	
-0.48407	
-0.482727	
-0.482666	
-0.482727	
-0.481567	
-0.480164	
-0.47998	
-0.477478	
-0.476501	
-0.47467	
-0.474304	
-0.471375	
-0.470276	
-0.467285	
-0.466797	
-0.464233	
-0.462402	
-0.461975	
-0.458801	
-0.45697	
-0.454285	
-0.452881	
-0.449646	
-0.448853	
-0.444763	
-0.443604	
-0.441345	
-0.43866	
-0.435364	
-0.432312	
-0.429749	
-0.426941	
-0.423279	
-0.41925	
-0.417664	
-0.414063	
-0.412537	
-0.410278	
-0.409302	
-0.406616	
-0.404846	
-0.403503	
-0.402344	
-0.399963	
-0.398865	
-0.395996	
-0.395264	
-0.394409	
-0.393555	
-0.392822	
-0.391541	
-0.391052	
-0.389587	
-0.39032	
-0.390015	
-0.390503	
-0.389587	
-0.391846	
-0.392761	
-0.394104	
-0.394653	
-0.39563	
-0.397217	
-0.396606	
-0.398926	
-0.398132	
-0.400024	
-0.399841	
-0.40094	
-0.400757	
-0.402405	
-0.402527	
-0.40271	
-0.402222	
-0.40332	
-0.402527	
-0.402283	
-0.401611	
-0.401428	
-0.401489	
-0.400818	
-0.401733	
-0.400513	
-0.401062	
-0.39978	
-0.401306	
-0.399963	
-0.400208	
-0.398376	
-0.399353	
-0.398254	
-0.398315	
-0.398376	
-0.397583	
-0.396973	
-0.396912	
-0.397034	
-0.395569	
-0.39563	
-0.392944	
-0.394897	
-0.3927	
-0.394043	
-0.393799	
-0.3927	
-0.390137	
-0.390747	
-0.388489	
-0.388367	
-0.386841	
-0.385559	
-0.384644	
-0.384399	
-0.381409	
-0.381104	
-0.379333	
-0.379211	
-0.378296	
-0.375305	
-0.374634	
-0.371948	
-0.370789	
-0.370361	
-0.368408	
-0.366821	
-0.364746	
-0.364746	
-0.363953	
-0.362915	
-0.361572	
-0.36145	
-0.360046	
-0.360291	
-0.35968	
-0.360046	
-0.359497	
-0.359985	
-0.360474	
-0.361389	
-0.359558	
-0.360413	
-0.358459	
-0.359436	
-0.359192	
-0.360352	
-0.360291	
-0.358521	
-0.359802	
-0.360596	
-0.360229	
-0.360779	
-0.358826	
-0.360474	
-0.360657	
-0.360901	
-0.361145	
-0.361328	
-0.361511	
-0.362976	
-0.362488	
-0.362976	
-0.362183	
-0.363159	
-0.363403	
-0.364868	
-0.365112	
-0.366455	
-0.365234	
-0.366516	
-0.366516	
-0.36792	
-0.367493	
-0.368225	
-0.368164	
-0.370117	
-0.36969	
-0.370117	
-0.368652	
-0.371582	
-0.371887	
-0.371704	
-0.371704	
-0.370483	
-0.371948	
-0.372803	
-0.372925	
-0.372986	
-0.372803	
-0.373474	
-0.374817	
-0.372314	
-0.373901	
-0.37262	
-0.37384	
-0.374268	
-0.373718	
-0.37384	
-0.37439	
-0.374023	
-0.37439	
-0.373657	
-0.374756	
-0.37384	
-0.373779	
-0.374451	
-0.374329	
-0.373962	
-0.374939	
-0.373901	
-0.374084	
-0.374329	
-0.374512	
-0.373718	
-0.372437	
-0.373474	
-0.375183	
-0.374329	
-0.374146	
-0.374146	
-0.375	
-0.375244	
-0.375061	
-0.374573	
-0.373352	
-0.375061	
-0.374634	
-0.374939	
-0.375122	
-0.375427	
-0.375122	
-0.376343	
-0.375061	
-0.375549	
-0.375183	
-0.376343	
-0.376099	
-0.377014	
-0.376648	
-0.377441	
-0.37677	
-0.377869	
-0.376709	
-0.377197	
-0.376282	
-0.376404	
-0.377014	
-0.377869	
-0.378662	
-0.377808	
-0.378967	
-0.37793	
-0.378906	
-0.378296	
-0.379395	
-0.37793	
-0.379211	
-0.378784	
-0.3797	
-0.379883	
-0.380188	
-0.382202	
-0.381409	
-0.382935	
-0.381714	
-0.382996	
-0.382813	
-0.383301	
-0.38269	
-0.383972	
-0.383911	
-0.384033	
-0.383728	
-0.384155	
-0.383484	
-0.383362	
-0.382996	
-0.382996	
-0.384033	
-0.383301	
-0.38385	
-0.383606	
-0.383118	
-0.382874	
-0.382568	
-0.382263	
-0.383545	
-0.381836	
-0.381714	
-0.381653	
-0.381958	
-0.381897	
-0.381592	
-0.381836	
-0.381653	
-0.381042	
-0.38092	
-0.380554	
-0.380798	
-0.380249	
-0.38031	
-0.380981	
-0.380676	
-0.380615	
-0.380676	
-0.3797	
-0.381287	
-0.379517	
-0.378845	
-0.377502	
-0.378845	
-0.379211	
-0.379517	
-0.378784	
-0.379089	
-0.378357	
-0.378845	
-0.378662	
-0.378357	
-0.379028	
-0.379028	
-0.379272	
-0.378906	
-0.379822	
-0.379333	
-0.380066	
-0.378845	
-0.380737	
-0.380127	
-0.3797	
-0.380371	
-0.380127	
-0.380249	
-0.380737	
-0.381042	
-0.381165	
-0.381042	
-0.379456	
-0.380981	
-0.380371	
-0.380249	
-0.379211	
-0.381165	
-0.380615	
-0.380798	
-0.38092	
-0.380432	
-0.38092	
-0.381348	
-0.380493	
-0.379944	
-0.380554	
-0.38092	
-0.381226	
-0.381287	
-0.38208	
-0.381836	
-0.381348	
-0.380859	
-0.381653	
-0.381226	
-0.380859	
-0.380127	
-0.381531	
-0.381775	
-0.382202	
-0.382141	
-0.382507	
-0.382874	
-0.38208	
-0.381958	
-0.381836	
-0.381897	
-0.380798	
-0.381409	
-0.381836	
-0.382507	
-0.381348	
-0.381409	
-0.381775	
-0.382324	
-0.380615	
-0.379761	
-0.380127	
-0.380188	
-0.380371	
-0.380615	
-0.381042	
-0.380737	
-0.380249	
-0.379517	
-0.379028	
-0.379944	
-0.380249	
-0.379272	
-0.379944	
-0.380554	
-0.381348	
-0.380981	
-0.381348	
-0.381531	
-0.381104	
-0.382324	
-0.381287	
-0.381531	
-0.38092	
-0.381897	
-0.382019	
-0.382446	
-0.383179	
-0.382874	
-0.383423	
-0.383484	
-0.383362	
-0.381714	
-0.382446	
-0.383179	
-0.38324	
-0.383423	
-0.382874	
-0.382751	
-0.381409	
-0.381958	
-0.38208	
-0.382263	
-0.38092	
-0.380615	
-0.381653	
-0.382446	
-0.381653	
-0.381653	
-0.380432	
-0.381775	
-0.381653	
-0.382202	
-0.381165	
-0.381042	
-0.380798	
-0.38147	
-0.380981	
-0.381104	
-0.382019	
-0.381287	
-0.381897	
-0.381104	
-0.38092	
-0.380737	
-0.380554	
-0.379822	
-0.381409	
-0.381287	
-0.381531	
-0.381042	
-0.38147	
-0.381836	
-0.382202	
-0.381348	
-0.380615	
-0.380615	
-0.381165	
-0.381775	
-0.381531	
-0.38208	
-0.380554	
-0.381836	
-0.380676	
-0.382935	
-0.381409	
-0.381714	
-0.381653	
-0.381958	
-0.381958	
-0.382507	
-0.382324	
-0.382751	
-0.382813	
-0.383911	
-0.383057	
-0.381897	
-0.38208	
-0.380737	
-0.382935	
-0.382141	
-0.381836	
-0.381287	
-0.381775	
-0.382751	
-0.382996	
-0.381897	
-0.380615	
-0.381042	
-0.382446	
-0.38269	
-0.382141	
-0.38208	
-0.381409	
-0.381897	
-0.381653	
-0.382202	
-0.382263	
-0.381775	
-0.381348	
-0.382385	
-0.382324	
-0.382263	
-0.381775	
-0.381409	
-0.382813	
-0.381958	
-0.382446	
-0.381714	
-0.381348	
-0.38092	
-0.382141	
-0.38269	
-0.382202	
-0.381653	
-0.381104	
-0.382385	
-0.382996	
-0.382813	
-0.380615	
-0.380493	
-0.381226	
-0.382935	
-0.381897	
-0.381653	
-0.381531	
-0.381409	
-0.382385	
-0.38208	
-0.381775	
-0.38208	
-0.381348	
-0.381714	
-0.383118	
-0.382141	
-0.381409	
-0.380554	
-0.382568	
-0.383118	
-0.382507	
-0.38208	
-0.382629	
-0.382385	
-0.382996	
-0.38385	
-0.382996	
-0.382874	
-0.38208	
-0.383972	
-0.384338	
-0.38385	
-0.382507	
-0.382813	
-0.38269	
-0.384521	
-0.384277	
-0.383728	
-0.383728	
-0.38385	
-0.384766	
-0.385315	
-0.384644	
-0.384033	
-0.383484	
-0.384399	
-0.385498	
-0.384521	
-0.38446	
-0.383972	
-0.384644	
-0.385193	
-0.385864	
-0.384521	
-0.384766	
-0.386047	
-0.386292	
-0.386414	
-0.385315	
-0.385071	
-0.384155	
-0.385742	
-0.384949	
-0.385193	
-0.384094	
-0.383911	
-0.383301	
-0.384399	
-0.384827	
-0.383484	
-0.383057	
-0.382935	
-0.383728	
-0.383362	
-0.382141	
-0.380371	
-0.380981	
-0.380737	
-0.381897	
-0.381348	
-0.380859	
-0.379883	
-0.379639	
-0.380371	
-0.38092	
-0.380859	
-0.380249	
-0.379395	
-0.380859	
-0.381165	
-0.380676	
-0.38031	
-0.380127	
-0.381165	
-0.381348	
-0.381714	
-0.381104	
-0.380493	
-0.380493	
-0.381836	
-0.382263	
-0.381226	
-0.381104	
-0.38147	
-0.38269	
-0.382751	
-0.382568	
-0.380981	
-0.381409	
-0.381531	
-0.383362	
-0.383362	
-0.382568	
-0.383057	
-0.382141	
-0.383667	
-0.385132	
-0.383423	
-0.383667	
-0.383362	
-0.384766	
-0.385376	
-0.384399	
-0.384521	
-0.383057	
-0.384766	
-0.384888	
-0.384949	
-0.383667	
-0.384216	
-0.384216	
-0.385071	
-0.384827	
-0.384644	
-0.384644	
-0.384277	
-0.38501	
-0.385193	
-0.385986	
-0.383179	
-0.383301	
-0.383362	
-0.384155	
-0.384094	
-0.383057	
-0.38269	
-0.382568	
-0.384216	
-0.384094	
-0.38324	
-0.381958	
-0.382019	
-0.38208	
-0.38385	
-0.383484	
-0.38324	
-0.38208	
-0.383545	
-0.38324	
-0.382935	
-0.382935	
-0.382751	
-0.382263	
-0.383118	
-0.383301	
-0.383118	
-0.382813	
-0.382446	
-0.383911	
-0.38324	
-0.383972	
-0.382874	
-0.382874	
-0.382385	
-0.383362	
-0.38324	
-0.382446	
-0.381958	
-0.381775	
-0.382874	
-0.382874	
-0.382202	
-0.381348	
-0.381104	
-0.381165	
-0.383179	
-0.382263	
-0.381775	
-0.381348	
-0.38147	
-0.381897	
-0.382324	
-0.382324	
-0.381897	
-0.380554	
-0.382874	
-0.383118	
-0.382019	
-0.382263	
-0.381958	
-0.383057	
-0.382813	
-0.383179	
-0.38269	
-0.382568	
-0.381775	
-0.382751	
-0.383423	
-0.382507	
-0.382141	
-0.381836	
-0.382813	
-0.382996	
-0.382507	
-0.380615	
-0.38147	
-0.381165	
-0.382751	
-0.382141	
-0.381714	
-0.380493	
-0.380005	
-0.381165	
-0.381165	
-0.380554	
-0.378723	
-0.37915	
-0.378845	
-0.380737	
-0.380127	
-0.380005	
-0.378784	
-0.380554	
-0.380371	
-0.380615	
-0.380188	
-0.380493	
-0.380554	
-0.380798	
-0.380798	
-0.380554	
-0.380249	
-0.379822	
-0.380981	
-0.38031	
-0.381531	
-0.379883	
-0.379883	
-0.379944	
-0.380981	
-0.381042	
-0.380432	
-0.380432	
-0.379883	
-0.38147	
-0.381348	
-0.380981	
-0.379761	
-0.379944	
-0.380432	
-0.381836	
-0.381165	
-0.380981	
-0.379517	
-0.380066	
-0.381042	
-0.381348	
-0.38092	
-0.380676	
-0.380249	
-0.381165	
-0.381775	
-0.381287	
-0.380859	
-0.380859	
-0.381226	
-0.381348	
-0.381775	
-0.38092	
-0.381042	
-0.381348	
-0.382568	
-0.38269	
-0.381042	
-0.381348	
-0.381165	
-0.382141	
-0.381897	
-0.38147	
-0.3797	
-0.380554	
-0.380676	
-0.382202	
-0.381653	
-0.381165	
-0.380127	
-0.380859	
-0.381226	
-0.382019	
-0.381287	
-0.381287	
-0.38031	
-0.381409	
-0.381836	
-0.381042	
-0.380981	
-0.381531	
-0.382263	
-0.382263	
-0.382813	
-0.381348	
-0.381531	
-0.381348	
-0.382141	
-0.382446	
-0.381409	
-0.380981	
-0.381531	
-0.382751	
-0.382202	
-0.382507	
-0.381104	
-0.381226	
-0.38092	
-0.382385	
-0.382019	
-0.381348	
-0.380859	
-0.380798	
-0.381714	
-0.382019	
-0.381836	
-0.380859	
-0.380615	
-0.381836	
-0.382263	
-0.381714	
-0.381531	
-0.380005	
-0.381653	
-0.382324	
-0.382141	
-0.381042	
-0.381348	
-0.380859	
-0.381836	
-0.382019	
-0.381836	
-0.381836	
-0.38147	
-0.382568	
-0.382141	
-0.383057	
-0.381348	
-0.380981	
-0.381104	
-0.382874	
-0.382202	
-0.381287	
-0.381531	
-0.380676	
-0.381653	
-0.381958	
-0.381531	
-0.380188	
-0.380493	
-0.379456	
-0.381226	
-0.380493	
-0.380798	
-0.378723	
-0.379822	
-0.380371	
-0.379761	
-0.378967	
-0.379761	
-0.379639	
-0.379517	
-0.379883	
-0.3797	
-0.379333	
-0.378662	
-0.379761	
-0.380127	
-0.379944	
-0.378784	
-0.378906	
-0.378418	
-0.378723	
-0.379211	
-0.377869	
-0.377991	
-0.378052	
-0.379761	
-0.379456	
-0.379272	
-0.377991	
-0.377991	
-0.377625	
-0.379456	
-0.379272	
-0.378845	
-0.377869	
-0.378418	
-0.379761	
-0.3797	
-0.379639	
-0.379089	
-0.380066	
-0.381714	
-0.381958	
-0.381348	
-0.381042	
-0.381775	
-0.382019	
-0.38208	
-0.382263	
-0.382141	
-0.381409	
-0.381409	
-0.382751	
-0.382385	
-0.381897	
-0.381714	
-0.381165	
-0.382507	
-0.382324	
-0.381714	
-0.380676	
-0.380493	
-0.380127	
-0.381897	
-0.380981	
-0.380798	
-0.380371	
-0.379944	
-0.38031	
-0.380859	
-0.379456	
-0.379944	
-0.378723	
-0.379883	
-0.380188	
-0.379639	
-0.379883	
-0.378723	
-0.379639	
-0.3797	
-0.379395	
-0.379028	
-0.378967	
-0.378479	
-0.378906	
-0.378784	
-0.377869	
-0.377075	
-0.377075	
-0.378845	
-0.378174	
-0.378052	
-0.377319	
-0.377991	
-0.376892	
-0.378723	
-0.377075	
-0.377441	
-0.377136	
-0.377563	
-0.37854	
-0.378784	
-0.377747	
-0.376465	
-0.37738	
-0.377502	
-0.37915	
-0.378296	
-0.378174	
-0.377075	
-0.378723	
-0.378967	
-0.379211	
-0.378052	
-0.377991	
-0.377747	
-0.378479	
-0.379822	
-0.378357	
-0.378052	
-0.378113	
-0.37915	
-0.378662	
-0.379517	
-0.378296	
-0.378052	
-0.378479	
-0.379272	
-0.378906	
-0.378296	
-0.378357	
-0.377747	
-0.379089	
-0.379211	
-0.379272	
-0.378662	
-0.37793	
-0.378113	
-0.379272	
-0.378906	
-0.378662	
-0.377686	
-0.379211	
-0.379944	
-0.379517	
-0.378967	
-0.378357	
-0.377869	
-0.379395	
-0.379395	
-0.379517	
-0.379272	
-0.378174	
-0.379089	
-0.379578	
-0.379761	
-0.378967	
-0.378784	
-0.378784	
-0.379761	
-0.379578	
-0.379089	
-0.378723	
-0.377625	
-0.379761	
-0.3797	
-0.379089	
-0.37793	
-0.378662	
-0.377991	
-0.3797	
-0.379028	
-0.378662	
-0.378418	
-0.378235	
-0.379761	
-0.38031	
-0.379517	
-0.378174	
-0.378296	
-0.379395	
-0.380554	
-0.3797	
-0.379456	
-0.379028	
-0.380859	
-0.380371	
-0.38092	
-0.381165	
-0.381653	
-0.380676	
-0.381531	
-0.382385	
-0.381104	
-0.381165	
-0.380798	
-0.382385	
-0.381592	
-0.381836	
-0.38092	
-0.380676	
-0.380127	
-0.381287	
-0.381104	
-0.380371	
-0.380188	
-0.379333	
-0.380676	
-0.381409	
-0.380066	
-0.379272	
-0.379456	
-0.380371	
-0.381409	
-0.380615	
-0.379761	
-0.378784	
-0.380615	
-0.380188	
-0.380554	
-0.38031	
-0.379944	
-0.379211	
-0.380066	
-0.380493	
-0.380798	
-0.380554	
-0.380005	
-0.380554	
-0.38031	
-0.381104	
-0.379944	
-0.379822	
-0.3797	
-0.38092	
-0.380737	
-0.380676	
-0.380188	
-0.379456	
-0.380798	
-0.380859	
-0.381042	
-0.380127	
-0.380066	
-0.379761	
-0.382446	
-0.380432	
-0.38092	
-0.380493	
-0.381104	
-0.381226	
-0.382202	
-0.381104	
-0.380676	
-0.379883	
-0.380981	
-0.381348	
-0.380859	
-0.380737	
-0.379211	
-0.380798	
-0.380676	
-0.380737	
-0.379944	
-0.380127	
-0.379822	
-0.380859	
-0.381958	
-0.380188	
-0.380066	
-0.379272	
-0.380859	
-0.380981	
-0.380981	
-0.380066	
-0.380371	
-0.379211	
-0.38092	
-0.380676	
-0.379822	
-0.379944	
-0.378967	
-0.380737	
-0.38092	
-0.380554	
-0.378906	
-0.378723	
-0.380005	
-0.381409	
-0.380371	
-0.380615	
-0.3797	
-0.380371	
-0.380676	
-0.380554	
-0.38031	
-0.380188	
-0.380188	
-0.380798	
-0.381226	
-0.380371	
-0.380371	
-0.380005	
-0.381165	
-0.380798	
-0.38092	
-0.380188	
-0.380249	
-0.379578	
-0.380371	
-0.38092	
-0.380798	
-0.379639	
-0.37915	
-0.381104	
-0.380981	
-0.38031	
-0.379395	
-0.379211	
-0.379211	
-0.381592	
-0.380188	
-0.380615	
-0.379517	
-0.381104	
-0.380676	
-0.380981	
-0.380493	
-0.381287	
-0.380615	
-0.381165	
-0.382507	
-0.38147	
-0.381287	
-0.380371	
-0.382324	
-0.382141	
-0.382996	
-0.382141	
-0.381958	
-0.381836	
-0.38324	
-0.383484	
-0.38269	
-0.382385	
-0.381653	
-0.383728	
-0.38324	
-0.383057	
-0.382141	
-0.383057	
-0.382202	
-0.38562	
-0.384094	
-0.384399	
-0.38385	
-0.38446	
-0.384338	
-0.384583	
-0.383911	
-0.382446	
-0.382263	
-0.382507	
-0.383667	
-0.382996	
-0.382568	
-0.382141	
-0.383057	
-0.382568	
-0.382568	
-0.381714	
-0.381104	
-0.381287	
-0.381775	
-0.382019	
-0.380432	
-0.380127	
-0.379944	
-0.380737	
-0.380615	
-0.380554	
-0.379761	
-0.379395	
-0.379272	
-0.380798	
-0.380432	
-0.380005	
-0.379944	
-0.379456	
-0.380554	
-0.381531	
-0.380493	
-0.380371	
-0.379883	
-0.380859	
-0.381348	
-0.380981	
-0.381042	
-0.379883	
-0.381775	
-0.382019	
-0.382202	
-0.381287	
-0.381409	
-0.381409	
-0.382019	
-0.382141	
-0.382568	
-0.381714	
-0.38208	
-0.38385	
-0.383911	
-0.38446	
-0.383118	
-0.38324	
-0.383179	
-0.384827	
-0.385437	
-0.384949	
-0.384766	
-0.384399	
-0.385132	
-0.385376	
-0.384705	
-0.383301	
-0.38385	
-0.383667	
-0.386108	
-0.384705	
-0.38446	
-0.384094	
-0.384399	
-0.384644	
-0.385864	
-0.384705	
-0.384705	
-0.383301	
-0.384338	
-0.384888	
-0.383484	
-0.383301	
-0.382019	
-0.384277	
-0.383789	
-0.384583	
-0.382935	
-0.383057	
-0.382446	
-0.383179	
-0.383545	
-0.383118	
-0.383545	
-0.383179	
-0.383484	
-0.384094	
-0.383789	
-0.381836	
-0.382568	
-0.382141	
-0.384094	
-0.384033	
-0.382935	
-0.38269	
-0.382141	
-0.383667	
-0.383789	
-0.382507	
-0.382813	
-0.381958	
-0.383179	
-0.383423	
-0.38269	
-0.382996	
-0.382019	
-0.38324	
-0.382996	
-0.383179	
-0.382324	
-0.382141	
-0.382019	
-0.382874	
-0.383301	
-0.382141	
-0.38208	
-0.382324	
-0.382751	
-0.382751	
-0.38269	
-0.381409	
-0.382141	
-0.38147	
-0.383301	
-0.383179	
-0.382324	
-0.381958	
-0.381653	
-0.383179	
-0.383484	
-0.382874	
-0.381409	
-0.382202	
-0.382019	
-0.383057	
-0.382324	
-0.382629	
-0.381531	
-0.38269	
-0.382507	
-0.382996	
-0.382385	
-0.381714	
-0.380798	
-0.381958	
-0.382446	
-0.381531	
-0.381531	
-0.380859	
-0.382141	
-0.381531	
-0.381897	
-0.380249	
-0.380737	
-0.380371	
-0.380554	
-0.380249	
-0.379761	
-0.379883	
-0.378845	
-0.380493	
-0.380798	
-0.381104	
-0.378845	
-0.380005	
-0.379272	
-0.381775	
-0.380249	
-0.380127	
-0.380066	
-0.380249	
-0.38031	
-0.38092	
-0.380005	
-0.379517	
-0.378662	
-0.380249	
-0.381042	
-0.381104	
-0.380371	
-0.379944	
-0.38147	
-0.381592	
-0.38092	
-0.38031	
-0.380737	
-0.380859	
-0.380981	
-0.381409	
-0.380798	
-0.38031	
-0.380188	
-0.382019	
-0.382019	
-0.382141	
-0.379822	
-0.380005	
-0.380371	
-0.382141	
-0.381348	
-0.380554	
-0.380615	
-0.380676	
-0.381226	
-0.381836	
-0.380493	
-0.380493	
-0.379944	
-0.380798	
-0.381714	
-0.381653	
-0.381104	
-0.379944	
-0.381531	
-0.381714	
-0.381042	
-0.380737	
-0.380981	
-0.381042	
-0.380859	
-0.380981	
-0.380615	
-0.380798	
-0.380371	
-0.381226	
-0.381165	
-0.381653	
-0.380615	
-0.380554	
-0.380371	
-0.381531	
-0.381104	
-0.380798	
-0.381042	
-0.380371	
-0.38147	
-0.381592	
-0.381042	
-0.3797	
-0.380859	
-0.380371	
-0.381531	
-0.380737	
-0.381226	
-0.380127	
-0.381348	
-0.381104	
-0.38147	
-0.380737	
-0.380066	
-0.379578	
-0.381287	
-0.381897	
-0.380432	
-0.380554	
-0.380798	
-0.381958	
-0.381042	
-0.381226	
-0.380676	
-0.380554	
-0.380798	
-0.381042	
-0.381897	
-0.38092	
-0.380432	
-0.379944	
-0.381592	
-0.381653	
-0.381287	
-0.379395	
-0.38031	
-0.380127	
-0.381348	
-0.380859	
-0.380615	
-0.379944	
-0.380798	
-0.380676	
-0.381348	
-0.380615	
-0.380798	
-0.379578	
-0.381226	
-0.381531	
-0.380737	
-0.380371	
-0.379639	
-0.380981	
-0.380615	
-0.380981	
-0.3797	
-0.380188	
-0.379883	
-0.380737	
-0.380859	
-0.379761	
-0.379578	
-0.379639	
-0.380066	
-0.379883	
-0.380554	
-0.378235	
-0.378967	
-0.378235	
-0.379578	
-0.379211	
-0.378601	
-0.378235	
-0.377869	
-0.378723	
-0.379578	
-0.37915	
-0.37738	
-0.377258	
-0.377625	
-0.378845	
-0.377686	
-0.377319	
-0.376221	
-0.377197	
-0.377991	
-0.377625	
-0.377197	
-0.378235	
-0.378296	
-0.378296	
-0.378601	
-0.377991	
-0.378418	
-0.377808	
-0.379028	
-0.379028	
-0.379333	
-0.377869	
-0.378357	
-0.378601	
-0.380554	
-0.380676	
-0.3797	
-0.379944	
-0.379761	
-0.380798	
-0.381653	
-0.381348	
-0.380493	
-0.381104	
-0.380859	
-0.381409	
-0.380737	
-0.380981	
-0.380005	
-0.380249	
-0.380798	
-0.381165	
-0.380554	
	
