E:\DOCUMENTS AND SETTINGS\JPOTAS\MEUS DOCUMENTOS\UFRJ\RSCI-BM 12 WK SERIES\070727-RSCI-BM-05\RSCI-BM-05-REMG\070727-RSCI-BM-05-REMG-0002.ACQ
0.025000 msec/sample
1 channel
Analog input
Volts
CH1	
2000	
-0.386292	
-0.38562	
-0.387878	
-0.38623	
-0.386475	
-0.384766	
-0.386047	
-0.385254	
-0.385803	
-0.384827	
-0.384949	
-0.384521	
-0.384766	
-0.384888	
-0.384094	
-0.382996	
-0.383179	
-0.383789	
-0.383179	
-0.383789	
-0.38324	
-0.382874	
-0.382874	
-0.383606	
-0.382935	
-0.382629	
-0.381531	
-0.381226	
-0.383301	
-0.382263	
-0.382813	
-0.381958	
-0.383179	
-0.38208	
-0.384155	
-0.382751	
-0.383057	
-0.381836	
-0.383728	
-0.384033	
-0.384583	
-0.384216	
-0.383606	
-0.384216	
-0.38385	
-0.384644	
-0.383911	
-0.383606	
-0.382263	
-0.383545	
-0.383179	
-0.383301	
-0.383118	
-0.38385	
-0.383362	
-0.383179	
-0.384277	
-0.383118	
-0.382385	
-0.382141	
-0.383362	
-0.382751	
-0.383667	
-0.381775	
-0.382813	
-0.382324	
-0.38446	
-0.382935	
-0.383179	
-0.381958	
-0.382019	
-0.383301	
-0.383301	
-0.383362	
-0.382263	
-0.383545	
-0.382874	
-0.384827	
-0.384216	
-0.384033	
-0.382141	
-0.384827	
-0.384827	
-0.384766	
-0.384583	
-0.384827	
-0.384521	
-0.385132	
-0.385498	
-0.384033	
-0.383728	
-0.383972	
-0.384399	
-0.383667	
-0.384521	
-0.383667	
-0.383911	
-0.383057	
-0.385132	
-0.384338	
-0.384338	
-0.383667	
-0.38385	
-0.386169	
-0.385803	
-0.38623	
-0.384949	
-0.386414	
-0.385559	
-0.387939	
-0.386719	
-0.38678	
-0.384583	
-0.387268	
-0.387329	
-0.38739	
-0.387024	
-0.386841	
-0.387085	
-0.387512	
-0.387695	
-0.387573	
-0.387024	
-0.386169	
-0.386475	
-0.386475	
-0.386658	
-0.385559	
-0.385315	
-0.384827	
-0.385559	
-0.384705	
-0.384338	
-0.383545	
-0.382874	
-0.384766	
-0.384155	
-0.384521	
-0.382568	
-0.383789	
-0.382996	
-0.385498	
-0.383301	
-0.382996	
-0.38208	
-0.382874	
-0.38324	
-0.383484	
-0.38385	
-0.382019	
-0.38269	
-0.382751	
-0.383545	
-0.383423	
-0.382874	
-0.382263	
-0.383118	
-0.383362	
-0.383484	
-0.383301	
-0.383362	
-0.383301	
-0.384338	
-0.385132	
-0.38446	
-0.383362	
-0.38324	
-0.385071	
-0.385132	
-0.385925	
-0.385559	
-0.385986	
-0.385864	
-0.388	
-0.385986	
-0.385864	
-0.384888	
-0.386414	
-0.386841	
-0.386719	
-0.38739	
-0.38623	
-0.387268	
-0.38623	
-0.388123	
-0.386169	
-0.386353	
-0.384644	
-0.38678	
-0.386597	
-0.386414	
-0.385803	
-0.385803	
-0.38562	
-0.38623	
-0.386292	
-0.384888	
-0.379517	
-0.377869	
-0.379089	
-0.378601	
-0.379639	
-0.378662	
-0.385376	
-0.38562	
-0.38739	
-0.385986	
-0.385986	
-0.385132	
-0.384521	
-0.386658	
-0.38562	
-0.386597	
-0.385193	
-0.386292	
-0.385864	
-0.387573	
-0.385498	
-0.385681	
-0.384155	
-0.38623	
-0.386536	
-0.386353	
-0.386353	
-0.386108	
-0.386108	
-0.386353	
-0.387878	
-0.386719	
-0.386047	
-0.385376	
-0.386353	
-0.386047	
-0.387146	
-0.385864	
-0.385498	
-0.385742	
-0.386658	
-0.386719	
-0.386047	
-0.385437	
-0.384949	
-0.386902	
-0.386719	
-0.387024	
-0.385925	
-0.387207	
-0.387024	
-0.389099	
-0.387573	
-0.387817	
-0.386292	
-0.388062	
-0.389038	
-0.388367	
-0.389038	
-0.387695	
-0.388611	
-0.388123	
-0.389282	
-0.387939	
-0.386902	
-0.385376	
-0.386658	
-0.386292	
-0.385864	
-0.38562	
-0.385498	
-0.385437	
-0.385925	
-0.385864	
-0.385376	
-0.38446	
-0.383667	
-0.385864	
-0.385437	
-0.386108	
-0.385498	
-0.386353	
-0.386353	
-0.388977	
-0.387878	
-0.388	
-0.387512	
-0.388855	
-0.389404	
-0.389587	
-0.390259	
-0.389832	
-0.391174	
-0.391235	
-0.393127	
-0.392456	
-0.393188	
-0.3927	
-0.395447	
-0.396057	
-0.397583	
-0.397949	
-0.399475	
-0.400269	
-0.401978	
-0.403259	
-0.403198	
-0.404236	
-0.404419	
-0.406982	
-0.406189	
-0.40802	
-0.407104	
-0.40918	
-0.409424	
-0.412903	
-0.412659	
-0.413452	
-0.411804	
-0.415955	
-0.416504	
-0.418457	
-0.41864	
-0.420166	
-0.421509	
-0.423401	
-0.422974	
-0.42395	
-0.424988	
-0.427673	
-0.429138	
-0.430786	
-0.431641	
-0.433411	
-0.434814	
-0.437256	
-0.438782	
-0.441772	
-0.443787	
-0.446106	
-0.448425	
-0.452209	
-0.455566	
-0.45874	
-0.46228	
-0.465393	
-0.469849	
-0.470642	
-0.472656	
-0.473511	
-0.476746	
-0.478577	
-0.480042	
-0.480652	
-0.48053	
-0.480835	
-0.483521	
-0.483887	
-0.483948	
-0.484131	
-0.485474	
-0.485474	
-0.485657	
-0.484253	
-0.484131	
-0.483765	
-0.484619	
-0.48291	
-0.482422	
-0.481934	
-0.481995	
-0.481445	
-0.480957	
-0.480835	
-0.480591	
-0.479614	
-0.47937	
-0.481445	
-0.479614	
-0.47937	
-0.476563	
-0.47937	
-0.478577	
-0.47821	
-0.477295	
-0.477173	
-0.476624	
-0.477295	
-0.475952	
-0.474426	
-0.473633	
-0.472473	
-0.4729	
-0.472046	
-0.47168	
-0.46875	
-0.467957	
-0.465393	
-0.465942	
-0.462341	
-0.459534	
-0.457092	
-0.456238	
-0.453674	
-0.451416	
-0.449219	
-0.446472	
-0.443787	
-0.442078	
-0.440063	
-0.43634	
-0.433777	
-0.429504	
-0.429382	
-0.42572	
-0.423157	
-0.419434	
-0.416382	
-0.412903	
-0.410278	
-0.40625	
-0.402039	
-0.397949	
-0.393738	
-0.39209	
-0.387573	
-0.384827	
-0.380432	
-0.378113	
-0.375854	
-0.373718	
-0.370728	
-0.368347	
-0.365112	
-0.36261	
-0.362061	
-0.359619	
-0.357727	
-0.354797	
-0.353943	
-0.351013	
-0.352173	
-0.349976	
-0.348572	
-0.345642	
-0.348389	
-0.347961	
-0.3479	
-0.34729	
-0.348083	
-0.348328	
-0.349304	
-0.350098	
-0.349976	
-0.349976	
-0.35022	
-0.351501	
-0.352539	
-0.354187	
-0.354675	
-0.35614	
-0.355469	
-0.359375	
-0.358643	
-0.359375	
-0.358154	
-0.362061	
-0.361816	
-0.36261	
-0.36261	
-0.363953	
-0.364441	
-0.365417	
-0.365784	
-0.366089	
-0.365601	
-0.367371	
-0.367249	
-0.367737	
-0.36792	
-0.369019	
-0.368713	
-0.369568	
-0.370911	
-0.370178	
-0.369873	
-0.370056	
-0.371643	
-0.371948	
-0.37207	
-0.371826	
-0.372192	
-0.372253	
-0.372681	
-0.371765	
-0.371521	
-0.371826	
-0.371826	
-0.371399	
-0.370789	
-0.370972	
-0.3703	
-0.370239	
-0.370178	
-0.368652	
-0.367432	
-0.365845	
-0.367126	
-0.367065	
-0.367188	
-0.365417	
-0.365845	
-0.364502	
-0.367126	
-0.365234	
-0.365112	
-0.364075	
-0.365784	
-0.36554	
-0.365723	
-0.36554	
-0.366394	
-0.366211	
-0.366821	
-0.367432	
-0.367737	
-0.367432	
-0.368591	
-0.369263	
-0.369812	
-0.370483	
-0.370422	
-0.3703	
-0.370056	
-0.373352	
-0.371826	
-0.372192	
-0.371765	
-0.372986	
-0.372986	
-0.373962	
-0.37262	
-0.373779	
-0.373596	
-0.374573	
-0.373779	
-0.374634	
-0.374084	
-0.375122	
-0.37439	
-0.374939	
-0.373352	
-0.375183	
-0.375183	
-0.376038	
-0.376892	
-0.375244	
-0.374268	
-0.37384	
-0.375366	
-0.37561	
-0.375	
-0.375671	
-0.375305	
-0.37561	
-0.376465	
-0.376038	
-0.375549	
-0.375122	
-0.376038	
-0.376099	
-0.376221	
-0.375916	
-0.376221	
-0.37561	
-0.377197	
-0.376038	
-0.37616	
-0.375305	
-0.376465	
-0.376343	
-0.376831	
-0.375427	
-0.375854	
-0.375977	
-0.376526	
-0.37677	
-0.375977	
-0.375793	
-0.374573	
-0.376587	
-0.375977	
-0.376404	
-0.375732	
-0.376831	
-0.375793	
-0.379883	
-0.378296	
-0.378845	
-0.378967	
-0.380005	
-0.380371	
-0.380737	
-0.380737	
-0.380676	
-0.380798	
-0.380249	
-0.382141	
-0.380859	
-0.380615	
-0.379333	
-0.381653	
-0.381287	
-0.380676	
-0.380371	
-0.379578	
-0.379211	
-0.379333	
-0.379211	
-0.378235	
-0.377441	
-0.377014	
-0.378845	
-0.377686	
-0.378296	
-0.377075	
-0.377747	
-0.377563	
-0.379822	
-0.378906	
-0.378235	
-0.377747	
-0.377991	
-0.379639	
-0.379272	
-0.379578	
-0.378418	
-0.379456	
-0.37915	
-0.380676	
-0.379761	
-0.38031	
-0.379211	
-0.381714	
-0.382629	
-0.382202	
-0.382019	
-0.381897	
-0.382568	
-0.383484	
-0.384277	
-0.382813	
-0.382935	
-0.383423	
-0.384399	
-0.384521	
-0.385071	
-0.384705	
-0.384827	
-0.385071	
-0.386414	
-0.385132	
-0.385376	
-0.385559	
-0.386047	
-0.386963	
-0.386169	
-0.386963	
-0.385315	
-0.386536	
-0.38623	
-0.388367	
-0.386353	
-0.386108	
-0.383728	
-0.385559	
-0.38501	
-0.385071	
-0.384827	
-0.384277	
-0.383728	
-0.383545	
-0.384277	
-0.383118	
-0.38208	
-0.381226	
-0.382507	
-0.381592	
-0.382141	
-0.380859	
-0.381409	
-0.381531	
-0.382813	
-0.380981	
-0.380798	
-0.380432	
-0.380798	
-0.381775	
-0.381409	
-0.382202	
-0.38031	
-0.382263	
-0.382324	
-0.384094	
-0.382751	
-0.383301	
-0.381287	
-0.384216	
-0.38446	
-0.384399	
-0.384583	
-0.38446	
-0.384338	
-0.384399	
-0.385376	
-0.384888	
-0.384705	
-0.383362	
-0.385193	
-0.384155	
-0.384521	
-0.383972	
-0.383972	
-0.383728	
-0.385193	
-0.383972	
-0.383301	
-0.382446	
-0.383301	
-0.382996	
-0.383118	
-0.383728	
-0.382935	
-0.382019	
-0.382019	
-0.38446	
-0.382568	
-0.382324	
-0.380737	
-0.383362	
-0.381958	
-0.382568	
-0.382385	
-0.382385	
-0.382629	
-0.382629	
-0.383484	
-0.383484	
-0.383179	
-0.383118	
-0.384338	
-0.383972	
-0.384216	
-0.383545	
-0.384155	
-0.384521	
-0.385193	
-0.384094	
-0.38385	
-0.384338	
-0.38446	
-0.384155	
-0.384094	
-0.384949	
-0.384155	
-0.383911	
-0.38446	
-0.385193	
-0.383972	
-0.383972	
-0.384521	
-0.386169	
-0.385986	
-0.386475	
-0.387085	
-0.387085	
-0.387695	
-0.38678	
-0.388672	
-0.387268	
-0.388245	
-0.38623	
-0.387878	
-0.388489	
-0.388794	
-0.388489	
-0.388489	
-0.388855	
-0.388733	
-0.389282	
-0.387939	
-0.388916	
-0.389282	
-0.388306	
-0.388	
-0.387329	
-0.387512	
-0.38739	
-0.386658	
-0.387146	
-0.385986	
-0.385986	
-0.386108	
-0.385559	
-0.386047	
-0.385742	
-0.386597	
-0.385559	
-0.386108	
-0.385254	
-0.386597	
-0.384216	
-0.385254	
-0.383606	
-0.384949	
-0.385132	
-0.384888	
-0.38562	
-0.385376	
-0.384705	
-0.384521	
-0.385254	
-0.384766	
-0.385437	
-0.384033	
-0.385498	
-0.383667	
-0.385742	
-0.385742	
-0.386047	
-0.384949	
-0.385559	
-0.384766	
-0.385864	
-0.385315	
-0.385681	
-0.386108	
-0.387207	
-0.387451	
-0.387207	
-0.387085	
-0.386963	
-0.388672	
-0.387085	
-0.387939	
-0.386841	
-0.387695	
-0.386963	
-0.387451	
-0.388123	
-0.388916	
-0.387878	
-0.38739	
-0.388367	
-0.387695	
-0.388123	
-0.386597	
-0.387512	
-0.386536	
-0.387634	
-0.386902	
-0.386658	
-0.38678	
-0.387024	
-0.386597	
-0.385925	
-0.385986	
-0.386047	
-0.385742	
-0.385437	
-0.385986	
-0.386169	
-0.385864	
-0.385864	
-0.386475	
-0.386047	
-0.386414	
-0.385437	
-0.385986	
-0.385681	
-0.385986	
-0.388184	
-0.386414	
-0.386414	
-0.385437	
-0.388123	
-0.386414	
-0.386963	
-0.385193	
-0.386353	
-0.386597	
-0.387573	
-0.387512	
-0.386658	
-0.38678	
-0.386719	
-0.387878	
-0.387512	
-0.387329	
-0.385681	
-0.38678	
-0.38562	
-0.387329	
-0.387085	
-0.386414	
-0.38562	
-0.387146	
-0.386841	
-0.386841	
-0.385803	
-0.386841	
-0.38678	
-0.387207	
-0.387878	
-0.386963	
-0.386658	
-0.387146	
-0.38916	
-0.387207	
-0.388123	
-0.386475	
-0.387939	
-0.387451	
-0.388855	
-0.388367	
-0.388123	
-0.386963	
-0.386658	
-0.388916	
-0.387268	
-0.387634	
-0.383972	
-0.386047	
-0.384216	
-0.385376	
-0.384216	
-0.384583	
-0.383545	
-0.384705	
-0.384033	
-0.384277	
-0.383728	
-0.383179	
-0.383057	
-0.384521	
-0.384766	
-0.38385	
-0.38446	
-0.384888	
-0.386353	
-0.385986	
-0.386597	
-0.386536	
-0.386841	
-0.386536	
-0.387756	
-0.387695	
-0.387329	
-0.387085	
-0.38678	
-0.389465	
-0.388	
-0.388611	
-0.386841	
-0.388062	
-0.38678	
-0.388367	
-0.387756	
-0.387878	
-0.386414	
-0.387329	
-0.388123	
-0.387939	
-0.387085	
-0.385071	
-0.386414	
-0.38623	
-0.386169	
-0.385681	
-0.385315	
-0.384949	
-0.385315	
-0.385071	
-0.385498	
-0.384399	
-0.384766	
-0.384827	
-0.385498	
-0.385437	
-0.384216	
-0.384033	
-0.383545	
-0.384888	
-0.38385	
-0.384216	
-0.38324	
-0.382629	
-0.382629	
-0.383972	
-0.382813	
-0.382385	
-0.381531	
-0.38208	
-0.383423	
-0.383362	
-0.383484	
-0.381348	
-0.383118	
-0.382629	
-0.383789	
-0.383179	
-0.383423	
-0.384033	
-0.385132	
-0.384521	
-0.384644	
-0.384033	
-0.384705	
-0.385132	
-0.385986	
-0.386169	
-0.385559	
-0.385071	
-0.385437	
-0.386719	
-0.386108	
-0.386658	
-0.385498	
-0.386169	
-0.38623	
-0.387573	
-0.386841	
-0.386475	
-0.384827	
-0.384766	
-0.387573	
-0.386414	
-0.386658	
-0.38385	
-0.385742	
-0.384766	
-0.385681	
-0.384644	
-0.38446	
-0.383789	
-0.384766	
-0.384277	
-0.384277	
-0.383789	
-0.38385	
-0.383911	
-0.38446	
-0.384949	
-0.384949	
-0.38446	
-0.38501	
-0.385559	
-0.385071	
-0.385315	
-0.384644	
-0.384766	
-0.385132	
-0.385925	
-0.385803	
-0.384888	
-0.384644	
-0.384583	
-0.386536	
-0.385559	
-0.38562	
-0.383362	
-0.385193	
-0.384338	
-0.385315	
-0.385193	
-0.384338	
-0.383179	
-0.383911	
-0.384277	
-0.383911	
-0.383606	
-0.381958	
-0.382813	
-0.382141	
-0.38324	
-0.382751	
-0.382507	
-0.382141	
-0.383423	
-0.383301	
-0.383362	
-0.382751	
-0.38324	
-0.383118	
-0.383789	
-0.38446	
-0.383789	
-0.383423	
-0.38324	
-0.385864	
-0.383789	
-0.384644	
-0.382751	
-0.383179	
-0.382568	
-0.383423	
-0.382385	
-0.381409	
-0.380676	
-0.38031	
-0.381714	
-0.380493	
-0.380432	
-0.378662	
-0.380005	
-0.379333	
-0.380188	
-0.3797	
-0.379272	
-0.378662	
-0.379456	
-0.379211	
-0.379517	
-0.378601	
-0.37915	
-0.380005	
-0.380371	
-0.38092	
-0.381104	
-0.380798	
-0.381226	
-0.382874	
-0.381592	
-0.382141	
-0.381409	
-0.381653	
-0.381897	
-0.383362	
-0.382935	
-0.382507	
-0.382568	
-0.381958	
-0.383362	
-0.382446	
-0.383362	
-0.380554	
-0.382385	
-0.381714	
-0.383606	
-0.383057	
-0.38269	
-0.381531	
-0.382935	
-0.383057	
-0.383301	
-0.382568	
-0.382996	
-0.382568	
-0.381836	
-0.38269	
-0.382263	
-0.382141	
-0.382568	
-0.384583	
-0.382874	
-0.383057	
-0.381836	
-0.381592	
-0.381714	
-0.382568	
-0.382385	
-0.380798	
-0.379761	
-0.379944	
-0.381714	
-0.380005	
-0.38031	
-0.378357	
-0.379639	
-0.379333	
-0.380676	
-0.379089	
-0.378906	
-0.37793	
-0.379517	
-0.379395	
-0.379517	
-0.379822	
-0.379089	
-0.37915	
-0.378357	
-0.379822	
-0.380127	
-0.3797	
-0.380188	
-0.380798	
-0.38031	
-0.380554	
-0.380005	
-0.380615	
-0.380798	
-0.381592	
-0.381287	
-0.380737	
-0.380676	
-0.380371	
-0.382324	
-0.380859	
-0.381348	
-0.380127	
-0.380554	
-0.380066	
-0.381409	
-0.38092	
-0.380493	
-0.37854	
-0.378967	
-0.38092	
-0.380127	
-0.380432	
-0.378052	
-0.379883	
-0.37915	
-0.38031	
-0.379333	
-0.380066	
-0.378357	
-0.379761	
-0.379517	
-0.379211	
-0.378845	
-0.379456	
-0.380005	
-0.380066	
-0.380737	
-0.379517	
-0.379639	
-0.379822	
-0.381165	
-0.379883	
-0.380249	
-0.379211	
-0.379944	
-0.379639	
-0.38092	
-0.380676	
-0.379639	
-0.379333	
-0.379517	
-0.380859	
-0.378967	
-0.380066	
-0.377625	
-0.378662	
-0.37793	
-0.379761	
-0.378845	
-0.37854	
-0.377441	
-0.378967	
-0.379272	
-0.379211	
-0.37915	
-0.378967	
-0.380127	
-0.380798	
-0.381592	
-0.381165	
-0.381165	
-0.381409	
-0.382446	
-0.382141	
-0.382446	
-0.381836	
-0.38208	
-0.381958	
-0.382263	
-0.382629	
-0.382141	
-0.381531	
-0.381042	
-0.382385	
-0.380859	
-0.381042	
-0.378601	
-0.379456	
-0.378906	
-0.379883	
-0.378662	
-0.378418	
-0.377502	
-0.377075	
-0.378235	
-0.377625	
-0.377686	
-0.375488	
-0.377075	
-0.376831	
-0.377869	
-0.378174	
-0.377686	
-0.377319	
-0.378174	
-0.37793	
-0.377686	
-0.377319	
-0.37793	
-0.378052	
-0.37915	
-0.379639	
-0.379639	
-0.379883	
-0.380066	
-0.381226	
-0.380493	
-0.38031	
-0.379028	
-0.38031	
-0.380432	
-0.38147	
-0.381409	
-0.381104	
-0.380981	
-0.380493	
-0.382141	
-0.381836	
-0.381897	
-0.380493	
-0.381897	
-0.38147	
-0.383484	
-0.382202	
-0.382629	
-0.381104	
-0.38324	
-0.382385	
-0.38269	
-0.38208	
-0.382813	
-0.382996	
-0.382751	
-0.38269	
-0.381958	
-0.381592	
-0.382019	
-0.383179	
-0.381287	
-0.381714	
-0.380188	
-0.380554	
-0.380127	
-0.380432	
-0.380249	
-0.380127	
-0.379761	
-0.379089	
-0.380676	
-0.379578	
-0.379822	
-0.37738	
-0.378662	
-0.377441	
-0.379639	
-0.379089	
-0.378967	
-0.37793	
-0.379333	
-0.379272	
-0.379395	
-0.378967	
-0.378845	
-0.379272	
-0.379639	
-0.381042	
-0.380554	
-0.380188	
-0.38031	
-0.381714	
-0.38092	
-0.381226	
-0.379944	
-0.380676	
-0.380554	
-0.381409	
-0.380981	
-0.379395	
-0.379883	
-0.380188	
-0.381653	
-0.379639	
-0.380676	
-0.378113	
-0.380005	
-0.379028	
-0.380981	
-0.379822	
-0.379028	
-0.378784	
-0.378967	
-0.379578	
-0.379517	
-0.3797	
-0.378357	
-0.379639	
-0.378723	
-0.38031	
-0.379333	
-0.379639	
-0.379028	
-0.380737	
-0.38031	
-0.380798	
-0.380066	
-0.381165	
-0.381042	
-0.381531	
-0.382446	
-0.381226	
-0.381531	
-0.381653	
-0.38269	
-0.381592	
-0.382263	
-0.379822	
-0.381287	
-0.380798	
-0.381958	
-0.381714	
-0.380737	
-0.380066	
-0.380493	
-0.381348	
-0.380676	
-0.381226	
-0.378723	
-0.380798	
-0.38092	
-0.381958	
-0.382141	
-0.382629	
-0.38269	
-0.383911	
-0.383667	
-0.384033	
-0.383301	
-0.384033	
-0.38385	
-0.384399	
-0.385132	
-0.384338	
-0.384338	
-0.38446	
-0.385681	
-0.384583	
-0.384888	
-0.383667	
-0.384827	
-0.384766	
-0.385437	
-0.384949	
-0.384644	
-0.383362	
-0.382568	
-0.384277	
-0.382874	
-0.38269	
-0.381042	
-0.381714	
-0.38092	
-0.382141	
-0.381531	
-0.381592	
-0.380127	
-0.381714	
-0.381165	
-0.381348	
-0.380737	
-0.38031	
-0.380737	
-0.380798	
-0.38147	
-0.38031	
-0.38031	
-0.38092	
-0.382507	
-0.380615	
-0.380493	
-0.380249	
-0.380859	
-0.380554	
-0.38208	
-0.381775	
-0.380737	
-0.380493	
-0.380554	
-0.382385	
-0.381287	
-0.382019	
-0.380127	
-0.381714	
-0.381897	
-0.382568	
-0.382202	
-0.382202	
-0.382263	
-0.382935	
-0.383545	
-0.383728	
-0.384277	
-0.382996	
-0.384216	
-0.383057	
-0.384338	
-0.384705	
-0.385132	
-0.384583	
-0.385437	
-0.384705	
-0.385376	
-0.38446	
-0.38501	
-0.384399	
-0.385925	
-0.386108	
-0.384766	
-0.384155	
-0.383911	
-0.386047	
-0.383972	
-0.384644	
-0.383057	
-0.383972	
-0.383667	
-0.384155	
-0.384277	
-0.383057	
-0.382324	
-0.38208	
-0.383911	
-0.383667	
-0.384033	
-0.381958	
-0.383728	
-0.383057	
-0.38385	
-0.383606	
-0.383728	
-0.383667	
-0.384216	
-0.38446	
-0.38446	
-0.384033	
-0.384094	
-0.384216	
-0.384338	
-0.384583	
-0.384033	
-0.383972	
-0.384216	
-0.386414	
-0.384583	
-0.38501	
-0.384338	
-0.384766	
-0.38446	
-0.385376	
-0.385376	
-0.38446	
-0.383423	
-0.383972	
-0.384827	
-0.384338	
-0.385193	
-0.381836	
-0.384094	
-0.383728	
-0.384277	
-0.38446	
-0.384094	
-0.384277	
-0.384216	
-0.384644	
-0.385376	
-0.385071	
-0.384155	
-0.38501	
-0.384644	
-0.386047	
-0.385254	
-0.385376	
-0.385498	
-0.386475	
-0.386108	
-0.385803	
-0.385132	
-0.385315	
-0.385315	
-0.385498	
-0.384766	
-0.384033	
-0.382813	
-0.382202	
-0.384338	
-0.38269	
-0.383606	
-0.381165	
-0.382629	
-0.38208	
-0.382751	
-0.382629	
-0.382202	
-0.381714	
-0.382202	
-0.383728	
-0.383606	
-0.384094	
-0.382996	
-0.385498	
-0.385376	
-0.385681	
-0.385925	
-0.385925	
-0.386169	
-0.387329	
-0.38678	
-0.387329	
-0.385925	
-0.386597	
-0.386963	
-0.387756	
-0.388	
-0.386658	
-0.386719	
-0.386841	
-0.388428	
-0.387268	
-0.388123	
-0.386719	
-0.386902	
-0.386475	
-0.387512	
-0.386597	
-0.385803	
-0.385132	
-0.384705	
-0.386108	
-0.385071	
-0.385681	
-0.382874	
-0.384949	
-0.383728	
-0.385071	
-0.384399	
-0.38446	
-0.383789	
-0.38501	
-0.38446	
-0.384399	
-0.383667	
-0.383667	
-0.38324	
-0.384033	
-0.384399	
-0.383423	
-0.382874	
-0.382996	
-0.384033	
-0.38269	
-0.382813	
-0.383057	
-0.383362	
-0.38269	
-0.384216	
-0.38446	
-0.383789	
-0.383057	
-0.382202	
-0.38501	
-0.384338	
-0.385559	
-0.383301	
-0.384827	
-0.384583	
-0.386292	
-0.385437	
-0.38501	
-0.384521	
-0.38623	
-0.386047	
-0.38623	
-0.386597	
-0.38623	
-0.386536	
-0.386841	
-0.387817	
-0.386902	
-0.386841	
-0.387573	
-0.388062	
-0.387451	
-0.38739	
-0.38678	
-0.387207	
-0.38739	
-0.387573	
-0.387146	
-0.386475	
-0.38623	
-0.385437	
-0.387695	
-0.385742	
-0.386597	
-0.384644	
-0.385498	
-0.384827	
-0.386719	
-0.386169	
-0.385986	
-0.384827	
-0.386719	
-0.387207	
-0.386414	
-0.386902	
-0.384827	
-0.386536	
-0.385986	
-0.386902	
-0.386719	
-0.387085	
-0.386902	
-0.387329	
-0.386719	
-0.387146	
-0.386902	
-0.386658	
-0.386719	
-0.387634	
-0.387695	
-0.386902	
-0.387146	
-0.386169	
-0.388123	
-0.386719	
-0.387329	
-0.385864	
-0.386169	
-0.385864	
-0.386719	
-0.385559	
-0.385254	
-0.384583	
-0.384155	
-0.386475	
-0.385559	
-0.385925	
-0.383423	
-0.385559	
-0.384705	
-0.386292	
-0.385803	
-0.386108	
-0.385071	
-0.386841	
-0.386719	
-0.38678	
-0.386047	
-0.385559	
-0.386414	
-0.386292	
-0.387024	
-0.385742	
-0.385254	
-0.384277	
-0.385376	
-0.384216	
-0.384399	
-0.383179	
-0.383545	
-0.383362	
-0.384216	
-0.384155	
-0.38324	
-0.382507	
-0.382324	
-0.384277	
-0.383118	
-0.383545	
-0.381287	
-0.382446	
-0.381592	
-0.383545	
-0.382751	
-0.383301	
-0.382324	
-0.384583	
-0.384766	
-0.384521	
-0.384766	
-0.384399	
-0.385193	
-0.385498	
-0.386475	
-0.386536	
-0.386108	
-0.386108	
-0.387085	
-0.386475	
-0.38678	
-0.385986	
-0.386353	
-0.387146	
-0.387085	
-0.38739	
-0.386597	
-0.386536	
-0.386841	
-0.388367	
-0.386963	
-0.387878	
-0.385803	
-0.386658	
-0.386719	
-0.388306	
-0.387207	
-0.387451	
-0.386658	
-0.386902	
-0.387695	
-0.387085	
-0.387695	
-0.386108	
-0.387329	
-0.387085	
-0.387146	
-0.386719	
-0.386292	
-0.385559	
-0.386169	
-0.385376	
-0.385193	
-0.385498	
-0.384583	
-0.383972	
-0.384888	
-0.385742	
-0.38446	
-0.384277	
-0.38385	
-0.385193	
-0.384277	
-0.385071	
-0.38385	
-0.384094	
-0.383911	
-0.385498	
-0.384583	
-0.384155	
-0.384094	
-0.38385	
-0.38623	
-0.384949	
-0.385071	
-0.383423	
-0.384827	
-0.384155	
-0.386169	
-0.385681	
-0.385681	
-0.384277	
-0.386108	
-0.385742	
-0.385986	
-0.385437	
-0.385498	
-0.385132	
-0.38562	
-0.386597	
-0.385254	
-0.385071	
-0.385193	
-0.386963	
-0.384949	
-0.38501	
-0.384521	
-0.385498	
-0.385132	
-0.38562	
-0.385925	
-0.385254	
-0.384949	
-0.384155	
-0.386169	
-0.38501	
-0.385254	
-0.382813	
-0.384521	
-0.383789	
-0.386169	
-0.385498	
-0.384888	
-0.384277	
-0.385498	
-0.385437	
-0.385254	
-0.385498	
-0.384338	
-0.385437	
-0.384644	
-0.386169	
-0.385437	
-0.384766	
-0.384949	
-0.38623	
-0.385376	
-0.385437	
-0.385193	
-0.384888	
-0.384827	
-0.385803	
-0.385376	
-0.38446	
-0.384216	
-0.383484	
-0.38562	
-0.384033	
-0.384888	
-0.382629	
-0.383972	
-0.384216	
-0.386292	
-0.386658	
-0.385864	
-0.385986	
-0.386292	
-0.387512	
-0.387512	
-0.387634	
-0.386292	
-0.388062	
-0.38739	
-0.387634	
-0.387634	
-0.387512	
-0.388	
-0.388367	
-0.387512	
-0.38739	
-0.386841	
-0.386169	
-0.385864	
-0.386047	
-0.38562	
-0.384888	
-0.384155	
-0.384155	
-0.385742	
-0.383728	
-0.384094	
-0.383057	
-0.383606	
-0.383423	
-0.384644	
-0.384399	
-0.38324	
-0.382324	
-0.382385	
-0.384216	
-0.384094	
-0.384155	
-0.382263	
-0.383606	
-0.382996	
-0.384033	
-0.384277	
-0.384277	
-0.384338	
-0.385742	
-0.385498	
-0.385742	
-0.385864	
-0.386169	
-0.386292	
-0.385925	
-0.386658	
-0.385986	
-0.385681	
-0.386414	
-0.388672	
-0.386963	
-0.387512	
-0.386597	
-0.387817	
-0.387085	
-0.388	
-0.388428	
-0.388062	
-0.387573	
-0.388062	
-0.389404	
-0.388367	
-0.38916	
-0.387329	
-0.388306	
	
