E:\DOCUMENTS AND SETTINGS\JPOTAS\MEUS DOCUMENTOS\UFRJ\RSCI-BM 12 WK SERIES\070727-RSCI-BM-05\RSCI-BM-05-REMG\070727-RSCI-BM-05-REMG-0000.ACQ
0.025000 msec/sample
1 channel
Analog input
Volts
CH1	
2000	
-0.38562	
-0.384155	
-0.385437	
-0.382813	
-0.385254	
-0.384583	
-0.385864	
-0.38562	
-0.38562	
-0.385498	
-0.386169	
-0.385315	
-0.385925	
-0.385498	
-0.386169	
-0.385315	
-0.385925	
-0.386414	
-0.385254	
-0.386108	
-0.385559	
-0.386963	
-0.385315	
-0.385254	
-0.384155	
-0.385254	
-0.385071	
-0.385437	
-0.385376	
-0.385315	
-0.38562	
-0.383911	
-0.385803	
-0.383484	
-0.385498	
-0.381775	
-0.383667	
-0.381836	
-0.382813	
-0.383362	
-0.382813	
-0.382141	
-0.382507	
-0.382141	
-0.382385	
-0.381714	
-0.381592	
-0.382141	
-0.38208	
-0.382263	
-0.381592	
-0.383118	
-0.382263	
-0.38324	
-0.38208	
-0.382935	
-0.381165	
-0.382263	
-0.38208	
-0.382385	
-0.383789	
-0.383179	
-0.383667	
-0.382324	
-0.384583	
-0.381958	
-0.383362	
-0.381348	
-0.383423	
-0.382446	
-0.382813	
-0.382996	
-0.382996	
-0.382568	
-0.382019	
-0.382385	
-0.382568	
-0.38269	
-0.381897	
-0.382751	
-0.382019	
-0.383423	
-0.38269	
-0.383118	
-0.38208	
-0.38385	
-0.382874	
-0.383545	
-0.383057	
-0.383301	
-0.383118	
-0.383728	
-0.384766	
-0.38385	
-0.384766	
-0.383911	
-0.385925	
-0.383484	
-0.384888	
-0.383667	
-0.384521	
-0.384155	
-0.385132	
-0.385498	
-0.385315	
-0.385315	
-0.384094	
-0.385315	
-0.384216	
-0.385376	
-0.382629	
-0.38385	
-0.383179	
-0.384338	
-0.383423	
-0.383606	
-0.38324	
-0.383057	
-0.382996	
-0.382935	
-0.382202	
-0.382263	
-0.382263	
-0.38208	
-0.38208	
-0.381531	
-0.382141	
-0.380981	
-0.381653	
-0.379883	
-0.38147	
-0.379395	
-0.380249	
-0.379639	
-0.380249	
-0.381287	
-0.380249	
-0.381165	
-0.380066	
-0.382202	
-0.380005	
-0.381714	
-0.380371	
-0.382202	
-0.381531	
-0.38324	
-0.384033	
-0.38446	
-0.384644	
-0.385864	
-0.386292	
-0.386414	
-0.386475	
-0.385681	
-0.386719	
-0.387146	
-0.388184	
-0.387512	
-0.388062	
-0.387878	
-0.388611	
-0.388062	
-0.388794	
-0.387817	
-0.388245	
-0.388733	
-0.388062	
-0.388367	
-0.388489	
-0.389099	
-0.387146	
-0.389221	
-0.386963	
-0.388367	
-0.385559	
-0.386536	
-0.385376	
-0.385986	
-0.385559	
-0.385864	
-0.385315	
-0.385254	
-0.385986	
-0.385132	
-0.385559	
-0.383362	
-0.384399	
-0.38446	
-0.385315	
-0.384705	
-0.384888	
-0.384155	
-0.385193	
-0.383545	
-0.383972	
-0.383301	
-0.38324	
-0.376526	
-0.37738	
-0.378784	
-0.378296	
-0.37915	
-0.378296	
-0.387024	
-0.384705	
-0.385132	
-0.383667	
-0.384521	
-0.383667	
-0.384705	
-0.38446	
-0.384521	
-0.385071	
-0.384949	
-0.386719	
-0.385498	
-0.386658	
-0.384033	
-0.385986	
-0.385254	
-0.38739	
-0.387207	
-0.387085	
-0.386841	
-0.387573	
-0.387268	
-0.387207	
-0.386719	
-0.387268	
-0.387146	
-0.387085	
-0.387695	
-0.387085	
-0.387756	
-0.386475	
-0.38739	
-0.386414	
-0.387207	
-0.386047	
-0.385864	
-0.385681	
-0.385742	
-0.38678	
-0.386108	
-0.386597	
-0.384949	
-0.38739	
-0.38562	
-0.387451	
-0.384399	
-0.386902	
-0.38678	
-0.387329	
-0.387207	
-0.387756	
-0.387512	
-0.388062	
-0.387085	
-0.387573	
-0.387512	
-0.387329	
-0.387878	
-0.387573	
-0.388123	
-0.38739	
-0.387939	
-0.386597	
-0.387634	
-0.38562	
-0.386902	
-0.38562	
-0.385925	
-0.385864	
-0.385315	
-0.385925	
-0.385559	
-0.385376	
-0.383972	
-0.38623	
-0.383057	
-0.384155	
-0.382446	
-0.383728	
-0.382996	
-0.384521	
-0.384766	
-0.385071	
-0.38501	
-0.386047	
-0.386108	
-0.386597	
-0.387817	
-0.387756	
-0.388611	
-0.389893	
-0.392456	
-0.392334	
-0.394653	
-0.395203	
-0.396912	
-0.397583	
-0.399963	
-0.400757	
-0.4021	
-0.403809	
-0.405457	
-0.407166	
-0.407837	
-0.408508	
-0.409363	
-0.410889	
-0.411621	
-0.412598	
-0.411499	
-0.414124	
-0.414124	
-0.415649	
-0.415344	
-0.416687	
-0.415833	
-0.417786	
-0.416077	
-0.416809	
-0.415161	
-0.415161	
-0.414551	
-0.415161	
-0.414795	
-0.414124	
-0.413879	
-0.413391	
-0.414185	
-0.41394	
-0.413696	
-0.41272	
-0.41449	
-0.415466	
-0.416992	
-0.417297	
-0.418762	
-0.41803	
-0.420593	
-0.419006	
-0.421143	
-0.420776	
-0.421509	
-0.421814	
-0.423767	
-0.423096	
-0.424316	
-0.42334	
-0.424805	
-0.425232	
-0.425781	
-0.425354	
-0.426147	
-0.425903	
-0.427307	
-0.427673	
-0.427734	
-0.428711	
-0.430115	
-0.431702	
-0.433472	
-0.4328	
-0.432556	
-0.432251	
-0.435913	
-0.437012	
-0.437683	
-0.438538	
-0.439697	
-0.4422	
-0.442749	
-0.44397	
-0.444519	
-0.445618	
-0.446472	
-0.447693	
-0.447266	
-0.447815	
-0.446716	
-0.447021	
-0.447327	
-0.448059	
-0.447205	
-0.44635	
-0.446411	
-0.446167	
-0.445679	
-0.44397	
-0.443604	
-0.440491	
-0.440918	
-0.437012	
-0.437012	
-0.433594	
-0.432922	
-0.43103	
-0.430481	
-0.428772	
-0.426758	
-0.425049	
-0.423401	
-0.421814	
-0.41925	
-0.417175	
-0.414001	
-0.414185	
-0.411987	
-0.410278	
-0.407837	
-0.406799	
-0.404114	
-0.401978	
-0.398315	
-0.396423	
-0.392456	
-0.389832	
-0.385986	
-0.383118	
-0.380554	
-0.375427	
-0.373535	
-0.368835	
-0.367676	
-0.363159	
-0.362061	
-0.357361	
-0.355469	
-0.3526	
-0.351379	
-0.349854	
-0.347717	
-0.346436	
-0.343262	
-0.342712	
-0.340332	
-0.339722	
-0.337036	
-0.338135	
-0.337341	
-0.337036	
-0.336853	
-0.33783	
-0.336914	
-0.33905	
-0.338989	
-0.340271	
-0.339539	
-0.34137	
-0.342529	
-0.343872	
-0.345337	
-0.346313	
-0.347717	
-0.347961	
-0.350586	
-0.349792	
-0.352478	
-0.351135	
-0.354492	
-0.354675	
-0.356384	
-0.356873	
-0.358276	
-0.357788	
-0.359375	
-0.358887	
-0.359863	
-0.359375	
-0.360352	
-0.360046	
-0.360291	
-0.360657	
-0.36084	
-0.359985	
-0.360168	
-0.360718	
-0.359924	
-0.358948	
-0.358521	
-0.358887	
-0.358276	
-0.359375	
-0.358398	
-0.358398	
-0.356445	
-0.359253	
-0.357361	
-0.357483	
-0.355652	
-0.356812	
-0.356445	
-0.356812	
-0.356567	
-0.356323	
-0.354736	
-0.35675	
-0.355042	
-0.354675	
-0.353088	
-0.354919	
-0.354492	
-0.354736	
-0.354187	
-0.355225	
-0.354492	
-0.35553	
-0.35437	
-0.355591	
-0.354553	
-0.355103	
-0.354553	
-0.355896	
-0.355774	
-0.356445	
-0.356445	
-0.357056	
-0.356812	
-0.358154	
-0.357727	
-0.357788	
-0.358887	
-0.359192	
-0.361206	
-0.36084	
-0.360962	
-0.361023	
-0.363403	
-0.361633	
-0.362671	
-0.362305	
-0.363037	
-0.362732	
-0.364136	
-0.364258	
-0.365356	
-0.364746	
-0.36499	
-0.365906	
-0.365967	
-0.36615	
-0.365417	
-0.367065	
-0.367126	
-0.367798	
-0.367188	
-0.366577	
-0.365295	
-0.367432	
-0.366882	
-0.366821	
-0.366272	
-0.366638	
-0.365356	
-0.366882	
-0.36676	
-0.366943	
-0.366455	
-0.366699	
-0.368042	
-0.366943	
-0.366943	
-0.366028	
-0.36676	
-0.366638	
-0.367371	
-0.368042	
-0.367188	
-0.367493	
-0.366638	
-0.368896	
-0.367981	
-0.367493	
-0.36676	
-0.367981	
-0.368591	
-0.368164	
-0.367798	
-0.366943	
-0.368225	
-0.368896	
-0.368896	
-0.368347	
-0.367798	
-0.367004	
-0.368774	
-0.36853	
-0.368713	
-0.367981	
-0.368286	
-0.368042	
-0.370605	
-0.369385	
-0.369568	
-0.368958	
-0.370239	
-0.370789	
-0.37146	
-0.371094	
-0.371216	
-0.371948	
-0.372314	
-0.373535	
-0.372437	
-0.372803	
-0.371643	
-0.373169	
-0.373596	
-0.374207	
-0.373474	
-0.373657	
-0.37384	
-0.375488	
-0.374756	
-0.374451	
-0.373535	
-0.372375	
-0.375	
-0.374023	
-0.374207	
-0.373169	
-0.373962	
-0.373352	
-0.374939	
-0.373657	
-0.373718	
-0.372253	
-0.373657	
-0.374084	
-0.374329	
-0.373291	
-0.37323	
-0.373352	
-0.37262	
-0.374268	
-0.372742	
-0.37207	
-0.370911	
-0.37207	
-0.372131	
-0.371826	
-0.371643	
-0.372314	
-0.371643	
-0.372559	
-0.373291	
-0.372437	
-0.372498	
-0.372314	
-0.374329	
-0.373657	
-0.374268	
-0.373718	
-0.374939	
-0.374817	
-0.376831	
-0.376587	
-0.37616	
-0.375671	
-0.377075	
-0.379456	
-0.37854	
-0.379211	
-0.378113	
-0.379333	
-0.378662	
-0.380981	
-0.380188	
-0.38031	
-0.379517	
-0.381104	
-0.380005	
-0.380737	
-0.380188	
-0.380432	
-0.38092	
-0.381958	
-0.38147	
-0.380554	
-0.380127	
-0.379883	
-0.38147	
-0.380554	
-0.381592	
-0.379944	
-0.380249	
-0.380615	
-0.380981	
-0.379883	
-0.378967	
-0.378967	
-0.378784	
-0.379883	
-0.380188	
-0.380615	
-0.379761	
-0.380432	
-0.379272	
-0.380798	
-0.379761	
-0.379761	
-0.378784	
-0.379395	
-0.379272	
-0.379761	
-0.379395	
-0.379395	
-0.379822	
-0.380066	
-0.380371	
-0.378235	
-0.378906	
-0.378357	
-0.379761	
-0.379883	
-0.380066	
-0.378967	
-0.379883	
-0.378967	
-0.379883	
-0.378662	
-0.378906	
-0.377441	
-0.378723	
-0.379333	
-0.379822	
-0.379639	
-0.378845	
-0.379883	
-0.378662	
-0.380676	
-0.379028	
-0.379395	
-0.379028	
-0.379822	
-0.379578	
-0.379883	
-0.379211	
-0.380005	
-0.379395	
-0.379822	
-0.379761	
-0.379883	
-0.379211	
-0.379028	
-0.380432	
-0.380188	
-0.380798	
-0.379639	
-0.380981	
-0.379883	
-0.381958	
-0.380188	
-0.381409	
-0.380615	
-0.381531	
-0.382629	
-0.382507	
-0.382629	
-0.380981	
-0.382507	
-0.381592	
-0.383972	
-0.382935	
-0.382996	
-0.381897	
-0.383728	
-0.383606	
-0.383972	
-0.38385	
-0.384338	
-0.38324	
-0.38385	
-0.383301	
-0.383362	
-0.382263	
-0.382629	
-0.383545	
-0.382751	
-0.383362	
-0.382813	
-0.382385	
-0.381836	
-0.382874	
-0.381775	
-0.381775	
-0.381287	
-0.38147	
-0.382568	
-0.381653	
-0.381165	
-0.380859	
-0.380554	
-0.380737	
-0.379822	
-0.380005	
-0.3797	
-0.3797	
-0.38031	
-0.38031	
-0.381287	
-0.38147	
-0.380798	
-0.380615	
-0.380615	
-0.381775	
-0.381897	
-0.381897	
-0.381409	
-0.383484	
-0.383789	
-0.384705	
-0.384277	
-0.385254	
-0.38623	
-0.386963	
-0.386963	
-0.385986	
-0.386536	
-0.387634	
-0.388306	
-0.389099	
-0.387939	
-0.387268	
-0.387024	
-0.388	
-0.388916	
-0.388916	
-0.388611	
-0.388611	
-0.389282	
-0.389099	
-0.389099	
-0.388184	
-0.388062	
-0.389465	
-0.388367	
-0.388428	
-0.387207	
-0.386902	
-0.385925	
-0.388184	
-0.387024	
-0.386963	
-0.385193	
-0.385925	
-0.385315	
-0.385498	
-0.385498	
-0.385132	
-0.38501	
-0.385925	
-0.386841	
-0.38562	
-0.385254	
-0.383789	
-0.38501	
-0.38385	
-0.384644	
-0.384033	
-0.383911	
-0.383789	
-0.384644	
-0.38385	
-0.383606	
-0.384094	
-0.384521	
-0.385254	
-0.384521	
-0.385254	
-0.38446	
-0.385315	
-0.384766	
-0.386658	
-0.385437	
-0.385925	
-0.384155	
-0.385864	
-0.385437	
-0.386719	
-0.387024	
-0.385864	
-0.387207	
-0.38678	
-0.387451	
-0.387695	
-0.388245	
-0.387268	
-0.387573	
-0.386719	
-0.388062	
-0.387512	
-0.387695	
-0.388489	
-0.388916	
-0.387817	
-0.387939	
-0.387817	
-0.388062	
-0.388855	
-0.388	
-0.388855	
-0.387329	
-0.387634	
-0.387329	
-0.387329	
-0.386658	
-0.387512	
-0.386414	
-0.387085	
-0.38678	
-0.386963	
-0.387939	
-0.385986	
-0.387695	
-0.385986	
-0.387878	
-0.386963	
-0.387146	
-0.386169	
-0.387451	
-0.386047	
-0.387146	
-0.38739	
-0.38739	
-0.386902	
-0.386963	
-0.386353	
-0.386719	
-0.386719	
-0.386108	
-0.386047	
-0.385498	
-0.385681	
-0.38501	
-0.385864	
-0.384644	
-0.385315	
-0.384338	
-0.38501	
-0.383911	
-0.384033	
-0.384277	
-0.383179	
-0.383911	
-0.383362	
-0.383423	
-0.382568	
-0.383789	
-0.382385	
-0.384521	
-0.382874	
-0.383728	
-0.384155	
-0.384033	
-0.384521	
-0.384094	
-0.384766	
-0.384216	
-0.385437	
-0.385193	
-0.385437	
-0.385071	
-0.386292	
-0.384949	
-0.387207	
-0.387573	
-0.388123	
-0.388245	
-0.389099	
-0.388855	
-0.389343	
-0.389343	
-0.389648	
-0.390503	
-0.389404	
-0.39032	
-0.389343	
-0.389954	
-0.389221	
-0.389526	
-0.388428	
-0.389709	
-0.38916	
-0.389038	
-0.389282	
-0.388855	
-0.387817	
-0.386475	
-0.387329	
-0.386353	
-0.386597	
-0.385315	
-0.386108	
-0.384155	
-0.384583	
-0.38324	
-0.384216	
-0.383911	
-0.383545	
-0.38324	
-0.38269	
-0.382324	
-0.382935	
-0.38208	
-0.382324	
-0.382629	
-0.382141	
-0.38269	
-0.382141	
-0.383057	
-0.381897	
-0.382385	
-0.38208	
-0.382996	
-0.382385	
-0.382629	
-0.38269	
-0.381836	
-0.382874	
-0.381714	
-0.382935	
-0.381226	
-0.383118	
-0.381897	
-0.383728	
-0.381531	
-0.38324	
-0.383118	
-0.383728	
-0.383545	
-0.382629	
-0.38324	
-0.383972	
-0.383728	
-0.384338	
-0.384949	
-0.38446	
-0.385498	
-0.384216	
-0.385193	
-0.384827	
-0.386597	
-0.385559	
-0.385803	
-0.385376	
-0.385193	
-0.384705	
-0.384766	
-0.385437	
-0.384949	
-0.385437	
-0.384521	
-0.384949	
-0.383911	
-0.385315	
-0.383911	
-0.384399	
-0.383118	
-0.383057	
-0.382568	
-0.382568	
-0.383484	
-0.382446	
-0.382629	
-0.381165	
-0.382507	
-0.381104	
-0.382446	
-0.381531	
-0.382446	
-0.381042	
-0.382385	
-0.382202	
-0.382446	
-0.382385	
-0.382996	
-0.382568	
-0.382385	
-0.382019	
-0.382629	
-0.38269	
-0.382263	
-0.382874	
-0.38208	
-0.382751	
-0.381775	
-0.381897	
-0.380798	
-0.381775	
-0.381226	
-0.380981	
-0.381714	
-0.381104	
-0.38147	
-0.379639	
-0.381165	
-0.379639	
-0.380676	
-0.378479	
-0.380249	
-0.378662	
-0.379333	
-0.378113	
-0.379089	
-0.379578	
-0.379639	
-0.379395	
-0.379089	
-0.379639	
-0.380005	
-0.380127	
-0.380188	
-0.381042	
-0.379883	
-0.381104	
-0.381104	
-0.381714	
-0.380981	
-0.38208	
-0.381409	
-0.382141	
-0.381592	
-0.382507	
-0.383484	
-0.38269	
-0.38385	
-0.383118	
-0.384155	
-0.382813	
-0.384827	
-0.382568	
-0.383728	
-0.382263	
-0.383057	
-0.382202	
-0.382507	
-0.381958	
-0.381226	
-0.381592	
-0.380615	
-0.380859	
-0.379211	
-0.379639	
-0.37793	
-0.378357	
-0.37793	
-0.377747	
-0.376465	
-0.376648	
-0.375488	
-0.375854	
-0.374939	
-0.374878	
-0.374695	
-0.374451	
-0.374939	
-0.373962	
-0.374695	
-0.373779	
-0.373962	
-0.372681	
-0.37384	
-0.372803	
-0.373474	
-0.372742	
-0.373596	
-0.374512	
-0.37384	
-0.373657	
-0.373474	
-0.374268	
-0.373718	
-0.375244	
-0.374939	
-0.375732	
-0.374573	
-0.375854	
-0.374573	
-0.37616	
-0.375793	
-0.376343	
-0.376099	
-0.37616	
-0.376038	
-0.37616	
-0.376221	
-0.376038	
-0.376648	
-0.376892	
-0.377686	
-0.377075	
-0.377258	
-0.377014	
-0.377502	
-0.376953	
-0.37793	
-0.37677	
-0.377197	
-0.377747	
-0.377014	
-0.377136	
-0.37616	
-0.37738	
-0.376099	
-0.376892	
-0.375061	
-0.377502	
-0.375549	
-0.376404	
-0.375305	
-0.37561	
-0.374939	
-0.373718	
-0.374084	
-0.374084	
-0.373413	
-0.373413	
-0.373352	
-0.372864	
-0.37323	
-0.372803	
-0.373474	
-0.372437	
-0.373901	
-0.372498	
-0.373779	
-0.372498	
-0.37384	
-0.373169	
-0.372986	
-0.373779	
-0.373474	
-0.373657	
-0.373047	
-0.374268	
-0.373169	
-0.374817	
-0.373352	
-0.375061	
-0.373962	
-0.37439	
-0.373108	
-0.37384	
-0.373596	
-0.37323	
-0.37323	
-0.373718	
-0.374268	
-0.37384	
-0.373291	
-0.372314	
-0.373108	
-0.372192	
-0.373169	
-0.372192	
-0.373657	
-0.372986	
-0.37323	
-0.373108	
-0.373474	
-0.373169	
-0.373596	
-0.374084	
-0.373474	
-0.375244	
-0.373657	
-0.374878	
-0.374207	
-0.375122	
-0.37439	
-0.375793	
-0.375	
-0.37561	
-0.375977	
-0.375916	
-0.376099	
-0.374634	
-0.376221	
-0.375427	
-0.376526	
-0.375061	
-0.376282	
-0.375122	
-0.375977	
-0.374634	
-0.375977	
-0.375122	
-0.375061	
-0.374695	
-0.374939	
-0.374329	
-0.374268	
-0.373901	
-0.373291	
-0.373962	
-0.372864	
-0.373718	
-0.373047	
-0.372986	
-0.37146	
-0.371765	
-0.370422	
-0.370239	
-0.36969	
-0.369995	
-0.370178	
-0.369568	
-0.370117	
-0.369019	
-0.369751	
-0.368591	
-0.370117	
-0.368469	
-0.370422	
-0.369141	
-0.369995	
-0.369385	
-0.370972	
-0.3703	
-0.370178	
-0.371033	
-0.371155	
-0.372131	
-0.372009	
-0.372925	
-0.372498	
-0.373657	
-0.374084	
-0.374878	
-0.374146	
-0.375	
-0.375061	
-0.375793	
-0.375122	
-0.375854	
-0.375549	
-0.375671	
-0.376221	
-0.376282	
-0.376953	
-0.37561	
-0.377197	
-0.375183	
-0.376831	
-0.375549	
-0.377014	
-0.37561	
-0.375916	
-0.375671	
-0.375671	
-0.375549	
-0.374939	
-0.375732	
-0.374878	
-0.375916	
-0.374695	
-0.374939	
-0.374268	
-0.37561	
-0.374329	
-0.37561	
-0.375244	
-0.375305	
-0.374695	
-0.374451	
-0.373901	
-0.373535	
-0.372742	
-0.372742	
-0.373352	
-0.372437	
-0.373474	
-0.37207	
-0.372986	
-0.372131	
-0.372803	
-0.371338	
-0.371826	
-0.371094	
-0.371521	
-0.371887	
-0.372131	
-0.372253	
-0.371033	
-0.372253	
-0.37085	
-0.372009	
-0.370667	
-0.372375	
-0.371216	
-0.372437	
-0.371887	
-0.373108	
-0.37323	
-0.372986	
-0.372864	
-0.372986	
-0.372437	
-0.372681	
-0.372742	
-0.372559	
-0.373047	
-0.372253	
-0.373474	
-0.372803	
-0.37323	
-0.372437	
-0.372742	
-0.372009	
-0.372742	
-0.371826	
-0.372498	
-0.373474	
-0.372681	
-0.373047	
-0.37207	
-0.373901	
-0.372192	
-0.373474	
-0.372253	
-0.373962	
-0.372498	
-0.373169	
-0.373352	
-0.373779	
-0.373596	
-0.373596	
-0.374451	
-0.373718	
-0.374695	
-0.374146	
-0.374939	
-0.374207	
-0.375183	
-0.374512	
-0.375	
-0.374084	
-0.375244	
-0.374023	
-0.374451	
-0.374146	
-0.374329	
-0.373596	
-0.373474	
-0.374329	
-0.37323	
-0.374023	
-0.372742	
-0.373657	
-0.371765	
-0.373047	
-0.372009	
-0.372437	
-0.371216	
-0.371826	
-0.371277	
-0.370544	
-0.371643	
-0.369995	
-0.3703	
-0.368835	
-0.370361	
-0.368774	
-0.369324	
-0.369141	
-0.370239	
-0.368896	
-0.370239	
-0.370789	
-0.370483	
-0.3703	
-0.371216	
-0.371094	
-0.371582	
-0.371765	
-0.371948	
-0.372986	
-0.373474	
-0.374878	
-0.373535	
-0.375732	
-0.375061	
-0.376953	
-0.375488	
-0.376038	
-0.376038	
-0.376648	
-0.376465	
-0.376465	
-0.377686	
-0.376282	
-0.377075	
-0.376099	
-0.377747	
-0.376709	
-0.377991	
-0.376465	
-0.377441	
-0.376648	
-0.377563	
-0.37738	
-0.377441	
-0.377441	
-0.376587	
-0.37616	
-0.375916	
-0.375916	
-0.375549	
-0.375793	
-0.375244	
-0.375183	
-0.374878	
-0.375366	
-0.375	
-0.375	
-0.374451	
-0.375183	
-0.374939	
-0.374695	
-0.375	
-0.374329	
-0.374939	
-0.372681	
-0.373718	
-0.372314	
-0.374084	
-0.371948	
-0.373535	
-0.373047	
-0.373108	
-0.373352	
-0.373413	
-0.373108	
-0.371948	
-0.373413	
-0.372803	
-0.374084	
-0.374146	
-0.374268	
-0.373169	
-0.374207	
-0.373291	
-0.374207	
-0.374268	
-0.375427	
-0.374756	
-0.375549	
-0.376038	
-0.376465	
-0.375488	
-0.37616	
-0.376831	
-0.376099	
-0.37738	
-0.376526	
-0.377014	
-0.376282	
-0.377686	
-0.376465	
-0.37793	
-0.375977	
-0.376221	
-0.376709	
-0.376404	
-0.377441	
-0.375793	
-0.376343	
-0.375488	
-0.376099	
-0.375671	
-0.375916	
-0.374756	
-0.375488	
-0.373962	
-0.375	
-0.374695	
-0.374817	
-0.37439	
-0.375427	
-0.375061	
-0.37561	
-0.375488	
-0.375427	
-0.376099	
-0.375488	
-0.375977	
-0.374451	
-0.37616	
-0.37561	
-0.376404	
-0.375488	
-0.375916	
-0.375122	
-0.375	
-0.375427	
-0.374573	
-0.375305	
-0.373535	
-0.37439	
-0.373596	
-0.374329	
-0.372253	
-0.374146	
-0.372253	
-0.37262	
-0.371765	
-0.372864	
-0.372009	
-0.371643	
-0.371338	
-0.37146	
-0.371399	
-0.371155	
-0.371521	
-0.37146	
-0.37207	
-0.371521	
-0.372498	
-0.372009	
-0.373352	
-0.372314	
-0.373169	
-0.373169	
-0.373779	
-0.372864	
-0.373657	
-0.374634	
-0.374268	
-0.374146	
-0.374451	
-0.37561	
-0.374146	
-0.376404	
-0.37561	
-0.37793	
-0.376526	
-0.377563	
-0.377563	
-0.378052	
-0.377747	
-0.377441	
-0.378357	
-0.376953	
-0.377991	
-0.377502	
-0.377502	
-0.376526	
-0.377441	
-0.377319	
-0.377563	
-0.377014	
-0.377502	
-0.376221	
-0.376892	
-0.375977	
-0.376038	
-0.374329	
-0.374695	
-0.374451	
-0.373657	
-0.374512	
-0.372742	
-0.373962	
-0.372009	
-0.373047	
-0.371399	
-0.372742	
-0.371338	
-0.371582	
-0.372192	
-0.371338	
-0.371887	
-0.370544	
-0.371155	
-0.370361	
-0.371704	
-0.370178	
-0.371643	
-0.369995	
-0.371216	
-0.370361	
-0.371521	
-0.37146	
-0.372253	
-0.370972	
-0.371948	
-0.371033	
-0.37146	
-0.371277	
-0.372131	
-0.372925	
-0.372681	
-0.37323	
-0.372131	
-0.373108	
-0.37262	
-0.373169	
-0.372131	
-0.373413	
-0.373779	
-0.374023	
-0.374878	
-0.374329	
-0.375183	
-0.374084	
-0.375549	
-0.373535	
-0.375305	
-0.374023	
-0.375793	
-0.374329	
-0.375061	
-0.375061	
-0.374939	
-0.375427	
-0.374878	
-0.374878	
-0.375854	
-0.375427	
-0.375977	
-0.375244	
-0.374451	
-0.375061	
-0.37439	
-0.375732	
-0.374512	
-0.375122	
-0.373901	
-0.373718	
-0.373779	
-0.37384	
-0.373596	
-0.37384	
-0.374695	
-0.374084	
-0.375305	
-0.374512	
-0.375061	
-0.37323	
-0.375	
-0.37323	
-0.375305	
-0.374329	
-0.374695	
-0.374023	
-0.374512	
-0.374451	
-0.374207	
-0.374023	
-0.373962	
-0.374084	
-0.374023	
-0.374268	
-0.372192	
-0.373291	
-0.372253	
-0.373474	
-0.373047	
-0.373962	
-0.372864	
-0.373047	
-0.372681	
-0.372925	
-0.371826	
-0.372314	
-0.372864	
-0.371826	
-0.372559	
-0.371399	
-0.373047	
-0.370972	
-0.373169	
-0.371826	
-0.373718	
-0.371887	
-0.373291	
-0.37384	
-0.373657	
-0.374023	
-0.372925	
-0.374023	
-0.373047	
-0.375427	
-0.373413	
-0.375	
-0.374023	
-0.375305	
-0.374084	
-0.375671	
-0.375854	
-0.376648	
-0.376099	
-0.376892	
-0.37677	
-0.376953	
-0.376709	
-0.37738	
-0.377625	
-0.376343	
-0.377502	
-0.376404	
-0.376953	
-0.375854	
-0.376404	
-0.375793	
-0.37561	
-0.375122	
-0.374756	
-0.374817	
-0.374268	
-0.373596	
-0.372009	
-0.373291	
-0.370911	
-0.371399	
-0.370056	
-0.371033	
-0.369019	
-0.369995	
-0.368835	
-0.369446	
-0.369629	
-0.369873	
-0.369019	
-0.368713	
-0.36908	
-0.36853	
-0.368652	
-0.368408	
-0.368896	
-0.368225	
-0.369202	
-0.368591	
-0.369385	
-0.369263	
-0.369751	
-0.369446	
-0.370605	
-0.370605	
-0.370972	
-0.371338	
-0.37085	
-0.371826	
-0.371277	
-0.372375	
-0.370972	
-0.372742	
-0.371887	
-0.373291	
-0.372131	
-0.372742	
-0.372498	
-0.372742	
-0.372498	
-0.371765	
-0.373169	
-0.372864	
-0.373901	
-0.373291	
-0.374146	
-0.372681	
-0.373657	
-0.372375	
-0.373718	
-0.373779	
-0.373718	
-0.372925	
-0.37323	
-0.373413	
-0.373474	
-0.373352	
-0.373108	
-0.373901	
-0.373535	
-0.373901	
-0.372437	
-0.37262	
-0.371948	
-0.372864	
-0.371887	
-0.372375	
-0.370911	
-0.37085	
-0.369995	
-0.370605	
-0.37085	
-0.369568	
-0.371277	
-0.369263	
-0.371094	
-0.369385	
-0.370667	
-0.369751	
-0.370544	
-0.369812	
-0.370728	
-0.370544	
-0.371521	
-0.370789	
-0.371216	
-0.370422	
-0.370911	
-0.370972	
-0.371521	
-0.372192	
-0.371826	
-0.37323	
-0.372131	
-0.372681	
-0.371277	
-0.372437	
-0.371704	
-0.37207	
-0.37146	
-0.371704	
-0.371765	
-0.371643	
-0.371399	
-0.370117	
-0.371948	
-0.370361	
-0.372131	
-0.371094	
-0.371826	
-0.370972	
-0.371338	
-0.370605	
-0.371887	
-0.371094	
-0.37146	
-0.37262	
-0.372803	
-0.373169	
-0.372742	
-0.373047	
-0.372742	
-0.373596	
-0.373901	
-0.374939	
-0.374084	
-0.37439	
-0.374573	
-0.375061	
-0.374878	
-0.376099	
-0.375122	
-0.375244	
-0.37561	
-0.375183	
-0.375549	
-0.374023	
-0.375732	
-0.37384	
-0.374939	
-0.373352	
-0.37439	
-0.373047	
-0.373291	
-0.372192	
-0.372986	
-0.372681	
-0.372131	
-0.372253	
-0.371399	
-0.372253	
-0.370544	
-0.370667	
-0.368896	
-0.370056	
-0.368835	
-0.369507	
-0.368835	
-0.36908	
-0.36853	
-0.368958	
-0.368774	
-0.369568	
-0.368408	
-0.368774	
-0.369934	
-0.369141	
-0.369507	
-0.36853	
-0.370422	
-0.369202	
-0.370483	
-0.369568	
-0.371277	
-0.370667	
-0.371155	
-0.371826	
-0.372498	
-0.372803	
-0.372314	
-0.374207	
-0.373352	
-0.374207	
	
