E:\DOCUMENTS AND SETTINGS\JPOTAS\MEUS DOCUMENTOS\UFRJ\RSCI-BM 12 WK SERIES\070727-RSCI-BM-05\RSCI-BM-05-REMG\070727-RSCI-BM-05-REMG-0009.ACQ
0.025000 msec/sample
1 channel
Analog input
Volts
CH1	
2000	
-0.387878	
-0.38739	
-0.386108	
-0.386963	
-0.387024	
-0.387024	
-0.387146	
-0.386841	
-0.387634	
-0.386597	
-0.386414	
-0.38739	
-0.386353	
-0.38623	
-0.384949	
-0.386169	
-0.385864	
-0.386536	
-0.386292	
-0.386353	
-0.385986	
-0.386536	
-0.387085	
-0.386292	
-0.387085	
-0.384888	
-0.38678	
-0.386475	
-0.386169	
-0.387268	
-0.385925	
-0.385986	
-0.385437	
-0.384827	
-0.38385	
-0.383362	
-0.38269	
-0.383362	
-0.382813	
-0.382446	
-0.382629	
-0.381897	
-0.383362	
-0.384155	
-0.383545	
-0.382385	
-0.383545	
-0.383972	
-0.384521	
-0.384766	
-0.38446	
-0.385254	
-0.384338	
-0.38446	
-0.384705	
-0.38501	
-0.384949	
-0.38324	
-0.384766	
-0.385376	
-0.385803	
-0.385315	
-0.385376	
-0.384399	
-0.385315	
-0.385254	
-0.385071	
-0.384583	
-0.384216	
-0.384888	
-0.385498	
-0.384888	
-0.385376	
-0.385071	
-0.385437	
-0.385925	
-0.384888	
-0.38446	
-0.384521	
-0.385132	
-0.385559	
-0.386108	
-0.386047	
-0.385803	
-0.384949	
-0.384827	
-0.385864	
-0.385437	
-0.384338	
-0.383362	
-0.384949	
-0.384766	
-0.385681	
-0.384521	
-0.384399	
-0.38385	
-0.384338	
-0.384705	
-0.383972	
-0.383545	
-0.381714	
-0.383423	
-0.382813	
-0.38324	
-0.383423	
-0.382935	
-0.383057	
-0.383667	
-0.382996	
-0.382385	
-0.382935	
-0.383728	
-0.384094	
-0.384155	
-0.384216	
-0.38446	
-0.383545	
-0.383545	
-0.384338	
-0.383545	
-0.383362	
-0.383301	
-0.383667	
-0.383728	
-0.384155	
-0.383972	
-0.383301	
-0.38324	
-0.383789	
-0.38446	
-0.383545	
-0.383728	
-0.382141	
-0.383728	
-0.384277	
-0.384644	
-0.384155	
-0.383301	
-0.382874	
-0.38269	
-0.383057	
-0.382507	
-0.382568	
-0.38208	
-0.382751	
-0.383118	
-0.382324	
-0.383728	
-0.382935	
-0.38324	
-0.383728	
-0.382446	
-0.381592	
-0.382263	
-0.382874	
-0.382996	
-0.383179	
-0.382935	
-0.383423	
-0.382324	
-0.382324	
-0.383118	
-0.382568	
-0.381897	
-0.38092	
-0.382385	
-0.382813	
-0.38324	
-0.382263	
-0.382507	
-0.381531	
-0.382629	
-0.382568	
-0.381836	
-0.381592	
-0.380737	
-0.381653	
-0.38147	
-0.381348	
-0.381653	
-0.380798	
-0.381531	
-0.381836	
-0.380188	
-0.379272	
-0.380127	
-0.380005	
-0.380066	
-0.380493	
-0.380615	
-0.38092	
-0.380249	
-0.381104	
-0.381409	
-0.380737	
-0.380798	
-0.380554	
-0.376038	
-0.374146	
-0.375488	
-0.375122	
-0.375366	
-0.374695	
-0.381653	
-0.382874	
-0.381653	
-0.381592	
-0.379395	
-0.381287	
-0.380981	
-0.380554	
-0.380737	
-0.380432	
-0.381226	
-0.380615	
-0.380188	
-0.379822	
-0.380371	
-0.380188	
-0.381165	
-0.382202	
-0.381897	
-0.382629	
-0.381836	
-0.382935	
-0.383179	
-0.381958	
-0.381042	
-0.381348	
-0.382263	
-0.383057	
-0.383057	
-0.382935	
-0.383179	
-0.382324	
-0.382507	
-0.381958	
-0.381653	
-0.381409	
-0.380066	
-0.38147	
-0.381531	
-0.380737	
-0.381287	
-0.380981	
-0.381042	
-0.381409	
-0.381226	
-0.38092	
-0.380615	
-0.380676	
-0.381226	
-0.381958	
-0.381409	
-0.382385	
-0.381348	
-0.382813	
-0.383179	
-0.382019	
-0.380737	
-0.381104	
-0.381775	
-0.382202	
-0.383301	
-0.382019	
-0.382385	
-0.381348	
-0.382141	
-0.381714	
-0.380371	
-0.379761	
-0.378662	
-0.380066	
-0.380127	
-0.380371	
-0.379944	
-0.380432	
-0.378967	
-0.380066	
-0.3797	
-0.379944	
-0.379578	
-0.3797	
-0.380798	
-0.381042	
-0.380676	
-0.38147	
-0.381836	
-0.38269	
-0.383179	
-0.382385	
-0.381958	
-0.382568	
-0.383911	
-0.384888	
-0.386292	
-0.387817	
-0.389099	
-0.389221	
-0.390747	
-0.391785	
-0.392151	
-0.393127	
-0.392029	
-0.395386	
-0.396606	
-0.397827	
-0.39917	
-0.399658	
-0.400818	
-0.402527	
-0.403137	
-0.403687	
-0.404785	
-0.406372	
-0.407715	
-0.409058	
-0.410278	
-0.412537	
-0.41333	
-0.415833	
-0.416687	
-0.418701	
-0.419861	
-0.422607	
-0.424377	
-0.42749	
-0.428955	
-0.431641	
-0.432922	
-0.435852	
-0.437561	
-0.438782	
-0.440308	
-0.442505	
-0.446106	
-0.448608	
-0.45166	
-0.454651	
-0.457336	
-0.459961	
-0.46167	
-0.463989	
-0.465637	
-0.467712	
-0.46936	
-0.470825	
-0.472595	
-0.473572	
-0.47345	
-0.473938	
-0.47522	
-0.475037	
-0.475281	
-0.474304	
-0.474792	
-0.474487	
-0.475586	
-0.475098	
-0.474365	
-0.472961	
-0.472534	
-0.472046	
-0.471008	
-0.470337	
-0.468872	
-0.470459	
-0.470337	
-0.469543	
-0.470459	
-0.470093	
-0.47113	
-0.470764	
-0.469849	
-0.468628	
-0.468567	
-0.46759	
-0.466492	
-0.465759	
-0.463989	
-0.463379	
-0.461365	
-0.460999	
-0.459534	
-0.457581	
-0.456177	
-0.453735	
-0.454407	
-0.45343	
-0.452454	
-0.451355	
-0.449707	
-0.448425	
-0.44751	
-0.445862	
-0.444397	
-0.443726	
-0.442017	
-0.440125	
-0.439697	
-0.438049	
-0.437622	
-0.434875	
-0.434021	
-0.432922	
-0.430237	
-0.427612	
-0.426392	
-0.425049	
-0.422974	
-0.42157	
-0.41925	
-0.41803	
-0.414368	
-0.411682	
-0.409973	
-0.405884	
-0.402893	
-0.398743	
-0.396729	
-0.393921	
-0.391418	
-0.388977	
-0.386169	
-0.382446	
-0.381042	
-0.377747	
-0.376648	
-0.373901	
-0.370911	
-0.370422	
-0.369751	
-0.368469	
-0.366333	
-0.363831	
-0.362427	
-0.361145	
-0.358398	
-0.356384	
-0.354858	
-0.354675	
-0.35321	
-0.352478	
-0.351807	
-0.352783	
-0.352173	
-0.35199	
-0.353271	
-0.353516	
-0.353699	
-0.352478	
-0.35498	
-0.355835	
-0.357727	
-0.357605	
-0.358276	
-0.358582	
-0.36084	
-0.360535	
-0.36084	
-0.361755	
-0.362	
-0.362732	
-0.363525	
-0.364075	
-0.365479	
-0.365601	
-0.36615	
-0.366333	
-0.367004	
-0.367004	
-0.366089	
-0.368347	
-0.368896	
-0.368958	
-0.369568	
-0.369629	
-0.36731	
-0.361938	
-0.361023	
-0.361755	
-0.361572	
-0.362854	
-0.36908	
-0.37207	
-0.371582	
-0.372009	
-0.371338	
-0.372253	
-0.372192	
-0.37207	
-0.371338	
-0.372437	
-0.372742	
-0.373047	
-0.372437	
-0.372559	
-0.371887	
-0.372681	
-0.372131	
-0.371582	
-0.371399	
-0.372253	
-0.371826	
-0.372437	
-0.372131	
-0.372253	
-0.37207	
-0.372375	
-0.371521	
-0.371338	
-0.371704	
-0.372314	
-0.372314	
-0.37262	
-0.372498	
-0.373657	
-0.373474	
-0.373718	
-0.375427	
-0.373535	
-0.37384	
-0.372253	
-0.374268	
-0.374023	
-0.374573	
-0.374329	
-0.374573	
-0.373535	
-0.374451	
-0.374268	
-0.372498	
-0.373535	
-0.37384	
-0.374512	
-0.374817	
-0.375427	
-0.37677	
-0.377258	
-0.376892	
-0.378174	
-0.376648	
-0.377563	
-0.376709	
-0.37793	
-0.377991	
-0.378052	
-0.378662	
-0.379272	
-0.379089	
-0.379211	
-0.378418	
-0.378845	
-0.377625	
-0.378418	
-0.378052	
-0.378845	
-0.378357	
-0.378357	
-0.377441	
-0.378906	
-0.379028	
-0.377869	
-0.377197	
-0.377869	
-0.378662	
-0.379456	
-0.378723	
-0.380005	
-0.380066	
-0.38147	
-0.381653	
-0.381409	
-0.384277	
-0.384949	
-0.386108	
-0.388062	
-0.388367	
-0.390503	
-0.390625	
-0.392761	
-0.393921	
-0.394592	
-0.395508	
-0.395569	
-0.397461	
-0.39856	
-0.400391	
-0.401489	
-0.402588	
-0.403137	
-0.404968	
-0.40686	
-0.407227	
-0.408386	
-0.408997	
-0.411255	
-0.413513	
-0.414185	
-0.416138	
-0.418213	
-0.419495	
-0.420898	
-0.421814	
-0.425293	
-0.426575	
-0.429565	
-0.432068	
-0.434265	
-0.437317	
-0.437683	
-0.43988	
-0.441589	
-0.444763	
-0.446716	
-0.449036	
-0.45105	
-0.454529	
-0.45697	
-0.458679	
-0.460327	
-0.461487	
-0.463196	
-0.463989	
-0.46698	
-0.468201	
-0.470337	
-0.471863	
-0.473022	
-0.474426	
-0.474243	
-0.474915	
-0.475525	
-0.476013	
-0.475037	
-0.473938	
-0.473206	
-0.473572	
-0.472229	
-0.47168	
-0.470215	
-0.46936	
-0.468445	
-0.468018	
-0.466309	
-0.466614	
-0.465759	
-0.46521	
-0.46521	
-0.464111	
-0.464233	
-0.462585	
-0.461853	
-0.461731	
-0.460205	
-0.459412	
-0.457703	
-0.457092	
-0.455994	
-0.455383	
-0.453552	
-0.452454	
-0.450806	
-0.450317	
-0.449707	
-0.447388	
-0.446899	
-0.443909	
-0.444336	
-0.443054	
-0.441833	
-0.440857	
-0.43811	
-0.437439	
-0.436035	
-0.434204	
-0.431763	
-0.430725	
-0.429504	
-0.427307	
-0.42688	
-0.424438	
-0.421875	
-0.419312	
-0.417603	
-0.416077	
-0.412537	
-0.410339	
-0.407043	
-0.40509	
-0.401978	
-0.398926	
-0.396423	
-0.391846	
-0.389771	
-0.386047	
-0.383057	
-0.378174	
-0.37561	
-0.370422	
-0.369019	
-0.366272	
-0.36322	
-0.361389	
-0.358215	
-0.356873	
-0.353699	
-0.352905	
-0.350708	
-0.349792	
-0.348511	
-0.348083	
-0.347595	
-0.346863	
-0.346558	
-0.346008	
-0.34613	
-0.347778	
-0.347229	
-0.347656	
-0.3479	
-0.349121	
-0.351135	
-0.350891	
-0.351074	
-0.351685	
-0.352295	
-0.354309	
-0.354675	
-0.355164	
-0.355469	
-0.355286	
-0.357422	
-0.358276	
-0.358704	
-0.359375	
-0.36084	
-0.361145	
-0.362183	
-0.361511	
-0.362732	
-0.363037	
-0.36438	
-0.364807	
-0.365601	
-0.365906	
-0.366333	
-0.366455	
-0.367004	
-0.366821	
-0.367065	
-0.36676	
-0.36792	
-0.368042	
-0.369019	
-0.367798	
-0.368652	
-0.367981	
-0.369263	
-0.367676	
-0.368042	
-0.367615	
-0.367859	
-0.368347	
-0.368042	
-0.367737	
-0.367493	
-0.367249	
-0.367249	
-0.36792	
-0.366882	
-0.367004	
-0.365967	
-0.367065	
-0.367676	
-0.368591	
-0.368347	
-0.368958	
-0.368774	
-0.369751	
-0.367249	
-0.368591	
-0.367737	
-0.369629	
-0.370483	
-0.369873	
-0.369263	
-0.369385	
-0.36969	
-0.371155	
-0.368774	
-0.369751	
-0.369629	
-0.370544	
-0.371582	
-0.37085	
-0.370483	
-0.370361	
-0.370117	
-0.370972	
-0.369568	
-0.370361	
-0.370117	
-0.369812	
-0.371155	
-0.371399	
-0.369934	
-0.370117	
-0.370117	
-0.370056	
-0.370239	
-0.370483	
-0.3703	
-0.370056	
-0.371033	
-0.370605	
-0.370483	
-0.370605	
-0.370728	
-0.370789	
-0.371277	
-0.371277	
-0.371277	
-0.371033	
-0.370728	
-0.372253	
-0.371765	
-0.37146	
-0.370972	
-0.37146	
-0.371948	
-0.372375	
-0.371887	
-0.370605	
-0.371948	
-0.372009	
-0.371826	
-0.372742	
-0.372864	
-0.372131	
-0.371582	
-0.372375	
-0.372131	
-0.371887	
-0.371582	
-0.371765	
-0.372314	
-0.371948	
-0.371216	
-0.371582	
-0.371338	
-0.372498	
-0.370911	
-0.370544	
-0.370422	
-0.37085	
-0.371216	
-0.372314	
-0.37207	
-0.371643	
-0.371704	
-0.372742	
-0.373962	
-0.373108	
-0.373901	
-0.372559	
-0.374451	
-0.375183	
-0.375305	
-0.375183	
-0.374207	
-0.37262	
-0.37262	
-0.372925	
-0.373169	
-0.372253	
-0.372803	
-0.373413	
-0.373535	
-0.372986	
-0.373108	
-0.37323	
-0.373047	
-0.374512	
-0.372253	
-0.373535	
-0.373108	
-0.37439	
-0.375061	
-0.376648	
-0.376282	
-0.376282	
-0.375977	
-0.376404	
-0.377319	
-0.377319	
-0.377441	
-0.375671	
-0.377869	
-0.378113	
-0.378235	
-0.377747	
-0.377136	
-0.376465	
-0.377563	
-0.376709	
-0.37677	
-0.376282	
-0.377258	
-0.376953	
-0.377136	
-0.377563	
-0.37677	
-0.376282	
-0.375366	
-0.376465	
-0.375977	
-0.375977	
-0.376343	
-0.376282	
-0.376465	
-0.376648	
-0.376892	
-0.376465	
-0.375122	
-0.375549	
-0.377258	
-0.376038	
-0.376648	
-0.374573	
-0.376221	
-0.375977	
-0.376953	
-0.376221	
-0.375183	
-0.374451	
-0.373535	
-0.373901	
-0.374023	
-0.373657	
-0.372925	
-0.373596	
-0.374329	
-0.374023	
-0.37323	
-0.373169	
-0.373047	
-0.374756	
-0.373596	
-0.374207	
-0.374207	
-0.374756	
-0.374756	
-0.374756	
-0.375366	
-0.374329	
-0.374084	
-0.374329	
-0.376709	
-0.375122	
-0.375061	
-0.373413	
-0.375244	
-0.375977	
-0.376343	
-0.375793	
-0.375061	
-0.375305	
-0.375183	
-0.375854	
-0.376099	
-0.376282	
-0.375977	
-0.376404	
-0.377197	
-0.376831	
-0.376282	
-0.375244	
-0.376099	
-0.376587	
-0.37677	
-0.375916	
-0.375671	
-0.376221	
-0.375977	
-0.37677	
-0.376404	
-0.375977	
-0.376038	
-0.376526	
-0.37738	
-0.376526	
-0.376587	
-0.375732	
-0.377014	
-0.378235	
-0.377747	
-0.377502	
-0.376221	
-0.375671	
-0.375854	
-0.376587	
-0.376709	
-0.376892	
-0.376892	
-0.37738	
-0.377686	
-0.377319	
-0.377502	
-0.377319	
-0.376587	
-0.377747	
-0.377258	
-0.377869	
-0.377502	
-0.378296	
-0.37854	
-0.378601	
-0.378174	
-0.377502	
-0.377136	
-0.377075	
-0.378052	
-0.376648	
-0.377014	
-0.377136	
-0.377319	
-0.377441	
-0.378113	
-0.378723	
-0.378296	
-0.37793	
-0.378845	
-0.380127	
-0.380127	
-0.380615	
-0.380554	
-0.381165	
-0.382385	
-0.382385	
-0.382263	
-0.380981	
-0.379517	
-0.379517	
-0.379822	
-0.380127	
-0.379761	
-0.378784	
-0.379395	
-0.379944	
-0.379456	
-0.378784	
-0.377563	
-0.377563	
-0.378113	
-0.377869	
-0.377441	
-0.377686	
-0.377869	
-0.377686	
-0.378235	
-0.378601	
-0.37854	
-0.377563	
-0.377625	
-0.378113	
-0.37793	
-0.378113	
-0.377136	
-0.378357	
-0.378479	
-0.3797	
-0.379639	
-0.378113	
-0.377869	
-0.377197	
-0.378723	
-0.378113	
-0.377747	
-0.376465	
-0.378235	
-0.378845	
-0.37854	
-0.378967	
-0.376892	
-0.377319	
-0.378052	
-0.378357	
-0.378418	
-0.378235	
-0.379089	
-0.379211	
-0.379883	
-0.380737	
-0.379944	
-0.379456	
-0.379578	
-0.38092	
-0.380676	
-0.379822	
-0.380249	
-0.381287	
-0.382385	
-0.38269	
-0.38147	
-0.38092	
-0.380066	
-0.380432	
-0.380798	
-0.379395	
-0.380066	
-0.37915	
-0.380737	
-0.381165	
-0.38147	
-0.379456	
-0.378906	
-0.377441	
-0.380127	
-0.38031	
-0.380554	
-0.379944	
-0.380737	
-0.380371	
-0.381226	
-0.380798	
-0.379578	
-0.378906	
-0.380249	
-0.380493	
-0.379944	
-0.380005	
-0.379822	
-0.380127	
-0.380676	
-0.38147	
-0.380798	
-0.379761	
-0.379211	
-0.3797	
-0.381531	
-0.381042	
-0.380737	
-0.380432	
-0.381226	
-0.38208	
-0.382324	
-0.381165	
-0.380432	
-0.380005	
-0.380737	
-0.381348	
-0.381042	
-0.380188	
-0.380127	
-0.381287	
-0.382446	
-0.381042	
-0.380188	
-0.379883	
-0.380493	
-0.381287	
-0.380798	
-0.380737	
-0.380432	
-0.380859	
-0.381226	
-0.380981	
-0.381287	
-0.380798	
-0.380493	
-0.380493	
-0.382263	
-0.381653	
-0.381226	
-0.380798	
-0.381836	
-0.382629	
-0.382935	
-0.382507	
-0.381592	
-0.382141	
-0.381653	
-0.383179	
-0.382874	
-0.383179	
-0.382019	
-0.383667	
-0.385254	
-0.384216	
-0.383057	
-0.38147	
-0.381531	
-0.382751	
-0.38269	
-0.382446	
-0.382202	
-0.381653	
-0.381714	
-0.382141	
-0.381714	
-0.381409	
-0.379761	
-0.38208	
-0.383545	
-0.382996	
-0.382446	
-0.382385	
-0.383789	
-0.383972	
-0.383606	
-0.38385	
-0.382935	
-0.382874	
-0.38269	
-0.383972	
-0.383911	
-0.383545	
-0.382629	
-0.383179	
-0.384399	
-0.383606	
-0.38208	
-0.381104	
-0.380737	
-0.382019	
-0.381897	
-0.381287	
-0.381104	
-0.381531	
-0.381592	
-0.382385	
-0.382202	
-0.381104	
-0.380676	
-0.380981	
-0.382202	
-0.38208	
-0.382202	
-0.382019	
-0.382141	
-0.382996	
-0.383057	
-0.382996	
-0.382935	
-0.382996	
-0.382202	
-0.384338	
-0.383423	
-0.383301	
-0.382935	
-0.384033	
-0.384033	
-0.383911	
-0.383179	
-0.383179	
-0.383179	
-0.383484	
-0.384705	
-0.383789	
-0.383728	
-0.382568	
-0.383667	
-0.384888	
-0.383972	
-0.383728	
-0.382568	
-0.384033	
-0.384216	
-0.38446	
-0.384827	
-0.384766	
-0.384827	
-0.38562	
-0.386902	
-0.386169	
-0.384949	
-0.38446	
-0.384338	
-0.386475	
-0.385742	
-0.38501	
-0.384766	
-0.384827	
-0.386169	
-0.385742	
-0.384827	
-0.384033	
-0.383728	
-0.384155	
-0.384033	
-0.383362	
-0.383179	
-0.382568	
-0.384277	
-0.385864	
-0.384644	
-0.383484	
-0.382263	
-0.383362	
-0.384033	
-0.383545	
-0.383057	
-0.383301	
-0.382996	
-0.383362	
-0.384949	
-0.384277	
-0.382935	
-0.382141	
-0.383057	
-0.38385	
-0.38385	
-0.38385	
-0.38385	
-0.384888	
-0.385132	
-0.38562	
-0.384705	
-0.383972	
-0.382935	
-0.382813	
-0.384705	
-0.384094	
-0.383911	
-0.382751	
-0.383484	
-0.385254	
-0.383911	
-0.383484	
-0.382568	
-0.382751	
-0.383606	
-0.383545	
-0.383606	
-0.383118	
-0.383301	
-0.383545	
-0.384888	
-0.383728	
-0.382751	
-0.381042	
-0.382324	
-0.383484	
-0.38269	
-0.382568	
-0.382202	
-0.38269	
-0.38269	
-0.383057	
-0.383301	
-0.382202	
-0.381775	
-0.382202	
-0.383606	
-0.382446	
-0.382507	
-0.382507	
-0.383606	
-0.383972	
-0.383423	
-0.382935	
-0.38147	
-0.381165	
-0.381287	
-0.382629	
-0.381287	
-0.381042	
-0.380005	
-0.380249	
-0.380615	
-0.379883	
-0.378906	
-0.378235	
-0.378235	
-0.379578	
-0.379822	
-0.379883	
-0.380127	
-0.380554	
-0.381348	
-0.381409	
-0.381348	
-0.380859	
-0.380371	
-0.381348	
-0.382202	
-0.382263	
-0.382141	
-0.381531	
-0.38208	
-0.382751	
-0.383057	
-0.382202	
-0.381042	
-0.381042	
-0.381042	
-0.382874	
-0.382202	
-0.381409	
-0.380981	
-0.382263	
-0.383728	
-0.382446	
-0.381653	
-0.379822	
-0.380859	
-0.382202	
-0.381592	
-0.381897	
-0.381958	
-0.382568	
-0.382629	
-0.383362	
-0.38269	
-0.381958	
-0.380676	
-0.381653	
-0.383301	
-0.382935	
-0.382141	
-0.381104	
-0.381958	
-0.383118	
-0.382385	
-0.381897	
-0.380859	
-0.380432	
-0.380249	
-0.381897	
-0.380859	
-0.38092	
-0.379333	
-0.380798	
-0.38147	
-0.380859	
-0.379578	
-0.37854	
-0.379089	
-0.380005	
-0.380371	
-0.380859	
-0.380493	
-0.380737	
-0.38092	
-0.381531	
-0.381226	
-0.381042	
-0.380554	
-0.380676	
-0.380981	
-0.380676	
-0.380798	
-0.380493	
-0.380859	
-0.381836	
-0.380859	
-0.381592	
-0.380737	
-0.380615	
-0.38031	
-0.381836	
-0.380737	
-0.380554	
-0.380554	
-0.380981	
-0.381042	
-0.381592	
-0.380676	
-0.379578	
-0.380432	
-0.380737	
-0.381042	
-0.380676	
-0.38031	
-0.379578	
-0.380432	
-0.381165	
-0.381042	
-0.380005	
-0.379395	
-0.379456	
-0.380432	
-0.380188	
-0.380188	
-0.380676	
-0.380493	
-0.381409	
-0.381592	
-0.381104	
-0.380554	
-0.379272	
-0.379578	
-0.381348	
-0.380554	
-0.380554	
-0.380127	
-0.380493	
-0.381409	
-0.381348	
-0.380676	
-0.379639	
-0.379089	
-0.380371	
-0.380554	
-0.380371	
-0.379456	
-0.379761	
-0.380066	
-0.380127	
-0.380737	
-0.379211	
-0.378723	
-0.378235	
-0.379639	
-0.379028	
-0.37854	
-0.378174	
-0.379089	
-0.37915	
-0.379333	
-0.379028	
-0.378357	
-0.377625	
-0.378418	
-0.38031	
-0.379333	
-0.379639	
-0.379333	
-0.380981	
-0.381592	
-0.382446	
-0.382202	
-0.380737	
-0.380371	
-0.380432	
-0.38147	
-0.380005	
-0.380066	
-0.378662	
-0.379395	
-0.380554	
-0.380005	
-0.379272	
-0.377747	
-0.377625	
-0.379272	
-0.378906	
-0.378784	
-0.378662	
-0.378967	
-0.379639	
-0.380066	
-0.380249	
-0.379761	
-0.379639	
-0.379761	
-0.381348	
-0.381287	
-0.381287	
-0.381104	
-0.381042	
-0.382385	
-0.381836	
-0.382507	
-0.380981	
-0.380249	
-0.380371	
-0.381714	
-0.381104	
-0.380981	
-0.380249	
-0.380432	
-0.382202	
-0.38147	
-0.381104	
-0.379333	
-0.379211	
-0.37915	
-0.380249	
-0.379944	
-0.380005	
-0.380066	
-0.38031	
-0.381287	
-0.380981	
-0.38031	
-0.379333	
-0.3797	
-0.380432	
-0.38031	
-0.380432	
-0.380127	
-0.380493	
-0.381287	
-0.382263	
-0.381409	
-0.380249	
-0.379211	
-0.380066	
-0.381775	
-0.380615	
-0.379639	
-0.379211	
-0.379578	
-0.380066	
-0.379456	
-0.379578	
-0.377808	
-0.378357	
-0.378296	
-0.378967	
-0.379333	
-0.378845	
-0.378479	
-0.379456	
-0.379883	
-0.380493	
-0.379578	
-0.377991	
-0.378418	
-0.37915	
-0.380127	
-0.38031	
-0.380005	
-0.380432	
-0.380493	
-0.38031	
-0.379639	
-0.3797	
-0.378784	
-0.379944	
-0.381287	
-0.380676	
-0.380432	
-0.380371	
-0.381165	
-0.381653	
-0.381531	
-0.381714	
-0.380249	
-0.380432	
-0.380554	
-0.381226	
-0.380615	
-0.380737	
-0.379517	
-0.380371	
-0.38092	
-0.381714	
-0.380493	
-0.379944	
-0.379822	
-0.380005	
-0.380615	
-0.38031	
-0.380737	
-0.381042	
-0.381836	
-0.381409	
-0.380859	
-0.379944	
-0.379578	
-0.379822	
-0.381165	
-0.381165	
-0.381042	
-0.380615	
-0.380859	
-0.38147	
-0.381409	
-0.381714	
-0.381165	
-0.381165	
-0.38147	
-0.382263	
-0.381592	
-0.381531	
-0.381348	
-0.382629	
-0.382385	
-0.382751	
-0.382324	
-0.381287	
-0.381165	
-0.381714	
-0.38208	
-0.381775	
-0.38147	
-0.381409	
-0.381287	
-0.382813	
-0.382324	
-0.381531	
-0.38147	
-0.380798	
-0.382751	
-0.382568	
-0.383057	
-0.383179	
-0.384644	
-0.384399	
-0.385498	
-0.385071	
-0.385559	
-0.385498	
-0.386047	
-0.386414	
-0.385559	
-0.384949	
-0.384705	
-0.38446	
-0.384583	
-0.384521	
-0.384644	
-0.383606	
-0.382751	
-0.381897	
-0.383484	
-0.38269	
-0.382629	
-0.381104	
-0.382935	
-0.383484	
-0.383118	
-0.382385	
-0.381348	
-0.381348	
-0.38269	
-0.38208	
-0.382202	
-0.382507	
-0.382324	
-0.382507	
-0.382446	
-0.38269	
-0.382446	
-0.382446	
-0.382263	
-0.38324	
-0.382874	
-0.382813	
-0.382629	
-0.382141	
-0.382568	
-0.381775	
-0.383179	
-0.382141	
-0.382019	
-0.382324	
-0.382813	
-0.38208	
-0.382324	
-0.381226	
-0.382996	
-0.383789	
-0.383484	
-0.383911	
-0.38208	
-0.382813	
-0.38269	
-0.383972	
-0.383423	
-0.384216	
-0.384705	
-0.385315	
-0.384766	
-0.385193	
-0.38562	
-0.385376	
-0.385071	
-0.385559	
-0.385071	
-0.385132	
-0.385437	
-0.384583	
-0.38501	
-0.384521	
-0.38501	
-0.382568	
-0.38324	
-0.383301	
-0.38446	
-0.384521	
-0.384338	
-0.383484	
-0.384033	
-0.384277	
-0.385071	
-0.384277	
-0.383362	
-0.382507	
-0.38324	
-0.383606	
-0.383972	
-0.384277	
-0.384033	
-0.383667	
-0.383606	
-0.383911	
-0.383362	
-0.38385	
-0.383545	
-0.384766	
-0.384583	
-0.384949	
-0.385193	
-0.38446	
-0.384827	
-0.384888	
-0.38562	
-0.384949	
-0.384644	
-0.384705	
-0.385864	
-0.384644	
-0.385071	
-0.385071	
-0.384888	
-0.384705	
-0.384644	
-0.385376	
-0.384766	
-0.38324	
-0.383728	
-0.385315	
-0.385132	
-0.385559	
-0.384766	
-0.385437	
-0.384766	
-0.384216	
-0.385132	
-0.384766	
-0.384033	
-0.385254	
-0.385193	
-0.384766	
-0.386414	
-0.384949	
-0.385681	
-0.385437	
-0.386353	
-0.385742	
-0.38562	
-0.386047	
-0.387085	
-0.386292	
-0.386902	
-0.387329	
-0.386414	
-0.387085	
-0.386963	
-0.388123	
-0.387268	
-0.387207	
-0.386902	
-0.387268	
-0.387085	
-0.387329	
-0.386169	
-0.385803	
-0.386169	
-0.384583	
-0.385193	
-0.384888	
-0.38446	
-0.384827	
-0.384888	
-0.385437	
-0.386841	
-0.386414	
-0.386292	
-0.386719	
-0.387268	
-0.387024	
-0.386475	
-0.386719	
-0.387268	
-0.387024	
-0.387207	
-0.387756	
-0.387207	
-0.386841	
-0.386047	
-0.387878	
-0.386597	
-0.385864	
-0.385498	
-0.386414	
-0.385925	
-0.385315	
-0.385132	
-0.384766	
-0.38501	
-0.385681	
-0.385742	
-0.384888	
-0.38385	
-0.384094	
-0.385071	
-0.385071	
-0.385803	
-0.38501	
-0.385315	
-0.385254	
-0.386047	
-0.385803	
-0.386108	
-0.385864	
-0.386902	
-0.386597	
-0.387146	
-0.387695	
-0.38678	
-0.386902	
-0.386597	
-0.387634	
-0.386719	
-0.386902	
-0.386536	
-0.387878	
-0.386902	
-0.387573	
-0.387573	
-0.387207	
-0.387451	
-0.387085	
-0.386658	
-0.386841	
-0.386292	
-0.387024	
-0.387512	
-0.386902	
-0.387756	
-0.387329	
-0.388367	
-0.388062	
-0.387817	
-0.388123	
-0.388489	
-0.388794	
-0.389587	
-0.388977	
-0.388489	
-0.390137	
-0.388306	
-0.389038	
-0.389099	
-0.389648	
-0.388855	
-0.388428	
-0.387329	
-0.387939	
-0.387695	
-0.387695	
-0.388428	
-0.387878	
-0.388367	
-0.387634	
-0.388123	
-0.387939	
-0.386658	
-0.387634	
-0.388672	
-0.388123	
-0.387939	
-0.387085	
-0.386841	
-0.387024	
-0.386841	
-0.387146	
-0.386841	
-0.38562	
-0.387329	
-0.387695	
-0.387939	
-0.388428	
-0.387756	
-0.387512	
-0.387878	
-0.387329	
-0.387695	
-0.387207	
-0.387756	
-0.388306	
-0.388062	
-0.387939	
-0.389099	
-0.388062	
-0.387573	
-0.387695	
-0.388062	
-0.387634	
-0.386963	
-0.388062	
-0.388733	
-0.387878	
-0.388306	
-0.387756	
	
