E:\DOCUMENTS AND SETTINGS\JPOTAS\MEUS DOCUMENTOS\UFRJ\RSCI-BM 12 WK SERIES\070727-RSCI-BM-05\RSCI-BM-05-REMG\070727-RSCI-BM-05-REMG-0007.ACQ
0.025000 msec/sample
1 channel
Analog input
Volts
CH1	
2000	
-0.385254	
-0.385437	
-0.384277	
-0.385132	
-0.384888	
-0.384949	
-0.385132	
-0.385132	
-0.385498	
-0.384583	
-0.385437	
-0.38501	
-0.385315	
-0.384705	
-0.385193	
-0.38324	
-0.384827	
-0.384583	
-0.38446	
-0.384216	
-0.384644	
-0.384705	
-0.384094	
-0.38385	
-0.38324	
-0.383972	
-0.38324	
-0.384216	
-0.382568	
-0.384094	
-0.38385	
-0.385254	
-0.385132	
-0.386169	
-0.38501	
-0.384521	
-0.386108	
-0.386658	
-0.386597	
-0.386169	
-0.386719	
-0.385803	
-0.387451	
-0.386841	
-0.387207	
-0.385925	
-0.386963	
-0.385742	
-0.386902	
-0.385864	
-0.385559	
-0.385071	
-0.384521	
-0.385254	
-0.383789	
-0.382996	
-0.382568	
-0.382874	
-0.382751	
-0.383118	
-0.381531	
-0.382263	
-0.382263	
-0.382874	
-0.38324	
-0.383118	
-0.381836	
-0.382751	
-0.383484	
-0.384338	
-0.384766	
-0.383484	
-0.383972	
-0.383728	
-0.384705	
-0.384094	
-0.384766	
-0.383423	
-0.385132	
-0.38385	
-0.384583	
-0.384033	
-0.384033	
-0.383789	
-0.382568	
-0.384155	
-0.384094	
-0.383911	
-0.383545	
-0.384521	
-0.383423	
-0.384644	
-0.383423	
-0.383972	
-0.38385	
-0.385437	
-0.385193	
-0.384888	
-0.384583	
-0.384521	
-0.385132	
-0.384705	
-0.385681	
-0.384766	
-0.38562	
-0.38446	
-0.385742	
-0.385193	
-0.385437	
-0.383789	
-0.384399	
-0.384155	
-0.384399	
-0.384155	
-0.383362	
-0.383423	
-0.38269	
-0.38324	
-0.382813	
-0.382019	
-0.381592	
-0.382507	
-0.381226	
-0.382324	
-0.381836	
-0.381409	
-0.381165	
-0.382141	
-0.382751	
-0.381836	
-0.381714	
-0.381531	
-0.382385	
-0.382141	
-0.382629	
-0.381775	
-0.382751	
-0.383118	
-0.384094	
-0.383423	
-0.383728	
-0.382629	
-0.381714	
-0.382568	
-0.383423	
-0.383667	
-0.382996	
-0.383179	
-0.382629	
-0.384094	
-0.38324	
-0.382874	
-0.381775	
-0.383118	
-0.381897	
-0.382751	
-0.382141	
-0.381714	
-0.381958	
-0.381958	
-0.382507	
-0.381775	
-0.381348	
-0.381042	
-0.381531	
-0.381897	
-0.38208	
-0.380066	
-0.381409	
-0.38208	
-0.382446	
-0.382263	
-0.382324	
-0.381226	
-0.381287	
-0.38208	
-0.383118	
-0.382813	
-0.382019	
-0.382263	
-0.382507	
-0.38385	
-0.382813	
-0.383606	
-0.382202	
-0.38385	
-0.382446	
-0.383179	
-0.382019	
-0.382996	
-0.382751	
-0.382751	
-0.382874	
-0.383301	
-0.382263	
-0.381836	
-0.383423	
-0.378052	
-0.378296	
-0.376465	
-0.37738	
-0.376587	
-0.378052	
-0.380859	
-0.381775	
-0.38208	
-0.382568	
-0.383728	
-0.38385	
-0.384277	
-0.383484	
-0.384766	
-0.384033	
-0.386353	
-0.38562	
-0.386353	
-0.385559	
-0.386597	
-0.386047	
-0.386414	
-0.386902	
-0.386169	
-0.385986	
-0.384705	
-0.386047	
-0.385193	
-0.385315	
-0.38324	
-0.384277	
-0.382202	
-0.382935	
-0.382568	
-0.381958	
-0.381592	
-0.381836	
-0.382019	
-0.380798	
-0.38092	
-0.380554	
-0.381042	
-0.381104	
-0.381775	
-0.380005	
-0.380066	
-0.380737	
-0.38147	
-0.381653	
-0.38092	
-0.379639	
-0.379578	
-0.380981	
-0.381226	
-0.381042	
-0.379883	
-0.380737	
-0.380249	
-0.381226	
-0.380737	
-0.380737	
-0.380249	
-0.380737	
-0.380127	
-0.382202	
-0.381348	
-0.38147	
-0.381042	
-0.381226	
-0.381958	
-0.381409	
-0.38147	
-0.381897	
-0.383301	
-0.382813	
-0.38324	
-0.382385	
-0.384155	
-0.383789	
-0.384521	
-0.384766	
-0.385315	
-0.384155	
-0.384094	
-0.384583	
-0.38562	
-0.386169	
-0.38501	
-0.386047	
-0.386353	
-0.38739	
-0.387146	
-0.388123	
-0.387329	
-0.389587	
-0.388611	
-0.390015	
-0.390747	
-0.391602	
-0.392639	
-0.39386	
-0.395142	
-0.396118	
-0.396667	
-0.397705	
-0.39978	
-0.400146	
-0.401917	
-0.401428	
-0.403748	
-0.404175	
-0.405945	
-0.40741	
-0.409912	
-0.410522	
-0.412354	
-0.413574	
-0.414795	
-0.415833	
-0.415466	
-0.414856	
-0.41748	
-0.418823	
-0.420471	
-0.421082	
-0.42572	
-0.430115	
-0.432739	
-0.435242	
-0.437622	
-0.440308	
-0.442749	
-0.445801	
-0.447205	
-0.449707	
-0.451294	
-0.454224	
-0.455139	
-0.458984	
-0.45929	
-0.462708	
-0.464539	
-0.467834	
-0.469421	
-0.471069	
-0.473022	
-0.475281	
-0.475342	
-0.477234	
-0.47699	
-0.478516	
-0.479309	
-0.480957	
-0.481689	
-0.482178	
-0.484314	
-0.484009	
-0.483765	
-0.48407	
-0.484192	
-0.484924	
-0.484009	
-0.485168	
-0.483948	
-0.482544	
-0.481201	
-0.479492	
-0.478699	
-0.477051	
-0.476807	
-0.474792	
-0.473999	
-0.472046	
-0.472717	
-0.471802	
-0.471436	
-0.470764	
-0.470398	
-0.469116	
-0.468628	
-0.466797	
-0.465271	
-0.464783	
-0.463928	
-0.463684	
-0.462708	
-0.462524	
-0.460205	
-0.460938	
-0.458313	
-0.459595	
-0.456909	
-0.456909	
-0.456299	
-0.456177	
-0.454895	
-0.453674	
-0.45166	
-0.450012	
-0.449341	
-0.447937	
-0.447144	
-0.444458	
-0.442322	
-0.439148	
-0.438293	
-0.436279	
-0.435242	
-0.431702	
-0.431396	
-0.428772	
-0.427612	
-0.424683	
-0.422241	
-0.420654	
-0.418823	
-0.416687	
-0.414246	
-0.412476	
-0.409729	
-0.408142	
-0.403931	
-0.40271	
-0.400635	
-0.398315	
-0.396057	
-0.39447	
-0.392761	
-0.389954	
-0.388245	
-0.386475	
-0.385559	
-0.383179	
-0.382629	
-0.379883	
-0.379822	
-0.379395	
-0.380066	
-0.378235	
-0.378418	
-0.377502	
-0.37793	
-0.378479	
-0.379272	
-0.380005	
-0.380676	
-0.382202	
-0.383667	
-0.385376	
-0.387146	
-0.390015	
-0.391785	
-0.39447	
-0.394531	
-0.398071	
-0.399231	
-0.402649	
-0.404541	
-0.407898	
-0.410645	
-0.412537	
-0.414612	
-0.417786	
-0.420044	
-0.422241	
-0.425171	
-0.426086	
-0.429138	
-0.429504	
-0.432495	
-0.434692	
-0.437195	
-0.437134	
-0.439575	
-0.441406	
-0.443726	
-0.445679	
-0.44751	
-0.448914	
-0.44928	
-0.450623	
-0.450928	
-0.450928	
-0.450439	
-0.452209	
-0.450806	
-0.451599	
-0.450928	
-0.451233	
-0.450684	
-0.451294	
-0.451172	
-0.450134	
-0.449463	
-0.448547	
-0.44928	
-0.448364	
-0.448792	
-0.445801	
-0.446472	
-0.445313	
-0.445496	
-0.444397	
-0.443298	
-0.441101	
-0.440796	
-0.440125	
-0.439148	
-0.438599	
-0.436096	
-0.436401	
-0.434631	
-0.435486	
-0.434204	
-0.433533	
-0.430908	
-0.430725	
-0.429932	
-0.430176	
-0.429199	
-0.427612	
-0.427368	
-0.425903	
-0.425964	
-0.424438	
-0.424133	
-0.421814	
-0.42157	
-0.418762	
-0.418213	
-0.416626	
-0.414612	
-0.412964	
-0.411743	
-0.409973	
-0.407104	
-0.404114	
-0.401489	
-0.39917	
-0.395752	
-0.393005	
-0.388062	
-0.385742	
-0.382507	
-0.380432	
-0.376526	
-0.373169	
-0.36908	
-0.366211	
-0.36377	
-0.361389	
-0.358704	
-0.35675	
-0.355103	
-0.352539	
-0.351929	
-0.350891	
-0.350342	
-0.348572	
-0.34906	
-0.346497	
-0.347656	
-0.346924	
-0.347778	
-0.3479	
-0.349792	
-0.350037	
-0.350281	
-0.349976	
-0.349976	
-0.351196	
-0.351929	
-0.352661	
-0.351685	
-0.353027	
-0.352539	
-0.354004	
-0.354492	
-0.355591	
-0.35437	
-0.356873	
-0.355408	
-0.356384	
-0.356506	
-0.357971	
-0.359314	
-0.359924	
-0.360535	
-0.360901	
-0.361511	
-0.361328	
-0.362427	
-0.363708	
-0.363647	
-0.364136	
-0.36438	
-0.364868	
-0.366089	
-0.365967	
-0.366089	
-0.366577	
-0.366333	
-0.367188	
-0.367126	
-0.366699	
-0.366272	
-0.365112	
-0.365967	
-0.365845	
-0.365906	
-0.365723	
-0.365967	
-0.365051	
-0.366577	
-0.36615	
-0.366638	
-0.36554	
-0.366333	
-0.367065	
-0.368103	
-0.367981	
-0.368164	
-0.367249	
-0.369446	
-0.368774	
-0.368713	
-0.369141	
-0.370667	
-0.371216	
-0.37207	
-0.371521	
-0.373047	
-0.372437	
-0.373657	
-0.373108	
-0.37384	
-0.374695	
-0.375916	
-0.376038	
-0.375366	
-0.375671	
-0.376099	
-0.376404	
-0.376709	
-0.377136	
-0.376709	
-0.376831	
-0.376648	
-0.37677	
-0.377014	
-0.377625	
-0.377808	
-0.376709	
-0.37616	
-0.377075	
-0.377625	
-0.377136	
-0.377441	
-0.377869	
-0.377869	
-0.377686	
-0.376709	
-0.375916	
-0.37677	
-0.37677	
-0.378296	
-0.377563	
-0.377563	
-0.377808	
-0.37793	
-0.37793	
-0.378174	
-0.37793	
-0.377869	
-0.37677	
-0.37854	
-0.378174	
-0.378052	
-0.378784	
-0.378479	
-0.378052	
-0.377808	
-0.379211	
-0.378479	
-0.377747	
-0.378113	
-0.379761	
-0.378784	
-0.378784	
-0.377991	
-0.379089	
-0.379028	
-0.378967	
-0.37915	
-0.378113	
-0.378235	
-0.378967	
-0.378601	
-0.378662	
-0.3797	
-0.380615	
-0.380798	
-0.380188	
-0.380615	
-0.380859	
-0.381409	
-0.382263	
-0.381836	
-0.381592	
-0.382019	
-0.382751	
-0.382202	
-0.382507	
-0.38092	
-0.383057	
-0.381165	
-0.382324	
-0.381897	
-0.381897	
-0.381042	
-0.380371	
-0.380859	
-0.38031	
-0.379456	
-0.378662	
-0.378235	
-0.37793	
-0.378845	
-0.378418	
-0.377991	
-0.378113	
-0.378967	
-0.378906	
-0.378967	
-0.378601	
-0.378174	
-0.380005	
-0.380066	
-0.381165	
-0.38031	
-0.380371	
-0.380249	
-0.381104	
-0.380676	
-0.381592	
-0.379883	
-0.379883	
-0.380066	
-0.378723	
-0.380615	
-0.380127	
-0.379639	
-0.378601	
-0.380249	
-0.379944	
-0.381165	
-0.379395	
-0.380005	
-0.379456	
-0.380432	
-0.380676	
-0.380066	
-0.380798	
-0.381104	
-0.382324	
-0.381042	
-0.381226	
-0.381775	
-0.382019	
-0.381714	
-0.382813	
-0.381836	
-0.381714	
-0.38147	
-0.382874	
-0.382385	
-0.38269	
-0.381409	
-0.38147	
-0.381165	
-0.381165	
-0.381104	
-0.380615	
-0.380249	
-0.37915	
-0.380371	
-0.379456	
-0.379822	
-0.377869	
-0.378845	
-0.377869	
-0.379028	
-0.379028	
-0.378601	
-0.378052	
-0.378296	
-0.378479	
-0.378296	
-0.377808	
-0.378052	
-0.377869	
-0.37793	
-0.37915	
-0.37915	
-0.378723	
-0.378723	
-0.379028	
-0.37915	
-0.380615	
-0.37793	
-0.37793	
-0.377747	
-0.378662	
-0.379944	
-0.378723	
-0.378662	
-0.378174	
-0.379456	
-0.379395	
-0.379822	
-0.377014	
-0.378113	
-0.377502	
-0.378967	
-0.378296	
-0.37854	
-0.377991	
-0.378723	
-0.378296	
-0.378479	
-0.378113	
-0.377502	
-0.377991	
-0.378235	
-0.378906	
-0.378479	
-0.378845	
-0.378906	
-0.380127	
-0.380737	
-0.381165	
-0.379211	
-0.379333	
-0.379456	
-0.380676	
-0.381531	
-0.380737	
-0.38092	
-0.380554	
-0.382141	
-0.381531	
-0.381958	
-0.380249	
-0.38092	
-0.379639	
-0.381348	
-0.381409	
-0.381226	
-0.381165	
-0.381104	
-0.381409	
-0.380859	
-0.379944	
-0.380005	
-0.379395	
-0.379333	
-0.379761	
-0.379517	
-0.378906	
-0.379456	
-0.380005	
-0.379822	
-0.379761	
-0.379272	
-0.3797	
-0.380432	
-0.380981	
-0.381897	
-0.381653	
-0.382019	
-0.381897	
-0.38269	
-0.38208	
-0.38385	
-0.381531	
-0.382568	
-0.381531	
-0.383362	
-0.383789	
-0.38269	
-0.382324	
-0.382202	
-0.383057	
-0.381836	
-0.382446	
-0.379883	
-0.380554	
-0.377808	
-0.379578	
-0.37915	
-0.378662	
-0.378479	
-0.37854	
-0.378662	
-0.378357	
-0.378357	
-0.37738	
-0.377136	
-0.375671	
-0.377563	
-0.37677	
-0.376343	
-0.37616	
-0.377502	
-0.377136	
-0.377686	
-0.375244	
-0.375	
-0.374512	
-0.375244	
-0.37616	
-0.374939	
-0.375	
-0.374207	
-0.375305	
-0.375305	
-0.375488	
-0.373291	
-0.374207	
-0.373352	
-0.374756	
-0.374878	
-0.374634	
-0.37439	
-0.374207	
-0.375427	
-0.374878	
-0.376282	
-0.375366	
-0.375366	
-0.374939	
-0.376648	
-0.376526	
-0.376892	
-0.37677	
-0.377686	
-0.378235	
-0.378113	
-0.377197	
-0.376099	
-0.377014	
-0.378052	
-0.378418	
-0.377869	
-0.378174	
-0.378296	
-0.379272	
-0.379395	
-0.378906	
-0.376892	
-0.377136	
-0.377625	
-0.378418	
-0.377747	
-0.37738	
-0.377808	
-0.376831	
-0.377747	
-0.377563	
-0.378052	
-0.377258	
-0.377136	
-0.376343	
-0.377258	
-0.37738	
-0.377136	
-0.377563	
-0.378235	
-0.378662	
-0.37854	
-0.377686	
-0.37793	
-0.377869	
-0.377991	
-0.378784	
-0.377991	
-0.377747	
-0.378296	
-0.379578	
-0.379028	
-0.379883	
-0.377869	
-0.37793	
-0.377686	
-0.37854	
-0.379272	
-0.378784	
-0.378845	
-0.377991	
-0.37915	
-0.378906	
-0.379761	
-0.378235	
-0.378296	
-0.376953	
-0.378906	
-0.378845	
-0.378479	
-0.378723	
-0.379272	
-0.379028	
-0.379272	
-0.379089	
-0.378845	
-0.378418	
-0.378479	
-0.379761	
-0.379028	
-0.379456	
-0.379272	
-0.380432	
-0.380493	
-0.381287	
-0.379883	
-0.379578	
-0.380188	
-0.381226	
-0.381775	
-0.380981	
-0.381226	
-0.381104	
-0.382202	
-0.381287	
-0.382263	
-0.379089	
-0.379639	
-0.378418	
-0.379822	
-0.379639	
-0.379272	
-0.378784	
-0.378418	
-0.37915	
-0.379089	
-0.379578	
-0.378174	
-0.378052	
-0.377502	
-0.378906	
-0.378723	
-0.378906	
-0.379395	
-0.380371	
-0.381897	
-0.381897	
-0.38092	
-0.381226	
-0.382019	
-0.383179	
-0.383484	
-0.382202	
-0.382629	
-0.383118	
-0.383789	
-0.383423	
-0.383789	
-0.381592	
-0.381836	
-0.381042	
-0.382019	
-0.381775	
-0.381042	
-0.380615	
-0.379883	
-0.380493	
-0.380371	
-0.381165	
-0.380676	
-0.380615	
-0.37915	
-0.380432	
-0.381104	
-0.380615	
-0.381348	
-0.381409	
-0.381775	
-0.38147	
-0.380554	
-0.381348	
-0.381531	
-0.381042	
-0.382629	
-0.381775	
-0.381592	
-0.381714	
-0.382751	
-0.381836	
-0.382324	
-0.380371	
-0.37915	
-0.379395	
-0.379944	
-0.380798	
-0.380554	
-0.380188	
-0.378967	
-0.380676	
-0.380249	
-0.381592	
-0.3797	
-0.380798	
-0.379272	
-0.38147	
-0.381348	
-0.38147	
-0.381165	
-0.381836	
-0.382507	
-0.382202	
-0.38269	
-0.382141	
-0.382751	
-0.381836	
-0.383484	
-0.382751	
-0.383423	
-0.382935	
-0.384827	
-0.38446	
-0.384949	
-0.383606	
-0.381897	
-0.38269	
-0.383423	
-0.384033	
-0.382324	
-0.382507	
-0.381409	
-0.382996	
-0.38269	
-0.382629	
-0.380554	
-0.381104	
-0.380859	
-0.382629	
-0.38208	
-0.382202	
-0.382019	
-0.382019	
-0.382263	
-0.382324	
-0.382935	
-0.381042	
-0.381714	
-0.381592	
-0.382751	
-0.382568	
-0.382751	
-0.382813	
-0.383606	
-0.384277	
-0.384277	
-0.383301	
-0.382874	
-0.383606	
-0.383972	
-0.38446	
-0.383728	
-0.383911	
-0.384094	
-0.384521	
-0.384216	
-0.384644	
-0.382751	
-0.382629	
-0.382813	
-0.383667	
-0.383789	
-0.383545	
-0.383484	
-0.382324	
-0.38324	
-0.382996	
-0.383362	
-0.381531	
-0.38269	
-0.382629	
-0.382507	
-0.382751	
-0.382874	
-0.382935	
-0.383423	
-0.383728	
-0.38385	
-0.383118	
-0.383362	
-0.382996	
-0.382324	
-0.384277	
-0.383484	
-0.383545	
-0.383667	
-0.385132	
-0.384521	
-0.384888	
-0.383484	
-0.382751	
-0.382019	
-0.383057	
-0.38324	
-0.382141	
-0.38147	
-0.380249	
-0.381409	
-0.381104	
-0.381592	
-0.378723	
-0.379883	
-0.378784	
-0.379761	
-0.3797	
-0.3797	
-0.379578	
-0.380127	
-0.380737	
-0.381104	
-0.381226	
-0.380371	
-0.381409	
-0.380737	
-0.382874	
-0.382751	
-0.383545	
-0.383362	
-0.385193	
-0.385376	
-0.38562	
-0.384888	
-0.384033	
-0.38446	
-0.385315	
-0.385864	
-0.38501	
-0.384888	
-0.384827	
-0.38562	
-0.38623	
-0.386658	
-0.384644	
-0.384888	
-0.384888	
-0.386475	
-0.386414	
-0.386108	
-0.385925	
-0.38562	
-0.386841	
-0.386719	
-0.386841	
-0.385315	
-0.386108	
-0.385376	
-0.386536	
-0.386414	
-0.386841	
-0.386475	
-0.386536	
-0.387085	
-0.386597	
-0.385803	
-0.384949	
-0.384888	
-0.385376	
-0.38623	
-0.384705	
-0.384033	
-0.383728	
-0.385315	
-0.384644	
-0.384766	
-0.383423	
-0.382568	
-0.382874	
-0.383362	
-0.38385	
-0.383484	
-0.383789	
-0.382446	
-0.383911	
-0.383911	
-0.384033	
-0.382507	
-0.383728	
-0.38269	
-0.384216	
-0.384705	
-0.384521	
-0.384338	
-0.384888	
-0.385681	
-0.385437	
-0.38446	
-0.384705	
-0.384521	
-0.384399	
-0.385498	
-0.385376	
-0.384827	
-0.384583	
-0.385803	
-0.384888	
-0.385681	
-0.384399	
-0.383606	
-0.383545	
-0.384155	
-0.384888	
-0.384705	
-0.384827	
-0.382813	
-0.38501	
-0.384094	
-0.385071	
-0.382507	
-0.383362	
-0.382935	
-0.384094	
-0.383362	
-0.383179	
-0.382935	
-0.383972	
-0.384094	
-0.384216	
-0.384338	
-0.383179	
-0.38385	
-0.382446	
-0.384766	
-0.383789	
-0.38385	
-0.383911	
-0.384521	
-0.384583	
-0.385376	
-0.384277	
-0.382385	
-0.383362	
-0.384766	
-0.384949	
-0.383972	
-0.384216	
-0.383606	
-0.384888	
-0.384399	
-0.384399	
-0.382813	
-0.383301	
-0.381775	
-0.383606	
-0.383545	
-0.382935	
-0.382874	
-0.383057	
-0.383972	
-0.384338	
-0.384399	
-0.383545	
-0.385193	
-0.38446	
-0.385742	
-0.385803	
-0.386475	
-0.385864	
-0.386536	
-0.387695	
-0.387329	
-0.385925	
-0.386414	
-0.386292	
-0.386536	
-0.387207	
-0.387329	
-0.386475	
-0.386353	
-0.387207	
-0.38623	
-0.38623	
-0.384033	
-0.382996	
-0.382446	
-0.383301	
-0.383972	
-0.382874	
-0.382507	
-0.381836	
-0.38324	
-0.382263	
-0.382996	
-0.380493	
-0.382324	
-0.381348	
-0.383484	
-0.383545	
-0.384155	
-0.384399	
-0.384583	
-0.38501	
-0.384705	
-0.38385	
-0.383728	
-0.384094	
-0.383179	
-0.385132	
-0.384888	
-0.38446	
-0.383911	
-0.385559	
-0.385559	
-0.385681	
-0.383606	
-0.382935	
-0.383179	
-0.384155	
-0.385315	
-0.384216	
-0.384155	
-0.382996	
-0.384644	
-0.384399	
-0.385193	
-0.383179	
-0.384705	
-0.384521	
-0.385681	
-0.385681	
-0.384888	
-0.384338	
-0.384338	
-0.38562	
-0.386658	
-0.385864	
-0.384949	
-0.384277	
-0.384216	
-0.384949	
-0.384949	
-0.384155	
-0.384155	
-0.384277	
-0.384705	
-0.38501	
-0.383118	
-0.381165	
-0.381226	
-0.38269	
-0.382629	
-0.381531	
-0.381958	
-0.381409	
-0.383057	
-0.382629	
-0.38269	
-0.380859	
-0.380676	
-0.381287	
-0.381775	
-0.382019	
-0.382263	
-0.381897	
-0.382751	
-0.383484	
-0.383789	
-0.383911	
-0.383179	
-0.383362	
-0.382202	
-0.383362	
-0.382813	
-0.38324	
-0.383545	
-0.384338	
-0.384521	
-0.384521	
-0.383118	
-0.383057	
-0.382629	
-0.383667	
-0.383911	
-0.382996	
-0.383179	
-0.382568	
-0.383911	
-0.383118	
-0.383484	
-0.381775	
-0.381714	
-0.380981	
-0.382568	
-0.382629	
-0.38208	
-0.382019	
-0.381042	
-0.382751	
-0.382324	
-0.383118	
-0.381958	
-0.382629	
-0.381958	
-0.382568	
-0.38269	
-0.383118	
-0.382996	
-0.383301	
-0.383667	
-0.384399	
-0.38324	
-0.382874	
-0.383362	
-0.383728	
-0.384888	
-0.383484	
-0.383667	
-0.383362	
-0.384583	
-0.384094	
-0.384399	
-0.382751	
-0.381775	
-0.382141	
-0.383118	
-0.383606	
-0.382813	
-0.383362	
-0.381897	
-0.382874	
-0.382874	
-0.383667	
-0.381348	
-0.381958	
-0.381897	
-0.383606	
-0.383789	
-0.383667	
-0.384705	
-0.385254	
-0.385681	
-0.386536	
-0.386414	
-0.385925	
-0.386536	
-0.385681	
-0.38739	
-0.386597	
-0.386963	
-0.386719	
-0.388184	
-0.387756	
-0.387817	
-0.386963	
-0.385193	
-0.385376	
-0.386047	
-0.386108	
-0.38446	
-0.384521	
-0.383057	
-0.384094	
-0.383362	
-0.382996	
-0.380615	
-0.381531	
-0.381897	
-0.38269	
-0.382141	
-0.382568	
-0.381836	
-0.380859	
-0.381653	
-0.382019	
-0.381348	
-0.380676	
-0.381165	
-0.380737	
-0.38147	
-0.381042	
-0.381104	
-0.381165	
-0.38147	
-0.381775	
-0.381531	
-0.380493	
-0.380554	
-0.380371	
-0.380737	
-0.381897	
-0.381104	
-0.381653	
-0.381226	
-0.382324	
-0.381653	
-0.382263	
-0.380676	
-0.381348	
-0.380493	
-0.381897	
-0.383667	
-0.383362	
-0.383667	
-0.383118	
-0.384033	
-0.383606	
-0.384338	
-0.383362	
-0.384705	
-0.383301	
-0.38501	
-0.384644	
-0.384583	
-0.384338	
-0.384827	
-0.385925	
-0.385254	
-0.384827	
-0.384155	
-0.385132	
-0.384766	
-0.385376	
-0.384827	
-0.384033	
-0.383606	
-0.384888	
-0.38446	
-0.384949	
-0.383301	
-0.382263	
-0.383606	
-0.383301	
-0.384583	
-0.383179	
-0.382996	
-0.38269	
-0.383972	
-0.383545	
-0.384521	
-0.382996	
-0.38324	
-0.383362	
-0.384155	
-0.384155	
-0.38385	
-0.383789	
-0.384155	
-0.384827	
-0.38501	
-0.384644	
-0.384399	
-0.384644	
-0.383362	
-0.385193	
-0.38501	
-0.384949	
-0.384949	
-0.385864	
-0.38623	
-0.386353	
-0.384521	
-0.384033	
-0.384583	
-0.385437	
-0.385376	
-0.385071	
-0.384644	
-0.384583	
-0.385315	
-0.384949	
-0.385742	
-0.38324	
-0.384521	
-0.383606	
-0.385071	
-0.385254	
-0.384766	
-0.384338	
-0.384399	
-0.385559	
-0.38562	
-0.385925	
-0.385376	
-0.386108	
-0.384521	
-0.385925	
-0.385925	
-0.385925	
-0.385803	
-0.387268	
-0.387634	
-0.386841	
-0.385925	
-0.385925	
-0.385376	
-0.384766	
-0.385254	
-0.38446	
-0.384399	
-0.384155	
-0.384583	
-0.384216	
-0.384338	
-0.382446	
-0.383179	
-0.382385	
-0.383423	
-0.384094	
-0.383179	
-0.382935	
-0.382507	
-0.384216	
-0.383728	
-0.38562	
-0.384155	
-0.386047	
-0.384277	
-0.387024	
-0.386841	
-0.38678	
-0.387634	
-0.387878	
-0.388367	
-0.387634	
-0.388123	
-0.387573	
-0.388	
-0.386719	
-0.388245	
-0.387268	
-0.387024	
-0.386414	
-0.38739	
-0.386719	
-0.387329	
-0.385742	
-0.384338	
-0.385437	
-0.38623	
-0.387268	
-0.385559	
-0.385864	
-0.385315	
-0.386963	
-0.386353	
-0.387695	
-0.385376	
-0.385925	
-0.384949	
-0.387146	
-0.386963	
-0.387085	
-0.386902	
-0.387512	
-0.388367	
-0.387878	
-0.387329	
-0.386414	
-0.386292	
-0.385193	
-0.386902	
-0.386536	
-0.385986	
-0.385864	
-0.387024	
-0.386597	
-0.386047	
-0.385864	
-0.385132	
-0.386108	
-0.386597	
-0.387573	
-0.386475	
-0.386963	
-0.386475	
-0.388367	
-0.387329	
-0.388855	
-0.386597	
-0.387878	
-0.387573	
-0.389099	
-0.389404	
-0.389343	
-0.389221	
-0.389465	
-0.390503	
-0.389893	
-0.390198	
-0.389832	
-0.390991	
-0.389343	
-0.390076	
-0.389893	
-0.390137	
-0.389771	
-0.390137	
-0.389343	
-0.388672	
-0.388306	
-0.387329	
-0.388367	
-0.388123	
-0.389221	
-0.388855	
-0.388672	
-0.388489	
-0.389038	
-0.388184	
-0.389465	
-0.387329	
-0.388916	
-0.388367	
-0.387939	
-0.389282	
-0.388672	
-0.388794	
-0.387939	
-0.390198	
-0.389038	
-0.390381	
-0.38916	
-0.389893	
-0.388672	
-0.389771	
-0.390015	
-0.389954	
-0.390137	
-0.39032	
-0.390808	
-0.390564	
-0.390625	
-0.388977	
-0.389954	
-0.388977	
-0.390625	
-0.390137	
-0.389709	
-0.389343	
-0.390747	
-0.389526	
-0.390381	
-0.388245	
-0.388977	
-0.388672	
-0.388733	
-0.389404	
-0.388672	
-0.388672	
-0.388	
-0.390015	
-0.389404	
-0.390381	
-0.387756	
-0.388733	
-0.388062	
-0.389771	
-0.389526	
-0.389709	
-0.389587	
-0.389587	
-0.390564	
-0.390442	
-0.390259	
-0.389038	
-0.390015	
-0.38916	
-0.390381	
-0.389587	
-0.389282	
-0.388123	
-0.389099	
-0.387939	
-0.388062	
-0.386841	
-0.385803	
-0.385986	
-0.386108	
-0.386841	
-0.385437	
-0.385559	
-0.385071	
-0.386658	
-0.385559	
-0.38623	
-0.38446	
-0.385498	
-0.384827	
-0.387146	
-0.387573	
-0.387634	
-0.388306	
-0.387939	
-0.389465	
-0.389648	
-0.39032	
-0.389343	
-0.390259	
-0.389038	
-0.390625	
-0.390808	
-0.391113	
-0.39093	
-0.391418	
-0.392578	
-0.39209	
-0.391907	
-0.390991	
-0.391418	
-0.390503	
-0.3927	
-0.392151	
-0.392029	
-0.391968	
-0.392761	
-0.392456	
-0.39325	
-0.391602	
-0.391235	
-0.391479	
-0.391846	
-0.392761	
-0.391968	
-0.392212	
-0.391296	
-0.393127	
-0.392395	
-0.393433	
-0.392212	
-0.392212	
-0.391418	
-0.391663	
-0.391846	
-0.391418	
-0.390869	
-0.390564	
-0.391357	
-0.390686	
-0.390503	
-0.389587	
-0.388672	
-0.387756	
-0.390137	
-0.389648	
-0.388977	
-0.388977	
-0.389648	
-0.390076	
-0.390015	
-0.388977	
-0.387695	
-0.388794	
-0.389099	
-0.389954	
-0.389343	
-0.389404	
-0.388672	
-0.39032	
-0.39093	
-0.391174	
-0.388794	
-0.388611	
-0.389465	
-0.390747	
-0.390869	
-0.390625	
-0.390503	
-0.390747	
-0.39032	
-0.39032	
-0.390625	
-0.390015	
-0.390076	
-0.389465	
-0.39032	
-0.389526	
-0.390198	
-0.389832	
-0.390442	
-0.390137	
-0.390503	
-0.389282	
-0.388489	
-0.388977	
-0.389465	
-0.390015	
-0.389099	
-0.388916	
-0.388977	
-0.389954	
-0.388611	
-0.390015	
-0.387512	
-0.388428	
-0.387268	
-0.389221	
-0.389038	
	
