E:\DOCUMENTS AND SETTINGS\JPOTAS\MEUS DOCUMENTOS\UFRJ\RSCI-BM 12 WK SERIES\070727-RSCI-BM-05\RSCI-BM-05-REMG\070727-RSCI-BM-05-REMG-0010.ACQ
0.025000 msec/sample
1 channel
Analog input
Volts
CH1	
2000	
-0.386292	
-0.386047	
-0.386902	
-0.385986	
-0.386414	
-0.385864	
-0.386719	
-0.387512	
-0.387085	
-0.38678	
-0.385742	
-0.38678	
-0.386902	
-0.387573	
-0.386963	
-0.386169	
-0.386292	
-0.387878	
-0.386963	
-0.387329	
-0.386841	
-0.386475	
-0.387451	
-0.387573	
-0.387573	
-0.387207	
-0.386963	
-0.385925	
-0.388367	
-0.38739	
-0.388123	
-0.386353	
-0.387085	
-0.386841	
-0.387268	
-0.386292	
-0.386047	
-0.386108	
-0.386292	
-0.387573	
-0.386414	
-0.386169	
-0.384277	
-0.385498	
-0.385315	
-0.386169	
-0.385681	
-0.384644	
-0.385864	
-0.386292	
-0.387207	
-0.386047	
-0.385925	
-0.385559	
-0.386353	
-0.385925	
-0.38623	
-0.385437	
-0.38501	
-0.383545	
-0.384644	
-0.383606	
-0.383606	
-0.382385	
-0.382263	
-0.382141	
-0.382324	
-0.382751	
-0.38208	
-0.382324	
-0.381592	
-0.382996	
-0.382751	
-0.382751	
-0.382019	
-0.383667	
-0.385071	
-0.384277	
-0.384705	
-0.384033	
-0.385132	
-0.385254	
-0.386414	
-0.386047	
-0.385437	
-0.385498	
-0.386414	
-0.386902	
-0.387878	
-0.387024	
-0.387146	
-0.386536	
-0.387573	
-0.387146	
-0.387573	
-0.386353	
-0.38501	
-0.386719	
-0.386841	
-0.386658	
-0.386414	
-0.386597	
-0.386108	
-0.388489	
-0.386963	
-0.387573	
-0.385803	
-0.386536	
-0.386414	
-0.387085	
-0.387207	
-0.386108	
-0.386475	
-0.387024	
-0.387573	
-0.387024	
-0.386658	
-0.386475	
-0.386719	
-0.386658	
-0.387268	
-0.386536	
-0.385071	
-0.385498	
-0.386719	
-0.386169	
-0.385681	
-0.384827	
-0.383972	
-0.384644	
-0.384644	
-0.38501	
-0.384155	
-0.383667	
-0.38324	
-0.385193	
-0.385071	
-0.384888	
-0.384644	
-0.384155	
-0.384216	
-0.38501	
-0.384888	
-0.384521	
-0.384766	
-0.385559	
-0.386108	
-0.385254	
-0.384888	
-0.38324	
-0.384705	
-0.38562	
-0.386108	
-0.384766	
-0.383179	
-0.384216	
-0.38501	
-0.386047	
-0.385498	
-0.384521	
-0.384705	
-0.38501	
-0.38562	
-0.385681	
-0.38501	
-0.383789	
-0.383484	
-0.384827	
-0.384094	
-0.38501	
-0.383484	
-0.383179	
-0.383484	
-0.383911	
-0.384155	
-0.383179	
-0.383667	
-0.383667	
-0.384949	
-0.384033	
-0.384521	
-0.38324	
-0.383789	
-0.383911	
-0.384399	
-0.383972	
-0.383057	
-0.383545	
-0.383972	
-0.385071	
-0.383423	
-0.383484	
-0.38324	
-0.383545	
-0.383667	
-0.383423	
-0.383545	
-0.374878	
-0.372925	
-0.374634	
-0.37439	
-0.374268	
-0.374023	
-0.381653	
-0.382996	
-0.382751	
-0.382751	
-0.381592	
-0.381409	
-0.380432	
-0.382568	
-0.381165	
-0.381592	
-0.380066	
-0.380859	
-0.380554	
-0.381287	
-0.381042	
-0.381165	
-0.381348	
-0.382202	
-0.382629	
-0.382874	
-0.383057	
-0.383057	
-0.383789	
-0.384094	
-0.385254	
-0.384644	
-0.384583	
-0.384888	
-0.385437	
-0.385193	
-0.384033	
-0.383362	
-0.382141	
-0.38269	
-0.382935	
-0.383423	
-0.381836	
-0.381653	
-0.380798	
-0.383301	
-0.382446	
-0.38324	
-0.381531	
-0.383118	
-0.383484	
-0.383545	
-0.383545	
-0.382446	
-0.382996	
-0.38324	
-0.384338	
-0.383362	
-0.383118	
-0.38208	
-0.383606	
-0.383484	
-0.383362	
-0.38324	
-0.382019	
-0.383362	
-0.38324	
-0.383484	
-0.382935	
-0.382385	
-0.38147	
-0.381775	
-0.381775	
-0.382324	
-0.381042	
-0.381104	
-0.380859	
-0.381958	
-0.381287	
-0.382263	
-0.380005	
-0.380798	
-0.381958	
-0.381775	
-0.381165	
-0.381226	
-0.381775	
-0.381226	
-0.382996	
-0.382141	
-0.38269	
-0.381287	
-0.383179	
-0.382996	
-0.38385	
-0.383972	
-0.384155	
-0.385864	
-0.387024	
-0.388184	
-0.388123	
-0.38916	
-0.389343	
-0.390503	
-0.391113	
-0.392944	
-0.393372	
-0.394348	
-0.393921	
-0.396484	
-0.396667	
-0.398499	
-0.398804	
-0.401428	
-0.401489	
-0.403992	
-0.404663	
-0.405273	
-0.406555	
-0.408264	
-0.4104	
-0.412537	
-0.41272	
-0.413818	
-0.416077	
-0.417725	
-0.419617	
-0.421143	
-0.423401	
-0.424622	
-0.428955	
-0.430969	
-0.432068	
-0.433899	
-0.43573	
-0.438721	
-0.440979	
-0.442749	
-0.444946	
-0.446594	
-0.450378	
-0.452881	
-0.454285	
-0.457275	
-0.459839	
-0.461914	
-0.463257	
-0.463623	
-0.465942	
-0.467529	
-0.469116	
-0.469849	
-0.469849	
-0.469971	
-0.47113	
-0.471558	
-0.472534	
-0.471863	
-0.471497	
-0.47168	
-0.472351	
-0.470825	
-0.471497	
-0.469604	
-0.468262	
-0.468018	
-0.466675	
-0.466431	
-0.464172	
-0.464783	
-0.463013	
-0.463928	
-0.463196	
-0.462585	
-0.461426	
-0.461914	
-0.462769	
-0.462402	
-0.461304	
-0.460693	
-0.460571	
-0.460327	
-0.459534	
-0.459106	
-0.456604	
-0.45459	
-0.454712	
-0.454102	
-0.45343	
-0.451538	
-0.450439	
-0.448425	
-0.44989	
-0.448669	
-0.448242	
-0.446533	
-0.44635	
-0.446167	
-0.444885	
-0.444031	
-0.442688	
-0.442078	
-0.440979	
-0.44043	
-0.438354	
-0.436279	
-0.433655	
-0.433411	
-0.431152	
-0.429932	
-0.427124	
-0.42511	
-0.422729	
-0.420898	
-0.419739	
-0.416321	
-0.413452	
-0.410278	
-0.40863	
-0.405334	
-0.403259	
-0.398499	
-0.395203	
-0.39209	
-0.389832	
-0.386292	
-0.383911	
-0.380127	
-0.376892	
-0.375366	
-0.37323	
-0.372375	
-0.368713	
-0.366943	
-0.364319	
-0.363831	
-0.361023	
-0.359619	
-0.356567	
-0.355286	
-0.353577	
-0.35144	
-0.350403	
-0.347534	
-0.347717	
-0.347595	
-0.348022	
-0.347778	
-0.347473	
-0.347046	
-0.348267	
-0.34906	
-0.349731	
-0.349976	
-0.350769	
-0.351257	
-0.354553	
-0.353943	
-0.35553	
-0.355225	
-0.356262	
-0.356445	
-0.358398	
-0.359253	
-0.360107	
-0.361206	
-0.361877	
-0.363831	
-0.363831	
-0.363586	
-0.363281	
-0.36554	
-0.365845	
-0.36676	
-0.365479	
-0.367249	
-0.366943	
-0.368347	
-0.366882	
-0.367615	
-0.367432	
-0.369995	
-0.36853	
-0.370178	
-0.369873	
-0.370728	
-0.371826	
-0.372986	
-0.373413	
-0.37439	
-0.373352	
-0.374695	
-0.373901	
-0.374878	
-0.374695	
-0.375488	
-0.375305	
-0.376221	
-0.375977	
-0.376892	
-0.375549	
-0.375977	
-0.374939	
-0.376038	
-0.375244	
-0.375366	
-0.375793	
-0.37561	
-0.375793	
-0.375366	
-0.374084	
-0.373413	
-0.374817	
-0.373901	
-0.373718	
-0.371887	
-0.372559	
-0.371765	
-0.373108	
-0.371765	
-0.371521	
-0.370667	
-0.37146	
-0.371033	
-0.371704	
-0.371094	
-0.370728	
-0.371094	
-0.371948	
-0.370972	
-0.372375	
-0.370728	
-0.371521	
-0.371521	
-0.371948	
-0.372192	
-0.371338	
-0.372314	
-0.371948	
-0.373596	
-0.373047	
-0.373718	
-0.372803	
-0.374329	
-0.374207	
-0.375	
-0.374634	
-0.375183	
-0.374756	
-0.377869	
-0.375977	
-0.376099	
-0.374573	
-0.375977	
-0.374695	
-0.375793	
-0.375	
-0.374634	
-0.374756	
-0.374939	
-0.373718	
-0.373779	
-0.371399	
-0.372986	
-0.37085	
-0.372131	
-0.372375	
-0.371826	
-0.372192	
-0.372742	
-0.373169	
-0.374146	
-0.373657	
-0.373657	
-0.373901	
-0.374268	
-0.374878	
-0.372925	
-0.373901	
-0.373108	
-0.374817	
-0.373291	
-0.373352	
-0.372192	
-0.373352	
-0.373352	
-0.374023	
-0.373962	
-0.373962	
-0.374023	
-0.374878	
-0.374512	
-0.374573	
-0.374084	
-0.374634	
-0.374817	
-0.374939	
-0.375916	
-0.37439	
-0.376465	
-0.374084	
-0.366821	
-0.368164	
-0.36792	
-0.367065	
-0.368347	
-0.375366	
-0.380432	
-0.379944	
-0.378845	
-0.379395	
-0.380371	
-0.379761	
-0.380615	
-0.37915	
-0.378296	
-0.380066	
-0.379944	
-0.381042	
-0.379883	
-0.380066	
-0.38031	
-0.381592	
-0.381592	
-0.381836	
-0.379578	
-0.380371	
-0.381592	
-0.381836	
-0.382568	
-0.381165	
-0.381897	
-0.381714	
-0.383423	
-0.383423	
-0.383484	
-0.383484	
-0.384521	
-0.384338	
-0.38501	
-0.384399	
-0.384155	
-0.384277	
-0.384888	
-0.384766	
-0.383911	
-0.382751	
-0.382996	
-0.384399	
-0.384094	
-0.38269	
-0.382385	
-0.382935	
-0.382751	
-0.383911	
-0.383057	
-0.383179	
-0.382874	
-0.382629	
-0.383484	
-0.383057	
-0.383301	
-0.382263	
-0.382629	
-0.381409	
-0.383423	
-0.38208	
-0.38147	
-0.380981	
-0.381836	
-0.381409	
-0.38147	
-0.381531	
-0.38031	
-0.381287	
-0.381226	
-0.381958	
-0.381409	
-0.381348	
-0.38147	
-0.381042	
-0.381287	
-0.381836	
-0.381104	
-0.381104	
-0.381592	
-0.381348	
-0.381653	
-0.382385	
-0.381592	
-0.380859	
-0.382446	
-0.38269	
-0.384521	
-0.38324	
-0.384277	
-0.385071	
-0.388062	
-0.388	
-0.389832	
-0.389404	
-0.391785	
-0.392334	
-0.394165	
-0.394836	
-0.394531	
-0.397278	
-0.398804	
-0.399414	
-0.401672	
-0.401245	
-0.401245	
-0.404053	
-0.405579	
-0.407104	
-0.406982	
-0.409363	
-0.409485	
-0.413269	
-0.41394	
-0.414734	
-0.415771	
-0.417542	
-0.419922	
-0.421448	
-0.421631	
-0.42334	
-0.424683	
-0.427368	
-0.429077	
-0.429077	
-0.429993	
-0.431763	
-0.433167	
-0.43573	
-0.435181	
-0.438049	
-0.439636	
-0.443237	
-0.445618	
-0.446167	
-0.447327	
-0.45166	
-0.453308	
-0.455811	
-0.457275	
-0.458801	
-0.460327	
-0.463928	
-0.464539	
-0.466248	
-0.466309	
-0.467957	
-0.469177	
-0.470154	
-0.470398	
-0.469727	
-0.470825	
-0.470581	
-0.47113	
-0.470337	
-0.469116	
-0.468079	
-0.467102	
-0.466492	
-0.466064	
-0.464478	
-0.463867	
-0.463318	
-0.463806	
-0.462708	
-0.463135	
-0.461182	
-0.46167	
-0.461182	
-0.461121	
-0.460999	
-0.459229	
-0.458679	
-0.457703	
-0.458923	
-0.457153	
-0.455872	
-0.453979	
-0.454529	
-0.453125	
-0.452576	
-0.450378	
-0.449036	
-0.448914	
-0.449341	
-0.449158	
-0.447693	
-0.44574	
-0.44397	
-0.44342	
-0.441223	
-0.440674	
-0.438538	
-0.43689	
-0.435974	
-0.435425	
-0.432922	
-0.431458	
-0.429077	
-0.42572	
-0.425842	
-0.423401	
-0.421997	
-0.419006	
-0.417175	
-0.41449	
-0.412964	
-0.409241	
-0.406128	
-0.4021	
-0.39978	
-0.39856	
-0.393677	
-0.390259	
-0.385803	
-0.383606	
-0.380432	
-0.378845	
-0.375549	
-0.372314	
-0.369141	
-0.367493	
-0.366455	
-0.363586	
-0.361572	
-0.359314	
-0.357666	
-0.355347	
-0.353699	
-0.351746	
-0.349548	
-0.347534	
-0.346802	
-0.346008	
-0.346558	
-0.346191	
-0.346008	
-0.345642	
-0.347717	
-0.347351	
-0.3479	
-0.348022	
-0.349487	
-0.350464	
-0.351379	
-0.351746	
-0.352966	
-0.353271	
-0.354431	
-0.356079	
-0.356873	
-0.356079	
-0.356873	
-0.357788	
-0.358765	
-0.360168	
-0.359741	
-0.36084	
-0.360352	
-0.36322	
-0.362854	
-0.362793	
-0.362366	
-0.36377	
-0.363892	
-0.363708	
-0.364868	
-0.363953	
-0.364136	
-0.365723	
-0.364868	
-0.363708	
-0.362671	
-0.363953	
-0.364624	
-0.364319	
-0.363281	
-0.36499	
-0.364563	
-0.365662	
-0.366028	
-0.365112	
-0.363464	
-0.365906	
-0.365845	
-0.365967	
-0.366882	
-0.367676	
-0.367615	
-0.369568	
-0.369019	
-0.368958	
-0.368591	
-0.369141	
-0.369629	
-0.369263	
-0.369019	
-0.368652	
-0.368347	
-0.368225	
-0.368408	
-0.368103	
-0.367065	
-0.366455	
-0.367981	
-0.367798	
-0.368347	
-0.368164	
-0.368408	
-0.367859	
-0.370361	
-0.369446	
-0.369202	
-0.367249	
-0.369507	
-0.369141	
-0.369812	
-0.368896	
-0.369812	
-0.369141	
-0.370667	
-0.3703	
-0.369507	
-0.368774	
-0.369202	
-0.369629	
-0.369873	
-0.369873	
-0.368835	
-0.369202	
-0.368835	
-0.369995	
-0.368835	
-0.367798	
-0.368652	
-0.368652	
-0.368469	
-0.368286	
-0.368896	
-0.367676	
-0.368958	
-0.368652	
-0.369385	
-0.369019	
-0.369263	
-0.369751	
-0.369812	
-0.370178	
-0.36853	
-0.369446	
-0.368896	
-0.371582	
-0.370972	
-0.370178	
-0.368103	
-0.3703	
-0.370483	
-0.37085	
-0.370361	
-0.369812	
-0.369873	
-0.370056	
-0.3703	
-0.370789	
-0.369385	
-0.368713	
-0.369019	
-0.369385	
-0.369812	
-0.368652	
-0.369019	
-0.368591	
-0.370605	
-0.3703	
-0.369812	
-0.369568	
-0.3703	
-0.371521	
-0.370483	
-0.370911	
-0.369812	
-0.369934	
-0.370605	
-0.371094	
-0.370239	
-0.370239	
-0.368713	
-0.371033	
-0.371338	
-0.371643	
-0.37085	
-0.369873	
-0.371033	
-0.372559	
-0.371765	
-0.372864	
-0.372253	
-0.37207	
-0.371948	
-0.372559	
-0.373047	
-0.372131	
-0.371704	
-0.370972	
-0.373047	
-0.37146	
-0.371643	
-0.371338	
-0.371643	
-0.371521	
-0.372253	
-0.371948	
-0.372314	
-0.371887	
-0.372437	
-0.374084	
-0.371887	
-0.372009	
-0.370483	
-0.371826	
-0.372864	
-0.373169	
-0.371826	
-0.371216	
-0.372314	
-0.372681	
-0.372314	
-0.373169	
-0.372864	
-0.372009	
-0.372925	
-0.373291	
-0.373535	
-0.373352	
-0.373108	
-0.372375	
-0.374512	
-0.374207	
-0.374207	
-0.373291	
-0.373901	
-0.373291	
-0.37384	
-0.373596	
-0.373413	
-0.373535	
-0.373291	
-0.375366	
-0.373474	
-0.373352	
-0.372742	
-0.372864	
-0.373474	
-0.37439	
-0.374084	
-0.373596	
-0.375305	
-0.375977	
-0.37738	
-0.377319	
-0.377075	
-0.376099	
-0.37738	
-0.37793	
-0.377869	
-0.377563	
-0.375916	
-0.376465	
-0.377319	
-0.377197	
-0.377441	
-0.375549	
-0.374207	
-0.375244	
-0.375061	
-0.374573	
-0.374146	
-0.373718	
-0.372437	
-0.374451	
-0.373413	
-0.373596	
-0.372437	
-0.372498	
-0.372253	
-0.373047	
-0.372375	
-0.372009	
-0.372009	
-0.372986	
-0.373779	
-0.372375	
-0.372192	
-0.371216	
-0.373108	
-0.372253	
-0.373657	
-0.372681	
-0.373047	
-0.372803	
-0.373474	
-0.373108	
-0.372864	
-0.372681	
-0.371582	
-0.372803	
-0.372314	
-0.373291	
-0.372437	
-0.37262	
-0.371643	
-0.374084	
-0.372803	
-0.373779	
-0.372681	
-0.37384	
-0.373413	
-0.374023	
-0.374329	
-0.372803	
-0.373779	
-0.373962	
-0.376099	
-0.374207	
-0.375305	
-0.374023	
-0.375488	
-0.374512	
-0.376099	
-0.375732	
-0.374878	
-0.375732	
-0.376038	
-0.376404	
-0.375793	
-0.375854	
-0.37439	
-0.375366	
-0.374451	
-0.375488	
-0.374695	
-0.375	
-0.374451	
-0.374573	
-0.375244	
-0.375305	
-0.374878	
-0.374817	
-0.375854	
-0.375427	
-0.375061	
-0.374695	
-0.374329	
-0.374268	
-0.375549	
-0.375366	
-0.375305	
-0.37439	
-0.374512	
-0.375244	
-0.376038	
-0.375244	
-0.374146	
-0.375244	
-0.375977	
-0.376221	
-0.376587	
-0.375793	
-0.376282	
-0.376282	
-0.376526	
-0.376892	
-0.376648	
-0.376282	
-0.376526	
-0.377869	
-0.376282	
-0.377197	
-0.375061	
-0.37561	
-0.377014	
-0.376892	
-0.377136	
-0.376099	
-0.376526	
-0.37616	
-0.377441	
-0.376709	
-0.377869	
-0.375916	
-0.377014	
-0.377441	
-0.377014	
-0.377502	
-0.376953	
-0.377319	
-0.377075	
-0.378723	
-0.377747	
-0.37793	
-0.378235	
-0.379272	
-0.378235	
-0.379822	
-0.379639	
-0.379089	
-0.3797	
-0.381348	
-0.381165	
-0.380066	
-0.3797	
-0.379456	
-0.380371	
-0.380127	
-0.380859	
-0.379578	
-0.379395	
-0.37915	
-0.379089	
-0.378296	
-0.378479	
-0.37738	
-0.376587	
-0.376587	
-0.376282	
-0.37616	
-0.375427	
-0.376099	
-0.376465	
-0.377991	
-0.377136	
-0.378174	
-0.377441	
-0.377869	
-0.377869	
-0.378723	
-0.378479	
-0.377502	
-0.378418	
-0.379211	
-0.37915	
-0.37854	
-0.37677	
-0.377136	
-0.378174	
-0.378235	
-0.378601	
-0.377686	
-0.377625	
-0.378174	
-0.378113	
-0.378052	
-0.378479	
-0.377502	
-0.378235	
-0.37793	
-0.378479	
-0.379089	
-0.378845	
-0.378723	
-0.37854	
-0.37915	
-0.37915	
-0.379272	
-0.378967	
-0.379639	
-0.379578	
-0.380432	
-0.380249	
-0.380371	
-0.380554	
-0.381042	
-0.381714	
-0.380615	
-0.380493	
-0.380127	
-0.380859	
-0.380798	
-0.381592	
-0.380737	
-0.380859	
-0.380737	
-0.381531	
-0.381165	
-0.381226	
-0.381042	
-0.379089	
-0.380798	
-0.380859	
-0.381531	
-0.380859	
-0.381836	
-0.380371	
-0.382385	
-0.380005	
-0.381714	
-0.381836	
-0.382507	
-0.38324	
-0.383118	
-0.383179	
-0.383301	
-0.382874	
-0.382385	
-0.382996	
-0.381958	
-0.382263	
-0.381653	
-0.381775	
-0.38208	
-0.382141	
-0.380981	
-0.381592	
-0.381531	
-0.381836	
-0.382324	
-0.381592	
-0.382019	
-0.380615	
-0.382019	
-0.381897	
-0.382568	
-0.381775	
-0.381531	
-0.380554	
-0.381775	
-0.381348	
-0.381348	
-0.381348	
-0.381104	
-0.381653	
-0.38147	
-0.381836	
-0.381958	
-0.381531	
-0.381653	
-0.381958	
-0.382141	
-0.38324	
-0.381958	
-0.382141	
-0.382385	
-0.382996	
-0.382202	
-0.382385	
-0.382019	
-0.382507	
-0.38269	
-0.383118	
-0.382019	
-0.382141	
-0.382385	
-0.382935	
-0.383545	
-0.382874	
-0.381653	
-0.382263	
-0.382935	
-0.382507	
-0.383545	
-0.38269	
-0.382813	
-0.382629	
-0.382874	
-0.382813	
-0.382813	
-0.382202	
-0.381775	
-0.38269	
-0.382202	
-0.38324	
-0.38147	
-0.381714	
-0.382385	
-0.382446	
-0.381897	
-0.382751	
-0.382019	
-0.382324	
-0.38269	
-0.382874	
-0.38208	
-0.381042	
-0.382202	
-0.382263	
-0.38269	
-0.381897	
-0.381836	
-0.380493	
-0.380554	
-0.378906	
-0.379578	
-0.378357	
-0.378174	
-0.378845	
-0.377869	
-0.378662	
-0.378052	
-0.378662	
-0.376709	
-0.378662	
-0.37854	
-0.378967	
-0.378784	
-0.379456	
-0.380127	
-0.379639	
-0.380554	
-0.380493	
-0.380737	
-0.381348	
-0.382019	
-0.381592	
-0.382324	
-0.38147	
-0.382324	
-0.381653	
-0.383057	
-0.382813	
-0.382446	
-0.383301	
-0.382874	
-0.381775	
-0.382568	
-0.382996	
-0.381958	
-0.382385	
-0.382629	
-0.383301	
-0.38269	
-0.382446	
-0.381714	
-0.382324	
-0.382568	
-0.383179	
-0.38324	
-0.383179	
-0.383301	
-0.383667	
-0.383362	
-0.383179	
-0.382996	
-0.382324	
-0.383728	
-0.383423	
-0.383484	
-0.382141	
-0.38324	
-0.382996	
-0.382935	
-0.382324	
-0.382935	
-0.382263	
-0.382568	
-0.381653	
-0.382019	
-0.381042	
-0.380371	
-0.380737	
-0.381104	
-0.381958	
-0.380798	
-0.379517	
-0.379761	
-0.380737	
-0.380249	
-0.381165	
-0.380676	
-0.380249	
-0.380493	
-0.380981	
-0.381042	
-0.381409	
-0.381653	
-0.381287	
-0.381958	
-0.381409	
-0.382446	
-0.380859	
-0.381226	
-0.381531	
-0.381958	
-0.381226	
-0.381775	
-0.380981	
-0.380981	
-0.38147	
-0.381775	
-0.38147	
-0.381042	
-0.381958	
-0.381897	
-0.382324	
-0.381897	
-0.380554	
-0.380554	
-0.380676	
-0.380859	
-0.381226	
-0.380493	
-0.379211	
-0.380859	
-0.380615	
-0.379944	
-0.379944	
-0.380493	
-0.380859	
-0.380676	
-0.380676	
-0.381348	
-0.380859	
-0.38031	
-0.380493	
-0.381165	
-0.380798	
-0.381042	
-0.380188	
-0.380737	
-0.380188	
-0.380493	
-0.380615	
-0.379944	
-0.380371	
-0.380859	
-0.380615	
-0.379883	
-0.379517	
-0.379089	
-0.379517	
-0.379089	
-0.379883	
-0.379639	
-0.378296	
-0.378906	
-0.379272	
-0.378784	
-0.378479	
-0.377991	
-0.377625	
-0.377869	
-0.37738	
-0.37854	
-0.377441	
-0.377441	
-0.377563	
-0.37793	
-0.377502	
-0.37793	
-0.377625	
-0.378357	
-0.378967	
-0.378845	
-0.379761	
-0.379517	
-0.380371	
-0.380371	
-0.382019	
-0.381165	
-0.381653	
-0.381592	
-0.381287	
-0.382141	
-0.381531	
-0.380859	
-0.380249	
-0.380188	
-0.38031	
-0.379517	
-0.379333	
-0.37915	
-0.378479	
-0.379333	
-0.378235	
-0.380249	
-0.379333	
-0.378784	
-0.379944	
-0.380066	
-0.380188	
-0.380676	
-0.380066	
-0.380066	
-0.380005	
-0.380188	
-0.381165	
-0.379639	
-0.379639	
-0.380432	
-0.38092	
-0.379761	
-0.380188	
-0.379333	
-0.380127	
-0.380615	
-0.379211	
-0.379211	
-0.379211	
-0.37915	
-0.378967	
-0.378418	
-0.378052	
-0.377625	
-0.377258	
-0.37793	
-0.378296	
-0.378784	
-0.378357	
-0.377258	
-0.37793	
-0.378479	
-0.378052	
-0.378296	
-0.37854	
-0.378662	
-0.378174	
-0.378601	
-0.378418	
-0.378479	
-0.378296	
-0.378906	
-0.3797	
-0.378906	
-0.379028	
-0.378418	
-0.37854	
-0.378906	
-0.37854	
-0.379028	
-0.378296	
-0.378113	
-0.377563	
-0.378418	
-0.377502	
-0.376709	
-0.376526	
-0.377258	
-0.377014	
-0.378296	
-0.37738	
-0.377136	
-0.377686	
-0.37793	
-0.378784	
-0.378235	
-0.377747	
-0.376648	
-0.37793	
-0.37854	
-0.378723	
-0.377747	
-0.377014	
-0.377747	
-0.377991	
-0.377625	
-0.377869	
-0.377441	
-0.377563	
-0.378418	
-0.378479	
-0.379272	
-0.377686	
-0.379211	
-0.378357	
-0.378967	
-0.378662	
-0.378113	
-0.37854	
-0.378357	
-0.378723	
-0.378235	
-0.378357	
-0.377319	
-0.378235	
-0.377686	
-0.378113	
-0.377869	
-0.377747	
-0.377869	
-0.377747	
-0.378235	
-0.378967	
-0.377563	
-0.376465	
-0.377686	
-0.377869	
-0.378479	
-0.378052	
-0.377502	
-0.376709	
-0.377808	
-0.378052	
-0.378174	
-0.377747	
-0.37793	
-0.377686	
-0.377747	
-0.378235	
-0.377869	
-0.378052	
-0.378296	
-0.378296	
-0.378967	
-0.379028	
-0.379028	
-0.37915	
-0.379211	
-0.379395	
-0.379517	
-0.379272	
-0.379028	
-0.379028	
-0.379822	
-0.379089	
-0.378601	
-0.378235	
-0.379395	
-0.378845	
-0.379456	
-0.379456	
-0.37915	
-0.378845	
-0.379883	
-0.380188	
-0.38147	
-0.381592	
-0.381836	
-0.382385	
-0.382568	
-0.382935	
-0.382874	
-0.382446	
-0.38269	
-0.382141	
-0.382751	
-0.38324	
-0.382324	
-0.38269	
-0.380737	
-0.381775	
-0.381165	
-0.380432	
-0.380005	
-0.3797	
-0.380127	
-0.380188	
-0.379211	
-0.378662	
-0.37915	
-0.379028	
-0.379761	
-0.378235	
-0.378296	
-0.377686	
-0.377991	
-0.378357	
-0.379211	
-0.377808	
-0.377502	
-0.378967	
-0.378601	
-0.379211	
-0.378357	
-0.378662	
-0.377747	
-0.37854	
-0.378418	
-0.378967	
-0.377747	
-0.37854	
-0.378235	
-0.37854	
-0.378052	
-0.378113	
-0.377991	
-0.37854	
-0.378479	
-0.378479	
-0.378296	
-0.377441	
-0.37915	
-0.379211	
-0.379333	
-0.378845	
-0.379395	
-0.380066	
-0.380188	
-0.380066	
-0.380554	
-0.380066	
-0.378967	
-0.381042	
-0.380737	
-0.381531	
-0.381287	
-0.381348	
-0.380737	
-0.381714	
-0.38147	
-0.382324	
-0.381287	
-0.381714	
-0.381409	
-0.381531	
-0.381836	
-0.38147	
-0.380249	
-0.379578	
-0.38092	
-0.380432	
-0.380676	
-0.380737	
-0.381531	
-0.380005	
-0.380737	
-0.380188	
-0.380859	
-0.380432	
-0.38031	
-0.380981	
-0.380798	
-0.380737	
-0.380066	
-0.379761	
-0.380737	
-0.381165	
-0.381531	
-0.380859	
-0.380798	
-0.380615	
-0.381592	
-0.381592	
-0.381165	
-0.381348	
-0.381042	
-0.381409	
-0.382263	
-0.381958	
-0.381897	
-0.380371	
-0.382324	
-0.382202	
-0.382751	
-0.38147	
-0.382324	
-0.380493	
-0.38208	
-0.382141	
-0.381836	
-0.381287	
-0.381226	
-0.382751	
-0.38269	
-0.382813	
-0.381104	
-0.38208	
-0.381958	
-0.382874	
-0.383057	
-0.382446	
-0.382385	
-0.381348	
-0.382813	
-0.383789	
-0.382751	
-0.382996	
-0.383118	
-0.382751	
-0.38446	
-0.383545	
-0.384033	
-0.38324	
-0.384705	
-0.384583	
-0.386353	
-0.384399	
-0.385071	
-0.384705	
-0.385864	
-0.385132	
-0.384949	
-0.384521	
-0.384766	
-0.385376	
-0.385437	
-0.385498	
-0.38324	
-0.383423	
-0.382141	
-0.383423	
-0.381958	
-0.381531	
-0.380554	
-0.381287	
-0.38147	
-0.381653	
-0.381836	
-0.381836	
-0.382507	
-0.382202	
-0.383972	
-0.383606	
-0.383179	
-0.38324	
-0.384338	
-0.383789	
-0.384705	
-0.383545	
-0.383423	
-0.382568	
-0.38324	
-0.383057	
-0.38269	
-0.382263	
-0.382874	
-0.383667	
-0.383423	
-0.383911	
-0.382996	
-0.382874	
-0.381958	
-0.382935	
-0.382874	
-0.382629	
-0.382507	
-0.382385	
-0.383728	
-0.384216	
-0.384644	
-0.38324	
-0.383545	
-0.384521	
-0.385254	
-0.384644	
-0.384094	
-0.384216	
-0.385071	
-0.385071	
-0.386597	
-0.384949	
-0.385376	
-0.385132	
-0.385315	
-0.385498	
-0.384949	
-0.385315	
-0.385193	
-0.385925	
-0.38562	
-0.386353	
-0.385071	
-0.385742	
-0.385132	
-0.386353	
-0.385498	
-0.384827	
-0.384766	
-0.385559	
-0.385864	
-0.385254	
-0.386902	
-0.384766	
-0.386414	
-0.386108	
-0.38739	
-0.386292	
-0.386719	
-0.385803	
-0.387695	
-0.387512	
-0.387817	
-0.387573	
-0.386353	
-0.386353	
-0.386353	
-0.385864	
-0.385925	
-0.385376	
-0.386475	
-0.386658	
-0.386047	
-0.387512	
-0.385681	
-0.386108	
-0.385986	
-0.38739	
-0.386597	
-0.38623	
-0.385986	
-0.386169	
-0.386536	
-0.386047	
-0.386414	
-0.384766	
-0.385559	
-0.386475	
-0.386414	
-0.38562	
	
