E:\DOCUMENTS AND SETTINGS\JPOTAS\MEUS DOCUMENTOS\UFRJ\RSCI-BM 12 WK SERIES\070727-RSCI-BM-05\RSCI-BM-05-REMG\070727-RSCI-BM-05-REMG-0013.ACQ
0.025000 msec/sample
1 channel
Analog input
Volts
CH1	
2000	
-0.379883	
-0.379822	
-0.379272	
-0.378845	
-0.379456	
-0.379272	
-0.380066	
-0.378601	
-0.379333	
-0.378906	
-0.379028	
-0.378479	
-0.378418	
-0.37793	
-0.378174	
-0.379211	
-0.378235	
-0.378845	
-0.378052	
-0.380005	
-0.378906	
-0.380371	
-0.379456	
-0.379211	
-0.378357	
-0.379517	
-0.379883	
-0.379456	
-0.379883	
-0.379395	
-0.379944	
-0.378479	
-0.379395	
-0.37915	
-0.379944	
-0.378296	
-0.378845	
-0.378967	
-0.379333	
-0.3797	
-0.379272	
-0.378723	
-0.379333	
-0.379211	
-0.378601	
-0.378601	
-0.378662	
-0.379028	
-0.379211	
-0.379333	
-0.378906	
-0.379822	
-0.379089	
-0.379761	
-0.37915	
-0.379272	
-0.379028	
-0.37915	
-0.379639	
-0.3797	
-0.380066	
-0.378479	
-0.379333	
-0.378296	
-0.378845	
-0.378967	
-0.37854	
-0.377747	
-0.378723	
-0.378784	
-0.379028	
-0.378784	
-0.379822	
-0.378784	
-0.37854	
-0.379456	
-0.379211	
-0.378662	
-0.379211	
-0.380127	
-0.379822	
-0.380005	
-0.37915	
-0.38031	
-0.380371	
-0.380798	
-0.380737	
-0.38031	
-0.380127	
-0.379639	
-0.379517	
-0.378845	
-0.379822	
-0.377991	
-0.379456	
-0.378235	
-0.380066	
-0.378357	
-0.37854	
-0.377441	
-0.377869	
-0.378296	
-0.378357	
-0.378906	
-0.379761	
-0.379456	
-0.378113	
-0.379639	
-0.379883	
-0.380005	
-0.379333	
-0.37915	
-0.380676	
-0.381104	
-0.381409	
-0.381714	
-0.381836	
-0.382263	
-0.38208	
-0.382751	
-0.383545	
-0.383362	
-0.384277	
-0.383728	
-0.38446	
-0.384399	
-0.385254	
-0.384766	
-0.386292	
-0.386108	
-0.385437	
-0.385437	
-0.386108	
-0.386047	
-0.386719	
-0.387085	
-0.386536	
-0.387085	
-0.386353	
-0.387817	
-0.386292	
-0.387268	
-0.386047	
-0.386292	
-0.387451	
-0.388184	
-0.387329	
-0.38739	
-0.387573	
-0.388062	
-0.387512	
-0.387329	
-0.387085	
-0.38678	
-0.386963	
-0.386169	
-0.386963	
-0.38562	
-0.387878	
-0.385681	
-0.386292	
-0.385498	
-0.385132	
-0.384338	
-0.384216	
-0.385437	
-0.385315	
-0.385742	
-0.382874	
-0.385498	
-0.383972	
-0.385132	
-0.384644	
-0.384705	
-0.38385	
-0.384399	
-0.385437	
-0.385071	
-0.384583	
-0.384644	
-0.384644	
-0.384399	
-0.384766	
-0.384583	
-0.384521	
-0.383972	
-0.384888	
-0.384949	
-0.385193	
-0.384521	
-0.385437	
-0.384827	
-0.385193	
-0.38501	
-0.384705	
-0.384216	
-0.384338	
-0.38092	
-0.381958	
-0.384705	
-0.384521	
-0.385437	
-0.384705	
-0.385193	
-0.384949	
-0.384705	
-0.38501	
-0.385559	
-0.385681	
-0.38562	
-0.386292	
-0.386719	
-0.385681	
-0.385254	
-0.38678	
-0.386536	
-0.387451	
-0.38678	
-0.387573	
-0.388977	
-0.389648	
-0.389099	
-0.389954	
-0.389221	
-0.389526	
-0.389343	
-0.388977	
-0.388306	
-0.388794	
-0.389343	
-0.388672	
-0.389282	
-0.388	
-0.389099	
-0.38739	
-0.388123	
-0.387146	
-0.386841	
-0.386292	
-0.386475	
-0.386963	
-0.386353	
-0.38678	
-0.384277	
-0.385864	
-0.384644	
-0.385864	
-0.385254	
-0.38562	
-0.384399	
-0.385254	
-0.386047	
-0.38623	
-0.38562	
-0.386108	
-0.386047	
-0.386047	
-0.385498	
-0.385376	
-0.385193	
-0.385071	
-0.385437	
-0.385986	
-0.386108	
-0.385254	
-0.386047	
-0.385437	
-0.386169	
-0.385437	
-0.385071	
-0.384766	
-0.384949	
-0.385559	
-0.385376	
-0.385437	
-0.384033	
-0.386536	
-0.38562	
-0.385681	
-0.38562	
-0.385925	
-0.385864	
-0.386475	
-0.387024	
-0.387024	
-0.387146	
-0.388	
-0.387756	
-0.387512	
-0.388123	
-0.389465	
-0.389282	
-0.390076	
-0.389893	
-0.391113	
-0.391602	
-0.39209	
-0.394165	
-0.393188	
-0.394592	
-0.394531	
-0.394775	
-0.394714	
-0.396057	
-0.396729	
-0.396729	
-0.397888	
-0.3974	
-0.399353	
-0.398315	
-0.39978	
-0.400452	
-0.401489	
-0.401733	
-0.403137	
-0.404663	
-0.406189	
-0.407104	
-0.40863	
-0.410034	
-0.411987	
-0.412964	
-0.413818	
-0.414612	
-0.416321	
-0.41748	
-0.418335	
-0.419189	
-0.4198	
-0.420959	
-0.422302	
-0.422241	
-0.42334	
-0.424072	
-0.425903	
-0.427307	
-0.428467	
-0.429443	
-0.430603	
-0.433289	
-0.434326	
-0.435486	
-0.437073	
-0.437683	
-0.438416	
-0.439087	
-0.439331	
-0.439514	
-0.439331	
-0.439819	
-0.43988	
-0.439026	
-0.439026	
-0.438416	
-0.437561	
-0.437744	
-0.436829	
-0.436523	
-0.435425	
-0.435242	
-0.43335	
-0.43396	
-0.43335	
-0.433228	
-0.432617	
-0.433105	
-0.433533	
-0.433594	
-0.433105	
-0.434387	
-0.433777	
-0.434692	
-0.434631	
-0.434509	
-0.434265	
-0.434509	
-0.43634	
-0.435852	
-0.435974	
-0.434021	
-0.434692	
-0.432617	
-0.433533	
-0.432251	
-0.430969	
-0.429382	
-0.429749	
-0.429382	
-0.428406	
-0.427734	
-0.426147	
-0.426331	
-0.425415	
-0.424194	
-0.42334	
-0.42218	
-0.421875	
-0.420959	
-0.420166	
-0.420593	
-0.418823	
-0.418335	
-0.416687	
-0.417297	
-0.415039	
-0.414307	
-0.412476	
-0.41217	
-0.412292	
-0.409973	
-0.408325	
-0.407104	
-0.404846	
-0.403931	
-0.400635	
-0.399414	
-0.397095	
-0.394531	
-0.392639	
-0.391541	
-0.390015	
-0.388062	
-0.385925	
-0.385193	
-0.385254	
-0.383606	
-0.380981	
-0.379517	
-0.378296	
-0.37793	
-0.376587	
-0.376892	
-0.374756	
-0.374146	
-0.372681	
-0.37384	
-0.371765	
-0.371521	
-0.370422	
-0.370972	
-0.371277	
-0.371338	
-0.371399	
-0.370239	
-0.370361	
-0.371277	
-0.371887	
-0.371826	
-0.371704	
-0.372375	
-0.372559	
-0.374268	
-0.37384	
-0.373596	
-0.371887	
-0.374939	
-0.374268	
-0.374512	
-0.374451	
-0.375	
-0.37561	
-0.376282	
-0.376221	
-0.376587	
-0.376343	
-0.377136	
-0.376465	
-0.376404	
-0.376587	
-0.37738	
-0.377136	
-0.37677	
-0.378052	
-0.376831	
-0.376343	
-0.375061	
-0.376404	
-0.376648	
-0.376404	
-0.376648	
-0.376282	
-0.376953	
-0.37854	
-0.377563	
-0.37738	
-0.377563	
-0.379333	
-0.378906	
-0.379028	
-0.379089	
-0.378845	
-0.379089	
-0.3797	
-0.380737	
-0.380859	
-0.380005	
-0.378845	
-0.380493	
-0.380432	
-0.379944	
-0.378967	
-0.3797	
-0.380005	
-0.381592	
-0.380798	
-0.379333	
-0.378235	
-0.379211	
-0.379944	
-0.378418	
-0.378662	
-0.377625	
-0.378723	
-0.379333	
-0.379211	
-0.378723	
-0.377441	
-0.378479	
-0.379028	
-0.378235	
-0.378174	
-0.376831	
-0.377625	
-0.378296	
-0.378052	
-0.378174	
-0.377563	
-0.377747	
-0.379272	
-0.378113	
-0.378601	
-0.37854	
-0.37915	
-0.378784	
-0.379822	
-0.380127	
-0.378662	
-0.377808	
-0.378235	
-0.378967	
-0.378296	
-0.378418	
-0.378113	
-0.378235	
-0.379578	
-0.378479	
-0.377686	
-0.376953	
-0.378662	
-0.377747	
-0.377136	
-0.376404	
-0.376587	
-0.375732	
-0.376038	
-0.377441	
-0.376526	
-0.375305	
-0.375305	
-0.375305	
-0.376221	
-0.375549	
-0.374023	
-0.374573	
-0.375732	
-0.376465	
-0.377014	
-0.37616	
-0.37616	
-0.376038	
-0.376831	
-0.376282	
-0.376343	
-0.376892	
-0.377441	
-0.377747	
-0.379028	
-0.378235	
-0.37793	
-0.377197	
-0.378174	
-0.378723	
-0.378052	
-0.377869	
-0.377258	
-0.378479	
-0.378601	
-0.379395	
-0.378113	
-0.377991	
-0.377869	
-0.379517	
-0.379028	
-0.378113	
-0.377747	
-0.377869	
-0.379639	
-0.38092	
-0.380127	
-0.379517	
-0.378784	
-0.379395	
-0.379822	
-0.379639	
-0.380005	
-0.380554	
-0.380371	
-0.380615	
-0.381042	
-0.381531	
-0.380005	
-0.379517	
-0.3797	
-0.380737	
-0.380005	
-0.379456	
-0.379211	
-0.379272	
-0.380127	
-0.378906	
-0.379456	
-0.378662	
-0.378723	
-0.380127	
-0.379211	
-0.378967	
-0.377808	
-0.378601	
-0.378845	
-0.380615	
-0.379944	
-0.379517	
-0.378418	
-0.379517	
-0.380676	
-0.380371	
-0.380432	
-0.380554	
-0.381531	
-0.382202	
-0.381836	
-0.382629	
-0.382019	
-0.381531	
-0.381714	
-0.382629	
-0.382141	
-0.382019	
-0.381958	
-0.382507	
-0.381775	
-0.381531	
-0.380737	
-0.380432	
-0.380127	
-0.379944	
-0.380493	
-0.379272	
-0.37854	
-0.378052	
-0.378906	
-0.379272	
-0.378723	
-0.377502	
-0.376953	
-0.377075	
-0.377625	
-0.376831	
-0.376465	
-0.37561	
-0.376038	
-0.37677	
-0.376648	
-0.375977	
-0.375671	
-0.374268	
-0.375244	
-0.375732	
-0.375488	
-0.375305	
-0.375549	
-0.375061	
-0.375244	
-0.375244	
-0.375	
-0.375305	
-0.376099	
-0.377197	
-0.376709	
-0.376038	
-0.375977	
-0.377258	
-0.376953	
-0.377563	
-0.376526	
-0.376709	
-0.375793	
-0.376587	
-0.37677	
-0.377075	
-0.376526	
-0.375793	
-0.376282	
-0.376526	
-0.377075	
-0.375793	
-0.376282	
-0.375	
-0.376526	
-0.376648	
-0.376648	
-0.376221	
-0.37616	
-0.376587	
-0.376404	
-0.375977	
-0.376648	
-0.376099	
-0.376343	
-0.376465	
-0.377441	
-0.376465	
-0.376465	
-0.376953	
-0.376465	
-0.376343	
-0.376343	
-0.376648	
-0.376343	
-0.37616	
-0.377075	
-0.377319	
-0.37616	
-0.374634	
-0.375671	
-0.376221	
-0.376892	
-0.376404	
-0.376465	
-0.375122	
-0.376038	
-0.376709	
-0.376831	
-0.376526	
-0.376953	
-0.376282	
-0.376892	
-0.377197	
-0.377014	
-0.377014	
-0.37616	
-0.37738	
-0.378113	
-0.377014	
-0.376648	
-0.376587	
-0.376343	
-0.376587	
-0.376465	
-0.375916	
-0.375427	
-0.375305	
-0.375549	
-0.375793	
-0.375244	
-0.375122	
-0.375305	
-0.375183	
-0.376465	
-0.375793	
-0.37561	
-0.375549	
-0.375732	
-0.376831	
-0.377258	
-0.376404	
-0.375854	
-0.377808	
-0.377502	
-0.378662	
-0.377808	
-0.378662	
-0.377869	
-0.378662	
-0.379395	
-0.379272	
-0.379456	
-0.380249	
-0.380188	
-0.380554	
-0.381287	
-0.381165	
-0.382019	
-0.382202	
-0.381287	
-0.382568	
-0.38269	
-0.382935	
-0.38269	
-0.38385	
-0.384033	
-0.383301	
-0.383545	
-0.383789	
-0.38385	
-0.384705	
-0.385071	
-0.383911	
-0.383301	
-0.384521	
-0.384521	
-0.385071	
-0.384583	
-0.385132	
-0.384155	
-0.384094	
-0.384827	
-0.384949	
-0.384521	
-0.384277	
-0.382507	
-0.383423	
-0.383728	
-0.383545	
-0.383545	
-0.381958	
-0.381958	
-0.382813	
-0.382019	
-0.381653	
-0.382019	
-0.381531	
-0.381592	
-0.381409	
-0.381836	
-0.381226	
-0.381104	
-0.382263	
-0.382202	
-0.381348	
-0.381287	
-0.382507	
-0.381592	
-0.383057	
-0.381653	
-0.382019	
-0.38147	
-0.38147	
-0.382263	
-0.38208	
-0.381409	
-0.381287	
-0.381226	
-0.381897	
-0.383057	
-0.381409	
-0.381592	
-0.380493	
-0.381714	
-0.38147	
-0.38147	
-0.381042	
-0.38147	
-0.381592	
-0.381226	
-0.381348	
-0.381348	
-0.381836	
-0.381409	
-0.381958	
-0.382385	
-0.382263	
-0.381592	
-0.382385	
-0.382324	
-0.383484	
-0.383179	
-0.382324	
-0.383301	
-0.383301	
-0.384216	
-0.38501	
-0.384277	
-0.38385	
-0.385315	
-0.38623	
-0.386414	
-0.38562	
-0.386292	
-0.385498	
-0.38623	
-0.386658	
-0.386536	
-0.385925	
-0.386047	
-0.385193	
-0.385742	
-0.38501	
-0.384644	
-0.384399	
-0.384521	
-0.383789	
-0.384827	
-0.384399	
-0.383667	
-0.383423	
-0.383179	
-0.383606	
-0.38269	
-0.382874	
-0.382263	
-0.382446	
-0.383484	
-0.383423	
-0.382019	
-0.381409	
-0.382935	
-0.382507	
-0.383179	
-0.382813	
-0.382874	
-0.381714	
-0.38208	
-0.382629	
-0.382629	
-0.381714	
-0.381592	
-0.381042	
-0.381958	
-0.382263	
-0.382507	
-0.38208	
-0.381226	
-0.380981	
-0.38269	
-0.381531	
-0.381592	
-0.381958	
-0.381653	
-0.382019	
-0.382385	
-0.382568	
-0.381775	
-0.381897	
-0.383484	
-0.383484	
-0.382813	
-0.382507	
-0.384094	
-0.383789	
-0.384277	
-0.384216	
-0.383972	
-0.384521	
-0.384521	
-0.384705	
-0.385132	
-0.384277	
-0.384155	
-0.384094	
-0.384644	
-0.385437	
-0.384399	
-0.383545	
-0.383484	
-0.383911	
-0.384033	
-0.383789	
-0.383484	
-0.383362	
-0.382568	
-0.383301	
-0.382202	
-0.382202	
-0.381714	
-0.381531	
-0.381836	
-0.382141	
-0.381409	
-0.381042	
-0.382263	
-0.381226	
-0.381897	
-0.381165	
-0.382141	
-0.382507	
-0.382874	
-0.383423	
-0.38446	
-0.38324	
-0.382568	
-0.383545	
-0.384094	
-0.385376	
-0.384216	
-0.384583	
-0.384033	
-0.384888	
-0.385132	
-0.385376	
-0.384949	
-0.385437	
-0.384644	
-0.385681	
-0.385986	
-0.385193	
-0.386169	
-0.386108	
-0.385803	
-0.386414	
-0.386475	
-0.386047	
-0.386536	
-0.386658	
-0.38678	
-0.386536	
-0.386963	
-0.38623	
-0.38678	
-0.386536	
-0.386658	
-0.385132	
-0.384644	
-0.386475	
-0.385742	
-0.386658	
-0.386108	
-0.385193	
-0.385376	
-0.385498	
-0.385437	
-0.38562	
-0.385376	
-0.385254	
-0.384766	
-0.38562	
-0.385681	
-0.385742	
-0.384888	
-0.384277	
-0.38501	
-0.385559	
-0.385132	
-0.384766	
-0.385132	
-0.385559	
-0.385803	
-0.385376	
-0.38562	
-0.384216	
-0.385071	
-0.385742	
-0.385559	
-0.384399	
-0.384399	
-0.385986	
-0.385315	
-0.386353	
-0.384949	
-0.384888	
-0.384644	
-0.38501	
-0.385681	
-0.386108	
-0.385071	
-0.384399	
-0.384949	
-0.385071	
-0.386108	
-0.384827	
-0.385437	
-0.384583	
-0.385559	
-0.384888	
-0.385132	
-0.385376	
-0.385681	
-0.385132	
-0.385254	
-0.384949	
-0.384521	
-0.384949	
-0.38501	
-0.384399	
-0.384583	
-0.384338	
-0.384277	
-0.384644	
-0.385315	
-0.385925	
-0.385254	
-0.38501	
-0.386108	
-0.385681	
-0.385986	
-0.386475	
-0.386047	
-0.384949	
-0.386169	
-0.385986	
-0.386292	
-0.385864	
-0.385681	
-0.385193	
-0.385071	
-0.385681	
-0.38562	
-0.384583	
-0.384583	
-0.383423	
-0.384216	
-0.383667	
-0.384033	
-0.383057	
-0.382996	
-0.382996	
-0.382874	
-0.38208	
-0.381714	
-0.381653	
-0.381287	
-0.381287	
-0.380554	
-0.380432	
-0.379761	
-0.379761	
-0.379578	
-0.38031	
-0.379028	
-0.377991	
-0.379272	
-0.378601	
-0.37915	
-0.378601	
-0.378479	
-0.377136	
-0.378052	
-0.377991	
-0.378235	
-0.377258	
-0.377319	
-0.376892	
-0.377686	
-0.37793	
-0.376831	
-0.37738	
-0.376831	
-0.37793	
-0.378174	
-0.377441	
-0.377075	
-0.377502	
-0.377991	
-0.378723	
-0.378235	
-0.378235	
-0.378662	
-0.378723	
-0.379089	
-0.379395	
-0.379639	
-0.379333	
-0.380737	
-0.38031	
-0.381042	
-0.380249	
-0.379944	
-0.379822	
-0.3797	
-0.380371	
-0.380432	
-0.380371	
-0.379822	
-0.379883	
-0.380371	
-0.380859	
-0.379822	
-0.379822	
-0.379333	
-0.379517	
-0.380127	
-0.380493	
-0.380432	
-0.380371	
-0.380066	
-0.380554	
-0.380432	
-0.380432	
-0.380127	
-0.379944	
-0.380127	
-0.381042	
-0.380554	
-0.380005	
-0.380859	
-0.380615	
-0.381531	
-0.380554	
-0.381287	
-0.380249	
-0.380432	
-0.381226	
-0.381287	
-0.380188	
-0.379395	
-0.380249	
-0.380127	
-0.380615	
-0.379883	
-0.379822	
-0.37793	
-0.379211	
-0.378845	
-0.379211	
-0.378418	
-0.378784	
-0.378418	
-0.378052	
-0.377625	
-0.377197	
-0.377136	
-0.376099	
-0.376526	
-0.377014	
-0.375977	
-0.376282	
-0.376892	
-0.376831	
-0.377563	
-0.377625	
-0.376953	
-0.377258	
-0.37738	
-0.378784	
-0.378784	
-0.378113	
-0.37793	
-0.37915	
-0.379089	
-0.380127	
-0.379761	
-0.379517	
-0.379395	
-0.380127	
-0.380493	
-0.380615	
-0.380432	
-0.379761	
-0.380249	
-0.38031	
-0.38092	
-0.380127	
-0.380066	
-0.379456	
-0.380188	
-0.381348	
-0.380859	
-0.380737	
-0.380615	
-0.381165	
-0.381042	
-0.380859	
-0.380798	
-0.380371	
-0.38092	
-0.380859	
-0.381104	
-0.380615	
-0.381104	
-0.381287	
-0.381348	
-0.381592	
-0.381592	
-0.381714	
-0.381409	
-0.381714	
-0.382019	
-0.381653	
-0.380859	
-0.37915	
-0.379883	
-0.380676	
-0.380676	
-0.379517	
-0.379333	
-0.378235	
-0.379395	
-0.379395	
-0.378967	
-0.37915	
-0.379211	
-0.378906	
-0.37915	
-0.378723	
-0.379272	
-0.379272	
-0.378601	
-0.378357	
-0.379761	
-0.379761	
-0.38031	
-0.380188	
-0.380493	
-0.381897	
-0.381226	
-0.381165	
-0.381592	
-0.381592	
-0.383057	
-0.38269	
-0.382141	
-0.381226	
-0.382202	
-0.382568	
-0.383362	
-0.382874	
-0.381531	
-0.381226	
-0.381531	
-0.381592	
-0.38092	
-0.380188	
-0.380188	
-0.379456	
-0.380127	
-0.379883	
-0.37915	
-0.378967	
-0.378784	
-0.378235	
-0.379028	
-0.378479	
-0.378479	
-0.378845	
-0.377747	
-0.378052	
-0.377869	
-0.377502	
-0.377319	
-0.377808	
-0.37793	
-0.378235	
-0.377075	
-0.37677	
-0.377747	
-0.377319	
-0.377808	
-0.376709	
-0.376953	
-0.376465	
-0.377991	
-0.377747	
-0.377747	
-0.377625	
-0.37738	
-0.377502	
-0.378418	
-0.378906	
-0.378662	
-0.378723	
-0.377441	
-0.37854	
-0.37854	
-0.378235	
-0.37793	
-0.37793	
-0.378479	
-0.378845	
-0.378601	
-0.37854	
-0.378662	
-0.377808	
-0.378784	
-0.378479	
-0.378235	
-0.377991	
-0.379028	
-0.378174	
-0.378845	
-0.377808	
-0.378174	
-0.37854	
-0.378113	
-0.379578	
-0.378601	
-0.378479	
-0.377686	
-0.378052	
-0.378296	
-0.379395	
-0.378113	
-0.378479	
-0.377747	
-0.377502	
-0.378906	
-0.378662	
-0.37854	
-0.378601	
-0.378479	
-0.378723	
-0.379089	
-0.378723	
-0.37793	
-0.377258	
-0.378174	
-0.37915	
-0.378418	
-0.378418	
-0.378967	
-0.379333	
-0.379333	
-0.378845	
-0.378784	
-0.379456	
-0.379456	
-0.380188	
-0.38092	
-0.379822	
-0.378357	
-0.379822	
-0.379883	
-0.380371	
-0.379578	
-0.378601	
-0.378296	
-0.379089	
-0.378357	
-0.378662	
-0.378113	
-0.377686	
-0.377747	
-0.378845	
-0.378174	
-0.378479	
-0.378052	
-0.377808	
-0.378601	
-0.378479	
-0.378418	
-0.378784	
-0.3797	
-0.379761	
-0.380188	
-0.380249	
-0.380432	
-0.380432	
-0.380493	
-0.381897	
-0.382385	
-0.381348	
-0.381104	
-0.382629	
-0.382874	
-0.383911	
-0.383972	
-0.383606	
-0.383972	
-0.384705	
-0.384949	
-0.385193	
-0.385315	
-0.384399	
-0.384583	
-0.385498	
-0.386719	
-0.385132	
-0.38623	
-0.385254	
-0.385132	
-0.387085	
-0.386963	
-0.38678	
-0.386719	
-0.387085	
-0.386902	
-0.387268	
-0.387512	
-0.38739	
-0.386536	
-0.387512	
-0.387634	
-0.387146	
-0.387268	
-0.387695	
-0.387207	
-0.387146	
-0.386963	
-0.386536	
-0.385681	
-0.385986	
-0.387329	
-0.387085	
-0.385864	
-0.384216	
-0.385742	
-0.38501	
-0.385559	
-0.385071	
-0.384827	
-0.384399	
-0.384338	
-0.384888	
-0.385315	
-0.384399	
-0.384827	
-0.383728	
-0.384216	
-0.384949	
-0.385132	
-0.385071	
-0.383972	
-0.384399	
-0.384644	
-0.384766	
-0.383667	
-0.38446	
-0.384155	
-0.384827	
-0.38446	
-0.384216	
-0.383667	
-0.384399	
-0.38623	
-0.385254	
-0.384644	
-0.383667	
-0.385376	
-0.38446	
-0.385254	
-0.383606	
-0.384338	
-0.384399	
-0.384644	
-0.384888	
-0.384338	
-0.383911	
-0.38501	
-0.383789	
-0.384949	
-0.385742	
-0.384949	
-0.385254	
-0.384521	
-0.385254	
-0.386292	
-0.385925	
-0.386047	
-0.386658	
-0.386902	
-0.38739	
-0.387939	
-0.388	
-0.388855	
-0.388977	
-0.389771	
-0.389648	
-0.388977	
-0.388733	
-0.389709	
-0.388855	
-0.388733	
-0.388306	
-0.388062	
-0.388245	
-0.387634	
-0.387573	
-0.388	
-0.38739	
-0.386658	
-0.38623	
-0.386353	
-0.386841	
-0.386597	
-0.385742	
-0.384888	
-0.384705	
-0.385681	
-0.385437	
-0.38501	
-0.38501	
-0.38501	
-0.385498	
-0.385071	
-0.384949	
-0.384766	
-0.38446	
-0.385193	
-0.385437	
-0.38446	
-0.383972	
-0.384827	
-0.384583	
-0.385132	
-0.38501	
-0.38446	
-0.384033	
-0.384338	
-0.385071	
-0.385315	
-0.38446	
-0.384155	
-0.384766	
-0.384338	
-0.385315	
-0.384277	
-0.384827	
-0.383972	
-0.383972	
-0.385559	
-0.38501	
-0.384949	
-0.38562	
-0.384888	
-0.385132	
-0.385986	
-0.385986	
-0.386414	
-0.385925	
-0.387268	
-0.386902	
-0.386841	
-0.386353	
-0.387024	
-0.38678	
-0.387634	
-0.38739	
-0.38678	
-0.386658	
-0.387085	
-0.38739	
-0.387573	
-0.386169	
-0.385925	
-0.386658	
-0.386414	
-0.386658	
-0.38562	
-0.384705	
-0.385254	
-0.384766	
-0.38446	
-0.384766	
-0.384216	
-0.383728	
-0.383118	
-0.383972	
-0.384277	
-0.383057	
-0.383728	
-0.383057	
-0.384094	
-0.384888	
-0.384827	
-0.385132	
-0.385925	
-0.385315	
-0.386047	
-0.386292	
-0.386841	
-0.386841	
-0.38739	
-0.387573	
-0.388245	
-0.387878	
-0.386902	
-0.388062	
-0.388123	
-0.389038	
-0.388367	
-0.388245	
-0.388428	
-0.388489	
-0.388062	
-0.389282	
-0.388855	
-0.388794	
-0.388245	
-0.388855	
-0.390076	
-0.389587	
-0.389465	
-0.388306	
-0.389832	
-0.389587	
-0.389404	
-0.388733	
-0.388916	
-0.388611	
-0.388611	
-0.388977	
-0.388184	
-0.388367	
-0.388	
-0.388428	
-0.389587	
-0.388611	
-0.387634	
-0.388733	
-0.38916	
-0.38916	
-0.388184	
-0.387817	
-0.387817	
-0.388123	
-0.388794	
-0.389221	
-0.387939	
-0.388123	
-0.388672	
-0.388245	
-0.388794	
-0.388428	
-0.388245	
-0.388	
-0.38916	
-0.388733	
-0.38855	
-0.387878	
-0.388367	
-0.387634	
-0.388245	
-0.388611	
-0.387573	
-0.387817	
-0.387878	
-0.387878	
-0.388367	
-0.388062	
-0.38739	
-0.388184	
-0.387878	
-0.388489	
-0.388245	
-0.387817	
-0.388062	
-0.388977	
-0.388672	
-0.389343	
-0.388184	
-0.388367	
-0.389404	
-0.388428	
-0.388977	
-0.388672	
-0.388428	
-0.387512	
-0.388733	
-0.388123	
-0.388611	
-0.38739	
-0.387939	
-0.386414	
-0.387634	
-0.388	
-0.387573	
-0.387878	
-0.386963	
-0.388611	
-0.38855	
-0.388916	
-0.38916	
-0.388794	
-0.388794	
-0.389465	
-0.388916	
-0.388733	
-0.388672	
-0.388489	
-0.388672	
-0.389404	
-0.388794	
-0.38678	
-0.388428	
-0.388245	
-0.388	
-0.387512	
-0.386841	
-0.386841	
-0.386414	
-0.386536	
-0.387695	
-0.38562	
-0.385071	
-0.385315	
-0.385132	
-0.385132	
-0.383728	
-0.383606	
-0.381958	
-0.383179	
-0.383301	
-0.38269	
-0.382141	
-0.382019	
-0.382202	
-0.382263	
-0.382019	
-0.381958	
-0.380859	
-0.380981	
-0.380249	
-0.381836	
-0.380432	
-0.379517	
-0.380798	
-0.38031	
-0.381287	
-0.380005	
-0.380127	
-0.379517	
-0.380981	
-0.38092	
-0.381348	
-0.380737	
-0.380798	
-0.380981	
-0.380981	
-0.381531	
-0.380798	
-0.381226	
-0.380798	
-0.382446	
-0.381653	
-0.381958	
-0.38092	
-0.381775	
-0.381653	
-0.382874	
-0.382874	
-0.383484	
-0.38385	
-0.382813	
-0.382874	
-0.383179	
-0.383301	
-0.382019	
-0.383057	
-0.38269	
-0.383362	
-0.383301	
-0.382996	
-0.382568	
-0.383118	
-0.383484	
-0.382751	
-0.383179	
-0.382446	
-0.383423	
-0.382813	
-0.384216	
-0.383911	
-0.383423	
-0.382568	
-0.382935	
-0.383057	
-0.382935	
-0.383179	
-0.383057	
-0.383301	
-0.383606	
-0.384033	
-0.383118	
-0.382935	
-0.382263	
-0.382935	
-0.383728	
-0.383545	
-0.383606	
-0.383545	
-0.383423	
-0.383423	
-0.38324	
-0.38269	
-0.382751	
-0.382263	
-0.382751	
-0.383667	
-0.38208	
-0.381042	
-0.381592	
-0.382019	
-0.382874	
-0.381592	
-0.381165	
-0.380188	
-0.380005	
-0.380005	
-0.380737	
-0.37915	
-0.378296	
-0.380127	
-0.379517	
-0.380127	
-0.380005	
-0.380066	
-0.37915	
-0.380066	
-0.380371	
-0.380676	
-0.38031	
-0.380981	
-0.380859	
-0.381653	
-0.382019	
-0.381226	
-0.382202	
-0.382019	
-0.38324	
-0.383606	
-0.382751	
-0.382385	
-0.382751	
-0.383423	
-0.383667	
-0.38324	
-0.383179	
-0.38324	
-0.383606	
-0.384033	
-0.383545	
-0.383545	
-0.382324	
-0.38324	
-0.383301	
-0.384583	
-0.38385	
-0.383179	
-0.383179	
-0.383423	
-0.384155	
-0.382813	
-0.383362	
-0.383545	
-0.384033	
-0.383911	
-0.384033	
-0.384155	
-0.383728	
-0.383728	
-0.383789	
-0.38501	
-0.384155	
-0.384033	
-0.384338	
-0.383789	
-0.384399	
-0.383728	
-0.383728	
-0.382507	
-0.38208	
-0.382446	
-0.382507	
-0.382324	
-0.381958	
-0.381409	
-0.38208	
-0.382751	
-0.38208	
-0.381104	
-0.381165	
-0.381775	
-0.381958	
-0.382263	
-0.38208	
-0.381287	
-0.381836	
-0.382751	
-0.382996	
-0.382813	
-0.383301	
-0.382507	
-0.383606	
-0.384583	
-0.385071	
-0.384277	
-0.384888	
-0.384827	
-0.385254	
-0.384827	
-0.385071	
-0.384827	
-0.38446	
-0.385559	
-0.385437	
-0.384338	
-0.383606	
-0.384216	
-0.383606	
-0.383972	
-0.382935	
-0.382629	
-0.38208	
-0.381958	
-0.382507	
-0.382019	
-0.381836	
-0.379944	
-0.381104	
-0.381592	
-0.381409	
	
