E:\DOCUMENTS AND SETTINGS\JPOTAS\MEUS DOCUMENTOS\UFRJ\RSCI-BM 12 WK SERIES\070727-RSCI-BM-05\RSCI-BM-05-REMG\070727-RSCI-BM-05-REMG-0006.ACQ
0.025000 msec/sample
1 channel
Analog input
Volts
CH1	
2000	
-0.388367	
-0.387573	
-0.386353	
-0.386353	
-0.386658	
-0.386475	
-0.386597	
-0.386597	
-0.386292	
-0.386169	
-0.387085	
-0.385986	
-0.385803	
-0.383972	
-0.384521	
-0.384827	
-0.385986	
-0.386108	
-0.385986	
-0.386108	
-0.386169	
-0.385986	
-0.386353	
-0.386353	
-0.385193	
-0.38623	
-0.385437	
-0.386353	
-0.38739	
-0.386536	
-0.386658	
-0.385986	
-0.386658	
-0.385925	
-0.384399	
-0.384094	
-0.384155	
-0.383911	
-0.382996	
-0.382263	
-0.382996	
-0.38208	
-0.383301	
-0.382507	
-0.382446	
-0.380127	
-0.381592	
-0.381287	
-0.382813	
-0.38324	
-0.38324	
-0.383545	
-0.38385	
-0.384766	
-0.385437	
-0.385071	
-0.382751	
-0.384033	
-0.384521	
-0.385498	
-0.386475	
-0.38562	
-0.385864	
-0.38562	
-0.385559	
-0.385498	
-0.385376	
-0.385254	
-0.385437	
-0.385376	
-0.386414	
-0.385742	
-0.384949	
-0.385376	
-0.386108	
-0.386475	
-0.38623	
-0.384888	
-0.385254	
-0.385315	
-0.385864	
-0.386108	
-0.385742	
-0.38562	
-0.385742	
-0.387268	
-0.386597	
-0.386169	
-0.383545	
-0.384949	
-0.384766	
-0.385925	
-0.386597	
-0.385437	
-0.38562	
-0.385254	
-0.38501	
-0.384277	
-0.383301	
-0.383423	
-0.383423	
-0.383179	
-0.383362	
-0.382996	
-0.382751	
-0.382263	
-0.381958	
-0.38324	
-0.383728	
-0.382202	
-0.382385	
-0.382324	
-0.382446	
-0.382507	
-0.382935	
-0.383057	
-0.383301	
-0.384827	
-0.384094	
-0.383728	
-0.38208	
-0.382446	
-0.382507	
-0.383484	
-0.384033	
-0.382935	
-0.383362	
-0.383179	
-0.384155	
-0.383667	
-0.383118	
-0.382324	
-0.382385	
-0.383301	
-0.383545	
-0.383728	
-0.383423	
-0.382996	
-0.382324	
-0.382751	
-0.383118	
-0.382141	
-0.382141	
-0.382141	
-0.382507	
-0.382751	
-0.382568	
-0.381714	
-0.381592	
-0.383057	
-0.382568	
-0.38208	
-0.380798	
-0.381409	
-0.38092	
-0.381531	
-0.382324	
-0.382202	
-0.381714	
-0.381714	
-0.383179	
-0.382568	
-0.382385	
-0.380432	
-0.381348	
-0.380371	
-0.38147	
-0.382629	
-0.381531	
-0.381226	
-0.381042	
-0.381958	
-0.381287	
-0.381104	
-0.380859	
-0.380737	
-0.380859	
-0.38147	
-0.381104	
-0.38031	
-0.381042	
-0.382019	
-0.381287	
-0.380981	
-0.380188	
-0.379822	
-0.379456	
-0.379883	
-0.38031	
-0.380066	
-0.380615	
-0.381165	
-0.38324	
-0.383362	
-0.383057	
-0.380371	
-0.381409	
-0.376587	
-0.378479	
-0.379089	
-0.378418	
-0.378906	
-0.378906	
-0.385376	
-0.384399	
-0.383606	
-0.382446	
-0.382629	
-0.381897	
-0.381897	
-0.381836	
-0.381226	
-0.380371	
-0.380005	
-0.380188	
-0.380249	
-0.379333	
-0.379211	
-0.379333	
-0.379578	
-0.379395	
-0.379761	
-0.379822	
-0.379761	
-0.381897	
-0.381226	
-0.381348	
-0.379028	
-0.380371	
-0.38031	
-0.381348	
-0.382263	
-0.381409	
-0.381165	
-0.381165	
-0.382141	
-0.382019	
-0.381226	
-0.379333	
-0.379883	
-0.379639	
-0.381104	
-0.381897	
-0.380798	
-0.380432	
-0.380493	
-0.381348	
-0.381958	
-0.381348	
-0.380737	
-0.380676	
-0.381226	
-0.381958	
-0.381836	
-0.382141	
-0.383484	
-0.384033	
-0.383301	
-0.383545	
-0.382568	
-0.383118	
-0.383545	
-0.38324	
-0.384521	
-0.383606	
-0.383301	
-0.383057	
-0.383911	
-0.383972	
-0.384033	
-0.382507	
-0.381897	
-0.381042	
-0.38208	
-0.382446	
-0.381165	
-0.381042	
-0.37561	
-0.376038	
-0.376526	
-0.375854	
-0.375732	
-0.375916	
-0.382935	
-0.383057	
-0.38324	
-0.382202	
-0.383057	
-0.384277	
-0.384888	
-0.385681	
-0.385376	
-0.386353	
-0.386597	
-0.388245	
-0.389526	
-0.390198	
-0.391296	
-0.392456	
-0.394775	
-0.395813	
-0.395569	
-0.395691	
-0.396851	
-0.399719	
-0.400574	
-0.402161	
-0.402954	
-0.404297	
-0.40509	
-0.406738	
-0.407043	
-0.407959	
-0.409851	
-0.411011	
-0.412231	
-0.413635	
-0.414856	
-0.416321	
-0.417847	
-0.42041	
-0.421448	
-0.422791	
-0.423218	
-0.427185	
-0.428406	
-0.430542	
-0.432434	
-0.435486	
-0.437805	
-0.441589	
-0.44281	
-0.445435	
-0.446533	
-0.450623	
-0.452637	
-0.456299	
-0.458923	
-0.461853	
-0.464844	
-0.469971	
-0.471924	
-0.473572	
-0.474548	
-0.478149	
-0.480774	
-0.482422	
-0.483826	
-0.484192	
-0.484558	
-0.485352	
-0.486511	
-0.485168	
-0.484802	
-0.48468	
-0.485535	
-0.485413	
-0.48584	
-0.484436	
-0.483826	
-0.483521	
-0.48291	
-0.481567	
-0.479858	
-0.479065	
-0.479065	
-0.47937	
-0.479004	
-0.479126	
-0.478882	
-0.479431	
-0.481018	
-0.48053	
-0.480225	
-0.479004	
-0.479126	
-0.478577	
-0.48053	
-0.480774	
-0.479187	
-0.478943	
-0.478333	
-0.478333	
-0.47699	
-0.475403	
-0.473267	
-0.472961	
-0.472961	
-0.472046	
-0.471619	
-0.47113	
-0.470947	
-0.469543	
-0.469543	
-0.469421	
-0.467102	
-0.466248	
-0.4646	
-0.463989	
-0.464111	
-0.462891	
-0.461182	
-0.460876	
-0.461426	
-0.4599	
-0.457703	
-0.455811	
-0.454163	
-0.453613	
-0.451843	
-0.450989	
-0.448792	
-0.446594	
-0.444885	
-0.443237	
-0.440735	
-0.437866	
-0.433289	
-0.431458	
-0.428833	
-0.427124	
-0.424744	
-0.422241	
-0.42041	
-0.41803	
-0.417419	
-0.416199	
-0.414307	
-0.41333	
-0.413086	
-0.413086	
-0.413025	
-0.412109	
-0.411804	
-0.410889	
-0.412964	
-0.412598	
-0.41272	
-0.411377	
-0.411865	
-0.411743	
-0.413818	
-0.415527	
-0.416931	
-0.417969	
-0.419189	
-0.42218	
-0.422913	
-0.422424	
-0.421387	
-0.423401	
-0.425232	
-0.426453	
-0.427246	
-0.427795	
-0.429199	
-0.429932	
-0.430725	
-0.431458	
-0.431702	
-0.431152	
-0.431824	
-0.432251	
-0.433228	
-0.434021	
-0.433594	
-0.433472	
-0.432983	
-0.434509	
-0.435181	
-0.43396	
-0.434204	
-0.434082	
-0.434143	
-0.434265	
-0.433289	
-0.433716	
-0.433594	
-0.434265	
-0.434082	
-0.434265	
-0.4328	
-0.432434	
-0.432556	
-0.432068	
-0.432129	
-0.430908	
-0.430664	
-0.429932	
-0.430725	
-0.429565	
-0.428467	
-0.425781	
-0.425354	
-0.424133	
-0.424194	
-0.423645	
-0.421448	
-0.420105	
-0.418701	
-0.418335	
-0.41626	
-0.41449	
-0.410889	
-0.409851	
-0.407593	
-0.406799	
-0.404968	
-0.402832	
-0.399963	
-0.396851	
-0.395752	
-0.393677	
-0.389771	
-0.387451	
-0.385132	
-0.382629	
-0.380615	
-0.378113	
-0.374695	
-0.372986	
-0.372375	
-0.36908	
-0.365723	
-0.360718	
-0.359192	
-0.35675	
-0.355713	
-0.354797	
-0.352356	
-0.35083	
-0.349182	
-0.349121	
-0.349121	
-0.348083	
-0.347412	
-0.347229	
-0.347961	
-0.348389	
-0.347961	
-0.348938	
-0.350281	
-0.351868	
-0.35144	
-0.351929	
-0.350586	
-0.351624	
-0.352783	
-0.353943	
-0.354736	
-0.354797	
-0.355408	
-0.355652	
-0.356567	
-0.356689	
-0.356079	
-0.355957	
-0.356201	
-0.356567	
-0.35791	
-0.357239	
-0.357971	
-0.358643	
-0.35968	
-0.359619	
-0.359497	
-0.359619	
-0.360474	
-0.361572	
-0.363159	
-0.363525	
-0.363342	
-0.364075	
-0.365479	
-0.365417	
-0.36499	
-0.365967	
-0.365906	
-0.366943	
-0.367798	
-0.367615	
-0.368286	
-0.36908	
-0.369934	
-0.370056	
-0.370056	
-0.369568	
-0.369812	
-0.370117	
-0.370422	
-0.369995	
-0.370178	
-0.370544	
-0.372009	
-0.371033	
-0.371094	
-0.369873	
-0.37146	
-0.371216	
-0.372131	
-0.37323	
-0.373108	
-0.372681	
-0.372803	
-0.374451	
-0.374634	
-0.374756	
-0.374573	
-0.375977	
-0.376587	
-0.377258	
-0.377014	
-0.378296	
-0.378296	
-0.380615	
-0.379517	
-0.379578	
-0.377625	
-0.380188	
-0.380981	
-0.381592	
-0.381287	
-0.381165	
-0.380676	
-0.383118	
-0.381836	
-0.381348	
-0.3797	
-0.381104	
-0.382263	
-0.382507	
-0.381836	
-0.381836	
-0.38147	
-0.382751	
-0.381897	
-0.381714	
-0.380249	
-0.381348	
-0.381592	
-0.381775	
-0.381653	
-0.381409	
-0.381531	
-0.382202	
-0.383362	
-0.383179	
-0.381958	
-0.380554	
-0.382629	
-0.383057	
-0.383606	
-0.383301	
-0.383911	
-0.383911	
-0.384766	
-0.384277	
-0.383484	
-0.382996	
-0.383606	
-0.383545	
-0.384033	
-0.384338	
-0.383667	
-0.38385	
-0.383606	
-0.384277	
-0.38385	
-0.382874	
-0.382568	
-0.383423	
-0.38324	
-0.38324	
-0.382629	
-0.382751	
-0.382141	
-0.383118	
-0.383362	
-0.383301	
-0.381226	
-0.381592	
-0.381714	
-0.382385	
-0.382935	
-0.382507	
-0.382385	
-0.383179	
-0.382996	
-0.382874	
-0.382996	
-0.382202	
-0.383545	
-0.382324	
-0.383789	
-0.383484	
-0.383667	
-0.382874	
-0.383667	
-0.383972	
-0.382874	
-0.380981	
-0.38092	
-0.381042	
-0.38092	
-0.38031	
-0.380127	
-0.379822	
-0.379639	
-0.380676	
-0.379395	
-0.379761	
-0.378174	
-0.378418	
-0.378967	
-0.379822	
-0.380432	
-0.380615	
-0.38092	
-0.382141	
-0.38324	
-0.381653	
-0.381897	
-0.380981	
-0.382324	
-0.382507	
-0.382507	
-0.382996	
-0.38208	
-0.384216	
-0.383911	
-0.383484	
-0.383972	
-0.38446	
-0.384766	
-0.384949	
-0.384033	
-0.384644	
-0.384338	
-0.38501	
-0.385681	
-0.387207	
-0.386108	
-0.38623	
-0.384888	
-0.38678	
-0.387756	
-0.387146	
-0.387634	
-0.387451	
-0.388428	
-0.38916	
-0.389282	
-0.388672	
-0.389648	
-0.388306	
-0.390015	
-0.389954	
-0.390198	
-0.390015	
-0.391052	
-0.390869	
-0.391113	
-0.390625	
-0.390991	
-0.390015	
-0.390442	
-0.390747	
-0.387878	
-0.388184	
-0.388245	
-0.389282	
-0.389954	
-0.390015	
-0.387207	
-0.387512	
-0.387268	
-0.387695	
-0.387451	
-0.387146	
-0.38739	
-0.387329	
-0.387512	
-0.386841	
-0.386414	
-0.38562	
-0.386902	
-0.385742	
-0.385803	
-0.385376	
-0.385376	
-0.383789	
-0.385132	
-0.385193	
-0.385254	
-0.383423	
-0.38269	
-0.383545	
-0.383545	
-0.384277	
-0.381958	
-0.382996	
-0.383179	
-0.384094	
-0.383057	
-0.382568	
-0.381531	
-0.382996	
-0.382568	
-0.382385	
-0.382507	
-0.381653	
-0.381714	
-0.380676	
-0.381958	
-0.381714	
-0.380981	
-0.3797	
-0.380859	
-0.381348	
-0.380554	
-0.380371	
-0.380493	
-0.380493	
-0.380615	
-0.380188	
-0.380249	
-0.379272	
-0.379333	
-0.37915	
-0.379456	
-0.380005	
-0.37854	
-0.378906	
-0.378906	
-0.380554	
-0.379028	
-0.378235	
-0.377258	
-0.378723	
-0.378601	
-0.378235	
-0.378296	
-0.378113	
-0.377563	
-0.377197	
-0.378662	
-0.377869	
-0.377197	
-0.376221	
-0.377258	
-0.376953	
-0.377258	
-0.376587	
-0.376892	
-0.377136	
-0.377319	
-0.378174	
-0.377869	
-0.377869	
-0.377747	
-0.380249	
-0.379395	
-0.380371	
-0.379822	
-0.380493	
-0.381042	
-0.381653	
-0.380798	
-0.3797	
-0.380432	
-0.381042	
-0.381042	
-0.380676	
-0.380981	
-0.378723	
-0.380066	
-0.379333	
-0.379578	
-0.378174	
-0.378113	
-0.375488	
-0.377441	
-0.376709	
-0.376953	
-0.378174	
-0.376709	
-0.377991	
-0.377014	
-0.377686	
-0.376953	
-0.377991	
-0.378174	
-0.379761	
-0.378784	
-0.378967	
-0.379089	
-0.379517	
-0.379395	
-0.379639	
-0.379395	
-0.378662	
-0.378601	
-0.378967	
-0.379761	
-0.3797	
-0.379333	
-0.377808	
-0.379395	
-0.379089	
-0.379822	
-0.378113	
-0.378601	
-0.377319	
-0.379089	
-0.379395	
-0.378967	
-0.379578	
-0.379089	
-0.380127	
-0.379761	
-0.379883	
-0.379395	
-0.380066	
-0.380127	
-0.381653	
-0.381226	
-0.381409	
-0.381226	
-0.381531	
-0.382019	
-0.381042	
-0.381287	
-0.380554	
-0.381409	
-0.38147	
-0.381653	
-0.38147	
-0.381226	
-0.380249	
-0.380432	
-0.380249	
-0.380981	
-0.379578	
-0.378845	
-0.377808	
-0.379883	
-0.380127	
-0.379456	
-0.379944	
-0.379639	
-0.380371	
-0.37854	
-0.378906	
-0.378967	
-0.380005	
-0.379028	
-0.380798	
-0.379456	
-0.380249	
-0.380127	
-0.379944	
-0.379944	
-0.380188	
-0.379395	
-0.378967	
-0.379272	
-0.380005	
-0.380493	
-0.379761	
-0.380127	
-0.3797	
-0.379639	
-0.379395	
-0.381165	
-0.379578	
-0.378906	
-0.377869	
-0.379211	
-0.380127	
-0.37915	
-0.379395	
-0.377441	
-0.379333	
-0.378723	
-0.378906	
-0.377747	
-0.378601	
-0.376831	
-0.377747	
-0.377686	
-0.378174	
-0.378479	
-0.377747	
-0.379211	
-0.37793	
-0.378235	
-0.377686	
-0.378296	
-0.379028	
-0.380005	
-0.379761	
-0.3797	
-0.379822	
-0.379761	
-0.380127	
-0.381287	
-0.379944	
-0.379822	
-0.380188	
-0.380615	
-0.381714	
-0.381165	
-0.381104	
-0.379578	
-0.381042	
-0.380676	
-0.381714	
-0.379944	
-0.380249	
-0.378601	
-0.380127	
-0.379822	
-0.38031	
-0.380249	
-0.379822	
-0.380676	
-0.380005	
-0.380371	
-0.379639	
-0.379883	
-0.378967	
-0.381042	
-0.381287	
-0.381409	
-0.381653	
-0.382385	
-0.383301	
-0.382446	
-0.383423	
-0.383179	
-0.38385	
-0.384277	
-0.384827	
-0.384583	
-0.385193	
-0.383667	
-0.385254	
-0.385254	
-0.386047	
-0.383362	
-0.382996	
-0.381226	
-0.382813	
-0.382507	
-0.381714	
-0.382202	
-0.381714	
-0.382202	
-0.381287	
-0.381592	
-0.380676	
-0.380493	
-0.378662	
-0.381104	
-0.380005	
-0.380066	
-0.380981	
-0.380493	
-0.381287	
-0.380798	
-0.380554	
-0.379395	
-0.380127	
-0.380005	
-0.380676	
-0.380066	
-0.381104	
-0.379822	
-0.380676	
-0.380493	
-0.38147	
-0.38031	
-0.380005	
-0.379089	
-0.380371	
-0.380676	
-0.380188	
-0.380432	
-0.380188	
-0.381348	
-0.381226	
-0.381592	
-0.380676	
-0.381042	
-0.380737	
-0.382324	
-0.381897	
-0.381958	
-0.38324	
-0.383179	
-0.383789	
-0.383789	
-0.383423	
-0.382324	
-0.38324	
-0.383667	
-0.384399	
-0.384644	
-0.38446	
-0.384277	
-0.383789	
-0.383667	
-0.383972	
-0.383667	
-0.382629	
-0.382507	
-0.383118	
-0.382996	
-0.382813	
-0.382263	
-0.382324	
-0.382446	
-0.383179	
-0.383789	
-0.382141	
-0.382385	
-0.380371	
-0.383057	
-0.382019	
-0.382324	
-0.382385	
-0.382568	
-0.38324	
-0.382874	
-0.382202	
-0.381592	
-0.382141	
-0.383362	
-0.38324	
-0.383057	
-0.382813	
-0.383728	
-0.384033	
-0.383606	
-0.384338	
-0.383789	
-0.383179	
-0.384277	
-0.384338	
-0.384216	
-0.383972	
-0.384521	
-0.384155	
-0.38501	
-0.384338	
-0.385559	
-0.38446	
-0.384705	
-0.38208	
-0.384338	
-0.384583	
-0.384644	
-0.385071	
-0.384949	
-0.385254	
-0.384644	
-0.384766	
-0.384338	
-0.385193	
-0.384827	
-0.385193	
-0.383484	
-0.38501	
-0.385986	
-0.384827	
-0.385437	
-0.385681	
-0.385132	
-0.383972	
-0.38562	
-0.386108	
-0.385254	
-0.385498	
-0.386475	
-0.386963	
-0.386475	
-0.386353	
-0.388184	
-0.386658	
-0.386963	
-0.384766	
-0.385559	
-0.385376	
-0.384766	
-0.384644	
-0.384277	
-0.384766	
-0.383789	
-0.384155	
-0.383301	
-0.382874	
-0.381104	
-0.382996	
-0.383118	
-0.383301	
-0.384094	
-0.383789	
-0.385132	
-0.385254	
-0.385498	
-0.385132	
-0.385803	
-0.386536	
-0.386902	
-0.387268	
-0.387451	
-0.387756	
-0.387939	
-0.388306	
-0.387878	
-0.388	
-0.388245	
-0.386658	
-0.386902	
-0.386536	
-0.38623	
-0.38678	
-0.385803	
-0.386658	
-0.386047	
-0.387817	
-0.385803	
-0.386414	
-0.384155	
-0.385742	
-0.38446	
-0.385986	
-0.387146	
-0.386047	
-0.386536	
-0.386841	
-0.386353	
-0.38623	
-0.386658	
-0.387085	
-0.387756	
-0.387329	
-0.387207	
-0.388184	
-0.387634	
-0.38739	
-0.387207	
-0.387085	
-0.386719	
-0.386597	
-0.386841	
-0.386169	
-0.38501	
-0.385498	
-0.385925	
-0.386292	
-0.385925	
-0.386658	
-0.385193	
-0.386414	
-0.383972	
-0.38623	
-0.385742	
-0.386414	
-0.387146	
-0.386719	
-0.387207	
-0.386963	
-0.387512	
-0.38678	
-0.388062	
-0.388184	
-0.388	
-0.387756	
-0.388062	
-0.389465	
-0.388855	
-0.388794	
-0.388672	
-0.388855	
-0.388489	
-0.388062	
-0.388	
-0.387146	
-0.387573	
-0.388184	
-0.387817	
-0.387817	
-0.387512	
-0.388123	
-0.386902	
-0.387817	
-0.385742	
-0.387085	
-0.38623	
-0.387329	
-0.387207	
-0.387024	
-0.387512	
-0.387085	
-0.38678	
-0.386353	
-0.387024	
-0.384949	
-0.386414	
-0.386108	
-0.387024	
-0.386597	
-0.387146	
-0.387878	
-0.386719	
-0.387024	
-0.386902	
-0.387512	
-0.388	
-0.388062	
-0.387878	
-0.388245	
-0.387939	
-0.388672	
-0.387939	
-0.389832	
-0.388	
-0.388	
-0.386902	
-0.387512	
-0.388062	
-0.387512	
-0.387695	
-0.387268	
-0.388611	
-0.387207	
-0.388306	
-0.386719	
-0.387451	
-0.385071	
-0.386353	
-0.38562	
-0.386169	
-0.386902	
-0.38623	
-0.387085	
-0.386292	
-0.386047	
-0.385559	
-0.386353	
-0.385559	
-0.386841	
-0.385986	
-0.386658	
-0.387146	
-0.387268	
-0.386963	
-0.386963	
-0.386719	
-0.386902	
-0.386719	
-0.387329	
-0.386536	
-0.38678	
-0.38678	
-0.386597	
-0.386658	
-0.385315	
-0.38623	
-0.383789	
-0.38446	
-0.382385	
-0.383179	
-0.382385	
-0.382141	
-0.384094	
-0.382874	
-0.38324	
-0.381836	
-0.383423	
-0.383179	
-0.383423	
-0.383057	
-0.384155	
-0.384399	
-0.385132	
-0.386108	
-0.385315	
-0.385803	
-0.385254	
-0.385803	
-0.385315	
-0.385803	
-0.386658	
-0.386475	
-0.386658	
-0.386719	
-0.386292	
-0.386169	
-0.386353	
-0.387573	
-0.385803	
-0.386658	
-0.384949	
-0.386353	
-0.385559	
-0.387024	
-0.387024	
-0.386597	
-0.386597	
-0.385925	
-0.387573	
-0.386353	
-0.387024	
-0.385071	
-0.386414	
-0.385315	
-0.386047	
-0.386902	
-0.386536	
-0.386658	
-0.386047	
-0.386414	
-0.385071	
-0.385925	
-0.385803	
-0.385986	
-0.385681	
-0.386292	
-0.384827	
-0.384949	
-0.384155	
-0.385986	
-0.383789	
-0.384216	
-0.382935	
-0.383423	
-0.383911	
-0.383362	
-0.383789	
-0.383423	
-0.384094	
-0.383667	
-0.384155	
-0.382996	
-0.384155	
-0.382813	
-0.383972	
-0.383667	
-0.384338	
-0.384766	
-0.38446	
-0.384766	
-0.383911	
-0.384705	
-0.383667	
-0.383728	
-0.383362	
-0.385071	
-0.384399	
-0.384338	
-0.384705	
-0.38446	
-0.384033	
-0.385437	
-0.384583	
-0.384705	
-0.384033	
-0.384705	
-0.383667	
-0.384399	
-0.38446	
-0.384033	
-0.383972	
-0.383362	
-0.384705	
-0.383301	
-0.383972	
-0.382507	
-0.383179	
-0.381775	
-0.383606	
-0.382629	
-0.383728	
-0.383179	
-0.382996	
-0.383545	
-0.382568	
-0.38269	
-0.381531	
-0.38324	
-0.382324	
-0.383301	
-0.383362	
-0.38324	
-0.382874	
-0.383423	
-0.382996	
-0.383301	
-0.382324	
-0.382935	
-0.382751	
-0.382996	
-0.383423	
-0.382385	
-0.38269	
-0.382568	
-0.384094	
-0.382324	
-0.383179	
-0.381653	
-0.382385	
-0.382446	
-0.382263	
-0.381775	
-0.380493	
-0.38269	
-0.381897	
-0.38269	
-0.380615	
-0.381836	
-0.379944	
-0.382324	
-0.381958	
-0.382996	
-0.383179	
-0.383667	
-0.38501	
-0.38501	
-0.384521	
-0.383789	
-0.384644	
-0.38385	
-0.38623	
-0.384277	
-0.385254	
-0.384888	
-0.385254	
-0.384888	
-0.385681	
-0.384094	
-0.38324	
-0.382019	
-0.382507	
-0.382813	
-0.381531	
-0.381226	
-0.380554	
-0.381958	
-0.381104	
-0.382019	
-0.380554	
-0.381409	
-0.380188	
-0.381714	
-0.381409	
-0.381104	
-0.381958	
-0.381958	
-0.383057	
-0.382446	
-0.38269	
-0.381836	
-0.382507	
-0.382019	
-0.383423	
-0.381592	
-0.382446	
-0.382019	
-0.383301	
-0.38324	
-0.382996	
-0.382507	
-0.381287	
-0.381531	
-0.382202	
-0.381775	
-0.382446	
-0.381653	
-0.381104	
-0.381958	
-0.382202	
-0.38324	
-0.382202	
-0.382629	
-0.381409	
-0.38269	
-0.382446	
-0.383118	
-0.383484	
-0.383728	
-0.384155	
-0.383484	
-0.384338	
-0.383789	
-0.384094	
-0.382385	
-0.384033	
-0.381897	
-0.383728	
-0.383179	
-0.383179	
-0.383545	
-0.383972	
-0.382629	
-0.381653	
-0.381348	
-0.381592	
-0.381653	
-0.381165	
-0.381287	
-0.379883	
-0.380493	
-0.381226	
-0.38208	
-0.380737	
-0.381348	
-0.380676	
-0.381348	
-0.381165	
-0.381409	
-0.381287	
-0.381226	
-0.38208	
-0.382202	
-0.382935	
-0.382141	
-0.382996	
-0.380981	
-0.382874	
-0.381165	
-0.382629	
-0.382874	
-0.382385	
-0.38385	
-0.382813	
-0.383057	
-0.382568	
-0.382813	
-0.382202	
-0.383423	
-0.382935	
-0.382446	
-0.382324	
-0.38269	
-0.382996	
-0.383789	
-0.38208	
-0.38147	
-0.381653	
-0.381958	
-0.381653	
-0.381897	
-0.381775	
-0.38147	
-0.382263	
-0.381592	
-0.383301	
-0.381531	
-0.382446	
-0.38092	
-0.38269	
-0.381165	
-0.382141	
-0.381775	
-0.382874	
-0.383179	
-0.382324	
-0.383484	
-0.38269	
-0.382813	
-0.382019	
-0.383972	
-0.382874	
-0.383301	
-0.383972	
-0.384399	
-0.38446	
-0.384766	
-0.383972	
-0.383606	
-0.383667	
-0.383728	
-0.383972	
-0.384033	
-0.383545	
-0.382507	
-0.383423	
-0.38324	
-0.384827	
-0.382996	
-0.383972	
-0.382324	
-0.383484	
-0.382263	
-0.382874	
-0.38324	
-0.383484	
-0.384277	
-0.384705	
-0.385925	
-0.38562	
-0.385864	
-0.384033	
-0.387451	
-0.38623	
-0.387329	
-0.386963	
-0.387756	
-0.388855	
-0.38855	
-0.387451	
-0.386902	
-0.386292	
-0.386475	
-0.387207	
-0.385986	
-0.385742	
-0.384277	
-0.384705	
-0.384827	
-0.385742	
-0.384338	
-0.384827	
-0.383301	
-0.383667	
-0.383972	
-0.383545	
-0.38385	
-0.382446	
-0.384399	
-0.384155	
-0.38501	
-0.383728	
-0.383972	
-0.381775	
-0.383057	
-0.383301	
-0.383606	
-0.383606	
-0.383362	
-0.384766	
-0.384399	
-0.383972	
-0.382996	
-0.383057	
-0.383972	
-0.384094	
-0.383606	
-0.383179	
-0.383362	
-0.383484	
-0.384033	
-0.384399	
-0.383728	
-0.383423	
-0.38385	
-0.384338	
-0.384644	
-0.38501	
-0.384644	
-0.384094	
-0.385742	
-0.385864	
-0.387512	
-0.386292	
-0.386597	
-0.38501	
-0.38739	
-0.387146	
-0.387451	
-0.386963	
-0.387146	
-0.387878	
-0.387512	
-0.387329	
-0.388	
-0.387512	
-0.386902	
-0.386963	
-0.385742	
-0.385986	
-0.386047	
-0.386963	
-0.386658	
-0.386658	
-0.386047	
-0.385925	
-0.386047	
-0.386169	
-0.385742	
-0.386353	
-0.386108	
-0.385254	
-0.386108	
-0.386169	
-0.388	
-0.385864	
-0.385681	
-0.38501	
-0.386047	
-0.385559	
-0.386719	
-0.386658	
-0.386353	
-0.386597	
-0.386963	
-0.387756	
-0.387329	
-0.386597	
-0.384949	
-0.386353	
-0.387329	
-0.387695	
-0.387085	
-0.387451	
-0.388672	
-0.388245	
-0.388306	
-0.386536	
-0.386963	
-0.387512	
-0.388367	
-0.387329	
-0.387878	
-0.387146	
-0.386719	
-0.387451	
-0.389648	
-0.386963	
-0.386719	
-0.386841	
-0.387939	
-0.387817	
-0.387756	
-0.387573	
-0.386414	
-0.388306	
-0.388184	
-0.389465	
-0.387878	
-0.387634	
-0.385742	
-0.388306	
-0.388611	
-0.388123	
-0.387878	
-0.388611	
-0.389954	
-0.390137	
-0.389221	
-0.388733	
-0.388672	
-0.38855	
-0.390015	
-0.389282	
-0.388062	
-0.387634	
-0.387512	
-0.387695	
-0.387024	
-0.386414	
-0.385376	
-0.385681	
-0.385803	
-0.386108	
-0.385742	
-0.38501	
-0.384644	
-0.38623	
-0.386169	
-0.386963	
-0.386047	
-0.38678	
-0.386353	
-0.388123	
-0.387817	
-0.388855	
-0.388428	
-0.389221	
-0.389648	
-0.390015	
-0.389832	
-0.389038	
-0.388733	
-0.388123	
-0.390686	
-0.388855	
-0.389221	
-0.388855	
-0.389221	
-0.388855	
-0.388916	
-0.388123	
-0.386597	
-0.386536	
-0.387085	
-0.388	
-0.38739	
-0.387939	
-0.386597	
-0.387939	
-0.387878	
-0.389343	
-0.387329	
-0.387878	
-0.387756	
-0.388306	
-0.388489	
-0.388794	
-0.388489	
-0.387268	
-0.388733	
-0.389404	
-0.389648	
-0.388123	
-0.387878	
-0.386414	
-0.388672	
-0.388428	
-0.387512	
-0.387146	
-0.386841	
-0.387512	
-0.387756	
-0.386475	
-0.384644	
-0.384827	
-0.386169	
-0.387756	
-0.386719	
-0.387329	
-0.387268	
-0.387024	
-0.387878	
-0.388184	
-0.38739	
-0.387207	
-0.388	
-0.388794	
-0.38916	
-0.389526	
-0.388794	
-0.388	
-0.389893	
-0.390564	
-0.391541	
-0.389404	
-0.38855	
-0.387634	
-0.389099	
-0.389282	
-0.389526	
-0.388916	
-0.388611	
-0.389465	
-0.388733	
-0.387573	
-0.387451	
-0.386902	
-0.38739	
-0.388245	
-0.387512	
-0.38739	
-0.386597	
-0.387634	
-0.387817	
-0.388367	
-0.387268	
-0.385681	
-0.385498	
-0.387085	
-0.387878	
-0.386353	
-0.386719	
-0.386292	
-0.387329	
-0.387512	
-0.388489	
-0.387024	
-0.387024	
-0.38678	
-0.388	
-0.387451	
-0.387756	
-0.387756	
-0.387451	
-0.388245	
-0.388916	
-0.388123	
-0.387573	
-0.38739	
-0.386414	
-0.388367	
-0.387085	
-0.38739	
-0.386902	
-0.386902	
-0.387451	
	
