E:\DOCUMENTS AND SETTINGS\JPOTAS\MEUS DOCUMENTOS\UFRJ\RSCI-BM 12 WK SERIES\070727-RSCI-BM-05\RSCI-BM-05-REMG\070727-RSCI-BM-05-REMG-0001.ACQ
0.025000 msec/sample
1 channel
Analog input
Volts
CH1	
2000	
-0.386475	
-0.386597	
-0.387634	
-0.387207	
-0.386597	
-0.385803	
-0.386963	
-0.386902	
-0.387573	
-0.385986	
-0.387756	
-0.38678	
-0.387268	
-0.38678	
-0.386902	
-0.386108	
-0.386108	
-0.388	
-0.386414	
-0.386902	
-0.385986	
-0.386597	
-0.385193	
-0.38678	
-0.385437	
-0.385986	
-0.385071	
-0.386047	
-0.386292	
-0.386169	
-0.385925	
-0.385193	
-0.385803	
-0.385132	
-0.386169	
-0.385681	
-0.385559	
-0.384766	
-0.386108	
-0.385864	
-0.385803	
-0.385742	
-0.387024	
-0.385376	
-0.386292	
-0.386536	
-0.386169	
-0.386169	
-0.385864	
-0.387024	
-0.386475	
-0.387573	
-0.38678	
-0.386353	
-0.385498	
-0.38623	
-0.38446	
-0.384583	
-0.384583	
-0.382874	
-0.384399	
-0.383423	
-0.383667	
-0.382202	
-0.382507	
-0.381042	
-0.382751	
-0.38208	
-0.381714	
-0.380371	
-0.381714	
-0.382019	
-0.38269	
-0.381775	
-0.382629	
-0.382446	
-0.383301	
-0.383789	
-0.38385	
-0.384094	
-0.384521	
-0.385071	
-0.385742	
-0.386169	
-0.385864	
-0.386597	
-0.386047	
-0.387024	
-0.386353	
-0.386719	
-0.386536	
-0.385742	
-0.387512	
-0.38739	
-0.388	
-0.386353	
-0.386658	
-0.386047	
-0.387695	
-0.387085	
-0.386902	
-0.386658	
-0.386536	
-0.387268	
-0.387512	
-0.387146	
-0.387573	
-0.387085	
-0.387329	
-0.387207	
-0.386902	
-0.386475	
-0.385986	
-0.387573	
-0.38678	
-0.387207	
-0.386597	
-0.387451	
-0.386169	
-0.386353	
-0.38562	
-0.384644	
-0.383789	
-0.383728	
-0.385742	
-0.383789	
-0.384277	
-0.383667	
-0.383972	
-0.383118	
-0.384155	
-0.382874	
-0.382874	
-0.383057	
-0.382629	
-0.383789	
-0.383362	
-0.383789	
-0.383423	
-0.383118	
-0.382202	
-0.383789	
-0.383728	
-0.383911	
-0.382874	
-0.384155	
-0.384155	
-0.384705	
-0.384277	
-0.384766	
-0.384216	
-0.384155	
-0.384338	
-0.383972	
-0.384277	
-0.383667	
-0.384583	
-0.383911	
-0.385071	
-0.383972	
-0.38446	
-0.383728	
-0.384277	
-0.383301	
-0.383057	
-0.383057	
-0.382141	
-0.383606	
-0.383057	
-0.383728	
-0.381775	
-0.382507	
-0.381531	
-0.383972	
-0.382874	
-0.382324	
-0.381226	
-0.382324	
-0.381897	
-0.382874	
-0.382385	
-0.38269	
-0.382446	
-0.382813	
-0.383484	
-0.382751	
-0.382385	
-0.382629	
-0.383789	
-0.382996	
-0.383667	
-0.382629	
-0.383789	
-0.382446	
-0.383423	
-0.382629	
-0.382507	
-0.375916	
-0.375	
-0.377075	
-0.376343	
-0.377625	
-0.376526	
-0.384827	
-0.384216	
-0.385437	
-0.383789	
-0.384277	
-0.383301	
-0.384277	
-0.384521	
-0.384521	
-0.384644	
-0.384827	
-0.384644	
-0.383423	
-0.384827	
-0.384399	
-0.384033	
-0.383179	
-0.385193	
-0.384338	
-0.384338	
-0.384338	
-0.385437	
-0.384033	
-0.384216	
-0.38446	
-0.384216	
-0.384155	
-0.38385	
-0.385681	
-0.384216	
-0.385193	
-0.383484	
-0.383301	
-0.382263	
-0.383118	
-0.382385	
-0.381104	
-0.381287	
-0.379883	
-0.380981	
-0.380676	
-0.381104	
-0.380737	
-0.380554	
-0.379883	
-0.381348	
-0.380981	
-0.381348	
-0.380798	
-0.382263	
-0.382507	
-0.383057	
-0.383118	
-0.384033	
-0.383301	
-0.384033	
-0.384094	
-0.384521	
-0.384094	
-0.384521	
-0.385254	
-0.384827	
-0.38562	
-0.384338	
-0.38501	
-0.385193	
-0.386169	
-0.385742	
-0.38562	
-0.385559	
-0.384949	
-0.385376	
-0.385986	
-0.386719	
-0.385498	
-0.38562	
-0.384521	
-0.386414	
-0.386047	
-0.386108	
-0.385315	
-0.386719	
-0.386902	
-0.387573	
-0.387329	
-0.388	
-0.387756	
-0.388062	
-0.388794	
-0.388672	
-0.389282	
-0.390137	
-0.392639	
-0.392273	
-0.393799	
-0.393372	
-0.39502	
-0.395752	
-0.397156	
-0.396484	
-0.397583	
-0.398071	
-0.399048	
-0.401062	
-0.4021	
-0.403748	
-0.404663	
-0.40509	
-0.405212	
-0.407898	
-0.408569	
-0.409668	
-0.410706	
-0.412292	
-0.41333	
-0.414429	
-0.414917	
-0.416504	
-0.417053	
-0.418457	
-0.418335	
-0.419373	
-0.419067	
-0.422058	
-0.423218	
-0.424622	
-0.425659	
-0.427307	
-0.428833	
-0.429993	
-0.431213	
-0.43335	
-0.434814	
-0.437012	
-0.440002	
-0.441956	
-0.445007	
-0.447388	
-0.449829	
-0.451721	
-0.454956	
-0.456543	
-0.458313	
-0.458923	
-0.461609	
-0.462708	
-0.463928	
-0.464478	
-0.465515	
-0.466125	
-0.468079	
-0.467712	
-0.468872	
-0.468567	
-0.470215	
-0.470154	
-0.470886	
-0.470215	
-0.470947	
-0.470825	
-0.470764	
-0.469849	
-0.470215	
-0.46936	
-0.470032	
-0.469727	
-0.469971	
-0.46991	
-0.470337	
-0.470581	
-0.470093	
-0.470459	
-0.470642	
-0.470398	
-0.470276	
-0.471008	
-0.470032	
-0.470459	
-0.468872	
-0.468323	
-0.467712	
-0.468445	
-0.466553	
-0.465881	
-0.465027	
-0.46405	
-0.464355	
-0.464355	
-0.46344	
-0.462341	
-0.461731	
-0.459045	
-0.459045	
-0.45697	
-0.455078	
-0.452087	
-0.451965	
-0.450134	
-0.447937	
-0.445557	
-0.444519	
-0.440796	
-0.439026	
-0.436584	
-0.433472	
-0.430664	
-0.427673	
-0.426697	
-0.422729	
-0.419739	
-0.416016	
-0.413208	
-0.409241	
-0.405945	
-0.401855	
-0.397888	
-0.393738	
-0.389404	
-0.386963	
-0.382935	
-0.379883	
-0.375732	
-0.372681	
-0.369629	
-0.368408	
-0.365234	
-0.362427	
-0.359497	
-0.357605	
-0.356018	
-0.354919	
-0.3526	
-0.351257	
-0.34906	
-0.347595	
-0.348083	
-0.346069	
-0.345215	
-0.343811	
-0.345703	
-0.345276	
-0.346436	
-0.345886	
-0.346802	
-0.346252	
-0.348083	
-0.346863	
-0.348267	
-0.348938	
-0.349731	
-0.352539	
-0.353821	
-0.355103	
-0.355286	
-0.356262	
-0.357239	
-0.358887	
-0.358765	
-0.359741	
-0.359314	
-0.362183	
-0.361938	
-0.363464	
-0.363098	
-0.363953	
-0.364197	
-0.364685	
-0.364807	
-0.365479	
-0.366028	
-0.36554	
-0.366455	
-0.366272	
-0.366211	
-0.367371	
-0.366699	
-0.367249	
-0.367493	
-0.366882	
-0.367065	
-0.366394	
-0.367981	
-0.368347	
-0.368347	
-0.36853	
-0.368347	
-0.367126	
-0.36853	
-0.368103	
-0.367798	
-0.368225	
-0.368042	
-0.368103	
-0.36908	
-0.368469	
-0.367859	
-0.367615	
-0.36853	
-0.368347	
-0.368103	
-0.367798	
-0.368591	
-0.36792	
-0.36853	
-0.366882	
-0.367676	
-0.366943	
-0.369019	
-0.368408	
-0.36792	
-0.367249	
-0.368591	
-0.368286	
-0.368408	
-0.368286	
-0.369202	
-0.368774	
-0.369141	
-0.369324	
-0.369141	
-0.370056	
-0.369263	
-0.371155	
-0.371155	
-0.371399	
-0.371399	
-0.37207	
-0.371582	
-0.373535	
-0.372864	
-0.373291	
-0.373413	
-0.374268	
-0.373596	
-0.374512	
-0.373962	
-0.374268	
-0.374268	
-0.375244	
-0.375549	
-0.375	
-0.37561	
-0.375732	
-0.375488	
-0.375977	
-0.376648	
-0.377747	
-0.375977	
-0.377319	
-0.377747	
-0.377441	
-0.377686	
-0.377563	
-0.378601	
-0.37793	
-0.377808	
-0.37793	
-0.37793	
-0.377747	
-0.378113	
-0.378418	
-0.377747	
-0.378479	
-0.377747	
-0.378113	
-0.379272	
-0.378357	
-0.379456	
-0.380249	
-0.380493	
-0.381409	
-0.381592	
-0.381226	
-0.381531	
-0.381104	
-0.382507	
-0.381714	
-0.38324	
-0.38208	
-0.382629	
-0.38092	
-0.382935	
-0.382813	
-0.382141	
-0.381531	
-0.381287	
-0.381592	
-0.380371	
-0.381042	
-0.380493	
-0.381165	
-0.381348	
-0.381653	
-0.381531	
-0.381592	
-0.381348	
-0.380127	
-0.38092	
-0.381897	
-0.380127	
-0.380188	
-0.379883	
-0.380615	
-0.380432	
-0.380249	
-0.37854	
-0.379211	
-0.378845	
-0.378967	
-0.379517	
-0.379089	
-0.379333	
-0.378357	
-0.37915	
-0.3797	
-0.378662	
-0.379822	
-0.379395	
-0.379456	
-0.378906	
-0.379517	
-0.378906	
-0.380432	
-0.381226	
-0.381104	
-0.381592	
-0.381653	
-0.38208	
-0.382751	
-0.382751	
-0.383545	
-0.383423	
-0.383911	
-0.384216	
-0.384766	
-0.384644	
-0.384583	
-0.385193	
-0.385071	
-0.385437	
-0.38446	
-0.385315	
-0.384338	
-0.385254	
-0.384155	
-0.385254	
-0.384827	
-0.384888	
-0.385437	
-0.384216	
-0.384033	
-0.384277	
-0.384216	
-0.384033	
-0.385132	
-0.384583	
-0.385376	
-0.384399	
-0.385132	
-0.385437	
-0.385254	
-0.385254	
-0.383789	
-0.384216	
-0.384338	
-0.385376	
-0.384705	
-0.384766	
-0.384705	
-0.385132	
-0.384949	
-0.384155	
-0.384705	
-0.385437	
-0.384155	
-0.384399	
-0.384094	
-0.384399	
-0.384583	
-0.384033	
-0.385437	
-0.384094	
-0.384583	
-0.383728	
-0.384094	
-0.382629	
-0.384216	
-0.38269	
-0.383545	
-0.384583	
-0.384094	
-0.383789	
-0.384094	
-0.384766	
-0.384583	
-0.384094	
-0.383972	
-0.385132	
-0.385193	
-0.385254	
-0.385803	
-0.385986	
-0.385559	
-0.385254	
-0.385803	
-0.386536	
-0.385498	
-0.386169	
-0.385071	
-0.386169	
-0.386169	
-0.386292	
-0.386292	
-0.386047	
-0.386414	
-0.385376	
-0.386047	
-0.385193	
-0.385864	
-0.384888	
-0.384583	
-0.383789	
-0.384155	
-0.383179	
-0.38269	
-0.382813	
-0.382813	
-0.381653	
-0.381775	
-0.381714	
-0.381775	
-0.381042	
-0.380737	
-0.382263	
-0.381409	
-0.38092	
-0.381042	
-0.382629	
-0.382141	
-0.383423	
-0.382263	
-0.384033	
-0.384216	
-0.38562	
-0.385864	
-0.385498	
-0.386169	
-0.385132	
-0.38623	
-0.386841	
-0.388367	
-0.387024	
-0.38739	
-0.387207	
-0.388916	
-0.388306	
-0.388	
-0.387268	
-0.388611	
-0.388245	
-0.386963	
-0.388855	
-0.388123	
-0.388306	
-0.387817	
-0.389221	
-0.38855	
-0.388306	
-0.388489	
-0.389526	
-0.388794	
-0.388794	
-0.38855	
-0.388245	
-0.388184	
-0.388428	
-0.388977	
-0.388489	
-0.388367	
-0.387573	
-0.388855	
-0.388306	
-0.388184	
-0.386475	
-0.38678	
-0.386536	
-0.387634	
-0.386292	
-0.385986	
-0.385132	
-0.385803	
-0.386047	
-0.384766	
-0.386169	
-0.385376	
-0.385437	
-0.385498	
-0.38562	
-0.385498	
-0.385315	
-0.383972	
-0.385925	
-0.385376	
-0.38501	
-0.385986	
-0.385498	
-0.385986	
-0.386597	
-0.385681	
-0.385925	
-0.385864	
-0.386292	
-0.386658	
-0.385681	
-0.386414	
-0.385742	
-0.386902	
-0.38678	
-0.386719	
-0.386353	
-0.385986	
-0.385376	
-0.386108	
-0.385864	
-0.385132	
-0.386597	
-0.385559	
-0.385925	
-0.38501	
-0.385315	
-0.385132	
-0.385376	
-0.385193	
-0.385315	
-0.38446	
-0.384888	
-0.38501	
-0.385254	
-0.385986	
-0.384033	
-0.38446	
-0.384155	
-0.384827	
-0.38446	
-0.385315	
-0.384277	
-0.384888	
-0.384399	
-0.385681	
-0.384949	
-0.385559	
-0.385193	
-0.384644	
-0.385254	
-0.385437	
-0.385742	
-0.384766	
-0.385376	
-0.383972	
-0.384644	
-0.384949	
-0.385254	
-0.385254	
-0.384949	
-0.384888	
-0.38562	
-0.385681	
-0.385254	
-0.387085	
-0.385986	
-0.387146	
-0.386169	
-0.386108	
-0.385315	
-0.386597	
-0.386108	
-0.386902	
-0.386475	
-0.386169	
-0.386414	
-0.386475	
-0.386536	
-0.386047	
-0.386597	
-0.386536	
-0.386414	
-0.386902	
-0.387573	
-0.386169	
-0.386414	
-0.38623	
-0.386902	
-0.386047	
-0.387146	
-0.385986	
-0.386108	
-0.385315	
-0.385986	
-0.38623	
-0.384583	
-0.384705	
-0.382874	
-0.384705	
-0.383057	
-0.382996	
-0.382324	
-0.382263	
-0.383179	
-0.38269	
-0.381775	
-0.380493	
-0.382202	
-0.382263	
-0.382385	
-0.382019	
-0.382568	
-0.381958	
-0.383423	
-0.383728	
-0.384033	
-0.383484	
-0.384277	
-0.383667	
-0.384644	
-0.384033	
-0.385254	
-0.384583	
-0.385132	
-0.384949	
-0.384827	
-0.385437	
-0.385071	
-0.386047	
-0.384155	
-0.385986	
-0.385132	
-0.385071	
-0.385498	
-0.385315	
-0.38562	
-0.385559	
-0.385559	
-0.385132	
-0.386169	
-0.384827	
-0.385925	
-0.384521	
-0.385742	
-0.384705	
-0.385742	
-0.385681	
-0.386414	
-0.38562	
-0.385254	
-0.385437	
-0.385376	
-0.385193	
-0.385925	
-0.385071	
-0.385254	
-0.384705	
-0.384644	
-0.385132	
-0.384155	
-0.384338	
-0.382568	
-0.382813	
-0.382507	
-0.383179	
-0.382629	
-0.382568	
-0.381958	
-0.382629	
-0.382813	
-0.382568	
-0.383118	
-0.382507	
-0.383484	
-0.382141	
-0.383484	
-0.381958	
-0.382935	
-0.383423	
-0.383667	
-0.383362	
-0.382263	
-0.383179	
-0.383057	
-0.383057	
-0.38324	
-0.38269	
-0.381531	
-0.382935	
-0.383118	
-0.383972	
-0.383179	
-0.383301	
-0.383179	
-0.383362	
-0.383301	
-0.383362	
-0.382996	
-0.383057	
-0.382446	
-0.382874	
-0.383057	
-0.382324	
-0.383911	
-0.381653	
-0.384277	
-0.382813	
-0.382996	
-0.382202	
-0.382751	
-0.383179	
-0.382751	
-0.382813	
-0.381775	
-0.383911	
-0.383301	
-0.38385	
-0.38269	
-0.383423	
-0.382446	
-0.383606	
-0.38385	
-0.383667	
-0.382996	
-0.383423	
-0.383423	
-0.383545	
-0.383057	
-0.383362	
-0.383179	
-0.383362	
-0.383423	
-0.383301	
-0.384094	
-0.383118	
-0.383728	
-0.382324	
-0.38385	
-0.383118	
-0.383118	
-0.382751	
-0.382751	
-0.382446	
-0.382751	
-0.383118	
-0.382385	
-0.383911	
-0.383423	
-0.384705	
-0.383789	
-0.384583	
-0.38446	
-0.384888	
-0.385437	
-0.385986	
-0.385681	
-0.385071	
-0.386169	
-0.386414	
-0.387024	
-0.386658	
-0.38678	
-0.385986	
-0.386902	
-0.386597	
-0.387268	
-0.386292	
-0.386475	
-0.384888	
-0.385193	
-0.384888	
-0.385071	
-0.383789	
-0.383484	
-0.382568	
-0.383179	
-0.382385	
-0.381775	
-0.382629	
-0.381348	
-0.382202	
-0.381409	
-0.38208	
-0.381165	
-0.381287	
-0.381104	
-0.381165	
-0.380554	
-0.379883	
-0.381348	
-0.381042	
-0.381531	
-0.380676	
-0.380554	
-0.379211	
-0.380676	
-0.380737	
-0.381226	
-0.380249	
-0.380188	
-0.379822	
-0.380676	
-0.380737	
-0.381531	
-0.381104	
-0.381042	
-0.381104	
-0.381287	
-0.381653	
-0.381042	
-0.381897	
-0.380371	
-0.382996	
-0.382141	
-0.382263	
-0.382141	
-0.382935	
-0.384094	
-0.383606	
-0.383179	
-0.382507	
-0.384216	
-0.383606	
-0.384521	
-0.383057	
-0.383484	
-0.383423	
-0.384094	
-0.38385	
-0.384705	
-0.383484	
-0.383789	
-0.383972	
-0.384033	
-0.383728	
-0.383606	
-0.382813	
-0.382996	
-0.38208	
-0.382202	
-0.38324	
-0.382324	
-0.382141	
-0.380981	
-0.382019	
-0.382202	
-0.381897	
-0.381409	
-0.381897	
-0.381775	
-0.382568	
-0.382385	
-0.381531	
-0.383057	
-0.38208	
-0.382141	
-0.382019	
-0.382629	
-0.381653	
-0.382874	
-0.382568	
-0.383057	
-0.382568	
-0.382568	
-0.383057	
-0.383362	
-0.382751	
-0.382629	
-0.38269	
-0.38324	
-0.38324	
-0.383362	
-0.383972	
-0.382874	
-0.382935	
-0.38269	
-0.382813	
-0.382385	
-0.383301	
-0.38208	
-0.382202	
-0.381897	
-0.382263	
-0.382629	
-0.381531	
-0.382263	
-0.380981	
-0.383179	
-0.381897	
-0.38269	
-0.381226	
-0.382446	
-0.382324	
-0.382507	
-0.381958	
-0.380432	
-0.381348	
-0.381226	
-0.381592	
-0.3797	
-0.38031	
-0.380859	
-0.380432	
-0.380432	
-0.381287	
-0.380493	
-0.380493	
-0.379944	
-0.380676	
-0.380127	
-0.380005	
-0.3797	
-0.379883	
-0.379517	
-0.380066	
-0.380798	
-0.379517	
-0.38031	
-0.379517	
-0.380676	
-0.379639	
-0.379578	
-0.379517	
-0.379944	
-0.380066	
-0.38031	
-0.380249	
-0.380066	
-0.382202	
-0.381897	
-0.382751	
-0.381775	
-0.382813	
-0.381958	
-0.382996	
-0.383911	
-0.383911	
-0.383057	
-0.38269	
-0.383728	
-0.384094	
-0.38385	
-0.384277	
-0.382935	
-0.383118	
-0.382629	
-0.381836	
-0.382813	
-0.381653	
-0.382324	
-0.380737	
-0.381897	
-0.381653	
-0.381775	
-0.380676	
-0.380859	
-0.380676	
-0.380676	
-0.380432	
-0.379822	
-0.380859	
-0.379639	
-0.380371	
-0.379639	
-0.3797	
-0.379028	
-0.378906	
-0.378967	
-0.379395	
-0.378906	
-0.378357	
-0.379028	
-0.379272	
-0.379395	
-0.378601	
-0.379089	
-0.377869	
-0.378601	
-0.378174	
-0.379578	
-0.378601	
-0.378601	
-0.377991	
-0.378662	
-0.378967	
-0.380188	
-0.378967	
-0.379028	
-0.379028	
-0.380005	
-0.379578	
-0.379578	
-0.380798	
-0.380127	
-0.381836	
-0.380554	
-0.380859	
-0.381226	
-0.380859	
-0.38208	
-0.381714	
-0.380798	
-0.380066	
-0.381348	
-0.381165	
-0.382202	
-0.380127	
-0.380981	
-0.379761	
-0.380798	
-0.380615	
-0.380249	
-0.3797	
-0.379883	
-0.379517	
-0.379578	
-0.379517	
-0.380371	
-0.379456	
-0.380066	
-0.379822	
-0.380127	
-0.380371	
-0.379211	
-0.380188	
-0.378662	
-0.380249	
-0.379456	
-0.379883	
-0.379822	
-0.380371	
-0.379639	
-0.379517	
-0.379944	
-0.379456	
-0.380188	
-0.379578	
-0.38031	
-0.379211	
-0.3797	
-0.378723	
-0.380005	
-0.379639	
-0.380188	
-0.379272	
-0.379517	
-0.378479	
-0.379333	
-0.379028	
-0.379395	
-0.378357	
-0.377747	
-0.378967	
-0.378296	
-0.379578	
-0.378906	
-0.379028	
-0.378479	
-0.379211	
-0.378845	
-0.379333	
-0.37915	
-0.378967	
-0.378784	
-0.378906	
-0.379089	
-0.378235	
-0.379761	
-0.37854	
-0.379761	
-0.378357	
-0.3797	
-0.378967	
-0.379211	
-0.3797	
-0.379761	
-0.379456	
-0.378296	
-0.379395	
-0.379761	
-0.379333	
-0.37854	
-0.378723	
-0.376526	
-0.37738	
-0.377808	
-0.377625	
-0.376099	
-0.376221	
-0.375061	
-0.375793	
-0.37561	
-0.375732	
-0.375122	
-0.375244	
-0.374512	
-0.37561	
-0.375488	
-0.374756	
-0.375549	
-0.373962	
-0.375977	
-0.376953	
-0.376465	
-0.377075	
-0.377441	
-0.378723	
-0.379089	
-0.378601	
-0.378113	
-0.3797	
-0.379395	
-0.380127	
-0.378845	
-0.379272	
-0.379028	
-0.380371	
-0.380249	
-0.380737	
-0.379639	
-0.380249	
-0.380615	
-0.380615	
-0.380188	
-0.381226	
-0.379944	
-0.380188	
-0.380005	
-0.379944	
-0.381104	
-0.38031	
-0.381348	
-0.380066	
-0.381165	
-0.380676	
-0.380676	
-0.380127	
-0.380859	
-0.380798	
-0.380737	
-0.38031	
-0.379578	
-0.380859	
-0.3797	
-0.380432	
-0.3797	
-0.379517	
-0.378113	
-0.378357	
-0.377869	
-0.377808	
-0.377136	
-0.376892	
-0.377441	
-0.377747	
-0.377075	
-0.376709	
-0.376831	
-0.376526	
-0.377136	
-0.376465	
-0.37738	
-0.376953	
-0.377563	
-0.376099	
-0.377197	
-0.376892	
-0.377258	
-0.377502	
-0.377258	
-0.377441	
-0.377625	
-0.377747	
-0.37793	
-0.378418	
-0.377808	
-0.378601	
-0.37793	
-0.377869	
-0.377075	
-0.378235	
-0.378296	
-0.378418	
-0.377686	
-0.376343	
-0.377502	
-0.377808	
-0.37793	
-0.377136	
-0.377319	
-0.376221	
-0.377136	
-0.377258	
-0.377686	
-0.376526	
-0.377014	
-0.376038	
-0.376526	
-0.376831	
-0.376526	
-0.375671	
-0.376038	
-0.375977	
-0.376587	
-0.37616	
-0.376038	
-0.377014	
-0.376221	
-0.376892	
-0.376465	
-0.376709	
-0.376099	
-0.37677	
-0.377625	
-0.377441	
-0.376892	
-0.375916	
-0.377197	
-0.377563	
-0.377197	
-0.376343	
-0.376648	
-0.375854	
-0.376953	
-0.376892	
-0.377747	
-0.376587	
-0.37738	
-0.377136	
-0.378235	
-0.377869	
-0.378357	
-0.378052	
-0.378296	
-0.37738	
-0.378296	
-0.378906	
-0.378052	
-0.378174	
-0.37738	
-0.379333	
-0.377625	
-0.37854	
-0.378296	
-0.378296	
-0.378723	
-0.378479	
-0.37854	
-0.377502	
-0.379272	
-0.37854	
-0.379272	
-0.378052	
-0.37854	
-0.377441	
-0.378052	
-0.378418	
-0.379089	
-0.377869	
-0.377197	
-0.377747	
-0.377441	
-0.376892	
-0.376587	
-0.375671	
-0.375061	
-0.374573	
-0.375061	
-0.375671	
-0.374512	
-0.374573	
-0.373291	
-0.374573	
-0.373901	
-0.374329	
-0.374512	
-0.374695	
-0.375549	
-0.375732	
-0.376038	
-0.37561	
-0.376282	
-0.375305	
-0.377014	
-0.377136	
-0.376709	
-0.376343	
-0.376831	
-0.377686	
-0.378235	
-0.377625	
-0.376892	
-0.377991	
-0.378479	
-0.37854	
-0.378113	
-0.378357	
-0.378052	
-0.378845	
-0.378967	
-0.379517	
-0.378174	
-0.378906	
-0.37793	
-0.378967	
-0.378967	
-0.380066	
-0.378479	
-0.378967	
-0.378479	
-0.378967	
-0.379517	
-0.378967	
-0.380127	
-0.3797	
-0.380249	
-0.379272	
-0.380188	
-0.378845	
-0.378845	
-0.379456	
-0.379761	
-0.379028	
-0.378113	
-0.378845	
-0.378296	
-0.378174	
-0.377625	
-0.377136	
-0.376282	
-0.376709	
-0.37738	
-0.377869	
-0.376953	
-0.377075	
-0.376526	
-0.37738	
-0.377258	
-0.377991	
-0.377014	
-0.377258	
-0.377319	
-0.37793	
-0.377869	
-0.377563	
-0.378357	
-0.378601	
-0.379395	
-0.377625	
-0.378845	
-0.378479	
-0.378052	
-0.377747	
-0.378479	
-0.378357	
-0.37793	
-0.379028	
-0.378235	
-0.378601	
-0.37793	
-0.378357	
-0.37793	
-0.377686	
-0.378601	
-0.379089	
-0.378296	
-0.377258	
-0.37793	
-0.378357	
-0.378052	
-0.377991	
-0.378235	
-0.378052	
-0.378113	
-0.378296	
-0.378845	
-0.377991	
-0.378479	
-0.377563	
-0.379333	
-0.379089	
-0.379456	
-0.379028	
-0.379517	
-0.379333	
-0.379639	
-0.379456	
-0.378967	
-0.379761	
-0.37915	
-0.379822	
-0.379578	
-0.379028	
-0.378296	
-0.378967	
-0.38031	
-0.380371	
-0.378723	
-0.378113	
-0.379333	
-0.379578	
-0.378784	
-0.379211	
-0.379272	
-0.379089	
-0.378906	
-0.379028	
-0.380127	
-0.37854	
-0.378662	
-0.377991	
-0.379517	
-0.378357	
-0.380127	
-0.379211	
-0.379944	
-0.38092	
-0.381042	
-0.381104	
-0.381226	
-0.382568	
-0.381348	
-0.382813	
-0.382385	
-0.382629	
-0.382446	
-0.382568	
-0.383667	
-0.383789	
-0.383423	
-0.382446	
-0.383911	
-0.382996	
-0.38385	
-0.382324	
-0.382324	
-0.380981	
-0.381714	
-0.381287	
-0.380798	
-0.379822	
-0.380066	
-0.379211	
-0.379333	
-0.37915	
-0.379639	
-0.378784	
-0.379211	
-0.378113	
-0.378784	
-0.379211	
-0.378479	
-0.379028	
-0.377258	
-0.378906	
-0.377869	
-0.377869	
-0.378479	
-0.37793	
-0.379333	
-0.378723	
-0.378784	
-0.377808	
-0.378479	
-0.377808	
-0.379089	
-0.378967	
-0.378113	
-0.378601	
-0.378113	
-0.379517	
-0.379578	
-0.3797	
-0.378479	
-0.379456	
-0.379639	
-0.380066	
-0.379761	
-0.379272	
-0.379333	
-0.379639	
-0.38147	
-0.382568	
-0.381409	
-0.381897	
-0.380859	
-0.382202	
-0.382324	
-0.382141	
-0.381348	
-0.382324	
-0.382996	
-0.382996	
-0.382629	
-0.382446	
-0.383423	
-0.382935	
-0.383789	
-0.38269	
-0.383057	
-0.382751	
-0.382874	
-0.383667	
-0.382446	
-0.38208	
-0.381287	
-0.382141	
-0.381714	
-0.38208	
-0.381226	
-0.381897	
-0.380798	
-0.381104	
-0.382019	
-0.382568	
-0.38147	
-0.381958	
-0.381897	
-0.382568	
-0.382202	
-0.382324	
-0.382263	
-0.382141	
-0.382751	
-0.382996	
-0.382751	
-0.38269	
-0.383911	
-0.383362	
-0.384033	
-0.383362	
-0.383911	
-0.38385	
-0.383545	
-0.38446	
-0.383728	
-0.383606	
-0.383606	
-0.383728	
-0.383789	
-0.384094	
-0.383057	
-0.383545	
-0.382629	
-0.382996	
-0.383789	
-0.384033	
-0.382996	
-0.382751	
-0.382813	
-0.383301	
-0.383118	
-0.383423	
-0.382874	
-0.382813	
-0.38208	
-0.38324	
-0.383789	
-0.383179	
-0.383789	
-0.382507	
-0.383423	
-0.382874	
-0.383118	
-0.382324	
-0.382141	
-0.382874	
-0.382751	
-0.382263	
-0.381653	
-0.382874	
-0.382019	
-0.383057	
-0.381409	
-0.381775	
-0.381714	
-0.381653	
-0.381897	
-0.382446	
-0.381958	
-0.380432	
-0.381531	
-0.381958	
-0.381836	
-0.38324	
-0.38208	
-0.382019	
-0.382019	
-0.382507	
-0.383301	
-0.381775	
-0.382629	
-0.382263	
-0.383606	
-0.383179	
-0.38446	
-0.384521	
-0.384888	
-0.385193	
-0.386169	
-0.386719	
-0.385864	
-0.38678	
-0.385254	
-0.387451	
-0.386353	
-0.386719	
-0.386414	
-0.386169	
-0.387024	
-0.38562	
-0.385376	
-0.384521	
-0.385742	
-0.385315	
-0.38501	
-0.384155	
-0.385132	
-0.383484	
-0.384399	
-0.384399	
-0.384521	
-0.383911	
-0.383728	
-0.383972	
-0.383667	
-0.38324	
-0.382996	
-0.382874	
-0.382568	
-0.382019	
-0.383057	
-0.382751	
-0.382568	
-0.38324	
-0.381653	
-0.383179	
-0.382507	
-0.382263	
-0.382019	
-0.382629	
-0.383118	
-0.382629	
-0.382324	
-0.381836	
-0.382874	
-0.38208	
-0.38269	
-0.382141	
-0.381958	
-0.381653	
-0.382446	
-0.382751	
-0.383972	
-0.383118	
-0.383118	
-0.383423	
-0.383423	
-0.383789	
-0.383423	
-0.384338	
-0.385254	
-0.383972	
-0.384949	
-0.386169	
-0.385193	
-0.385559	
-0.384216	
-0.385803	
-0.385193	
-0.385742	
-0.384705	
-0.384705	
-0.385498	
-0.385193	
-0.385254	
-0.383667	
-0.384888	
-0.384338	
-0.384888	
-0.384155	
-0.384094	
-0.382751	
-0.383911	
-0.38446	
-0.384888	
-0.384399	
-0.383728	
-0.384583	
-0.384033	
-0.384338	
-0.383972	
-0.383667	
	
