C:\DOCUMENTS AND SETTINGS\JASON\DESKTOP\UFRJ\UFRJ EPHYS\RSCI-BM 12 WK SERIES\070803-RSCI-BM-11\RSCI-BM-11-LEMG\070803-RSCI-BM-11-LEMG-0010.ACQ
0.025000 msec/sample
1 channel
Analog input
Volts
CH1	
2000	
-0.390808	
-0.389954	
-0.391296	
-0.390991	
-0.391113	
-0.391724	
-0.392029	
-0.391846	
-0.393005	
-0.392883	
-0.392456	
-0.391357	
-0.393616	
-0.392273	
-0.392334	
-0.392883	
-0.394165	
-0.394531	
-0.394409	
-0.394897	
-0.394165	
-0.394287	
-0.393738	
-0.392273	
-0.393555	
-0.392883	
-0.392395	
-0.391602	
-0.391724	
-0.391602	
-0.391541	
-0.391602	
-0.391418	
-0.391113	
-0.391418	
-0.389832	
-0.39093	
-0.391296	
-0.391113	
-0.390381	
-0.389893	
-0.391296	
-0.391479	
-0.391113	
-0.392334	
-0.393127	
-0.392578	
-0.392151	
-0.392639	
-0.392883	
-0.392517	
-0.392273	
-0.391174	
-0.390869	
-0.392456	
-0.392944	
-0.393799	
-0.393494	
-0.394043	
-0.393555	
-0.393738	
-0.393921	
-0.392944	
-0.393372	
-0.392822	
-0.392578	
-0.392761	
-0.393066	
-0.393616	
-0.393005	
-0.392944	
-0.391724	
-0.392273	
-0.392944	
-0.392395	
-0.391785	
-0.391541	
-0.391907	
-0.392334	
-0.392273	
-0.391846	
-0.392761	
-0.392822	
-0.3927	
-0.391724	
-0.39209	
-0.392883	
-0.391846	
-0.391541	
-0.390503	
-0.391296	
-0.391113	
-0.391479	
-0.390991	
-0.391235	
-0.390991	
-0.389099	
-0.390686	
-0.390015	
-0.389648	
-0.388916	
-0.388428	
-0.387756	
-0.387512	
-0.387573	
-0.387146	
-0.386963	
-0.386597	
-0.385498	
-0.386902	
-0.38562	
-0.386108	
-0.38562	
-0.385437	
-0.38446	
-0.385376	
-0.38562	
-0.385498	
-0.38562	
-0.385132	
-0.384399	
-0.384521	
-0.385803	
-0.384705	
-0.385437	
-0.385132	
-0.384827	
-0.38623	
-0.386292	
-0.38678	
-0.386108	
-0.387024	
-0.386353	
-0.386536	
-0.387695	
-0.386841	
-0.387634	
-0.388184	
-0.388489	
-0.388916	
-0.390198	
-0.390808	
-0.39093	
-0.391968	
-0.391785	
-0.392273	
-0.392273	
-0.393311	
-0.393616	
-0.393921	
-0.393677	
-0.394836	
-0.39563	
-0.396057	
-0.395874	
-0.396179	
-0.398071	
-0.397888	
-0.397949	
-0.397827	
-0.396545	
-0.396423	
-0.396179	
-0.395691	
-0.396179	
-0.396057	
-0.395813	
-0.395325	
-0.395813	
-0.393921	
-0.394409	
-0.394043	
-0.393066	
-0.393494	
-0.392334	
-0.391357	
-0.392212	
-0.392822	
-0.39209	
-0.392212	
-0.39209	
-0.390198	
-0.391052	
-0.391907	
-0.389893	
-0.390869	
-0.390503	
-0.389954	
-0.390564	
-0.390686	
-0.389954	
-0.39093	
-0.390503	
-0.389221	
-0.389465	
-0.389465	
-0.38916	
-0.365356	
-0.360474	
-0.363892	
-0.365601	
-0.365112	
-0.365295	
-0.396179	
-0.394653	
-0.391846	
-0.389832	
-0.390564	
-0.389282	
-0.389526	
-0.389893	
-0.389221	
-0.389954	
-0.390076	
-0.39093	
-0.390564	
-0.390991	
-0.391479	
-0.390137	
-0.392334	
-0.39093	
-0.391296	
-0.391602	
-0.392029	
-0.391724	
-0.391907	
-0.392151	
-0.392029	
-0.392822	
-0.392639	
-0.391724	
-0.393738	
-0.392822	
-0.391602	
-0.393127	
-0.392456	
-0.393311	
-0.392578	
-0.392761	
-0.392273	
-0.391846	
-0.391541	
-0.389893	
-0.390137	
-0.388855	
-0.388428	
-0.388428	
-0.387756	
-0.389038	
-0.390259	
-0.391418	
-0.394104	
-0.395325	
-0.397217	
-0.398438	
-0.401245	
-0.404541	
-0.381714	
-0.381531	
-0.38739	
-0.394043	
-0.399292	
-0.404236	
-0.440979	
-0.443787	
-0.445313	
-0.449097	
-0.455627	
-0.459167	
-0.463501	
-0.46936	
-0.473755	
-0.478455	
-0.481689	
-0.485535	
-0.488647	
-0.490356	
-0.492371	
-0.493652	
-0.495667	
-0.496033	
-0.498047	
-0.500732	
-0.502075	
-0.504456	
-0.506348	
-0.509827	
-0.511902	
-0.513306	
-0.515198	
-0.516968	
-0.520752	
-0.521851	
-0.524292	
-0.526245	
-0.5271	
-0.530151	
-0.531311	
-0.532471	
-0.533081	
-0.533508	
-0.533264	
-0.532349	
-0.532898	
-0.531189	
-0.529968	
-0.529541	
-0.527832	
-0.528137	
-0.527771	
-0.526489	
-0.525574	
-0.524902	
-0.52356	
-0.52179	
-0.521667	
-0.519775	
-0.518982	
-0.517456	
-0.514038	
-0.513855	
-0.512085	
-0.510864	
-0.508423	
-0.506653	
-0.50415	
-0.50116	
-0.499146	
-0.495544	
-0.492065	
-0.488953	
-0.485718	
-0.483887	
-0.480835	
-0.47821	
-0.475586	
-0.472351	
-0.468689	
-0.464111	
-0.460083	
-0.455017	
-0.449463	
-0.444519	
-0.438293	
-0.4328	
-0.426819	
-0.419495	
-0.412964	
-0.404907	
-0.396729	
-0.388733	
-0.381897	
-0.374023	
-0.365723	
-0.358948	
-0.35083	
-0.344238	
-0.336731	
-0.330322	
-0.325867	
-0.320923	
-0.316162	
-0.312134	
-0.309814	
-0.307373	
-0.304688	
-0.302429	
-0.301514	
-0.300659	
-0.30011	
-0.299988	
-0.300293	
-0.300171	
-0.300598	
-0.301453	
-0.304321	
-0.30603	
-0.307983	
-0.311829	
-0.315613	
-0.319458	
-0.323975	
-0.328247	
-0.331665	
-0.335449	
-0.340149	
-0.343445	
-0.34906	
-0.353638	
-0.358276	
-0.362732	
-0.3703	
-0.376526	
-0.383057	
-0.390564	
-0.397339	
-0.402832	
-0.408508	
-0.41449	
-0.418884	
-0.422546	
-0.426697	
-0.430176	
-0.434143	
-0.436523	
-0.440002	
-0.441711	
-0.442261	
-0.443787	
-0.443604	
-0.444092	
-0.444641	
-0.444275	
-0.443115	
-0.442871	
-0.443237	
-0.4422	
-0.442017	
-0.440796	
-0.439026	
-0.439026	
-0.438171	
-0.43512	
-0.434021	
-0.432922	
-0.431274	
-0.430298	
-0.428162	
-0.427185	
-0.42511	
-0.422424	
-0.420532	
-0.419312	
-0.415649	
-0.412781	
-0.4104	
-0.407471	
-0.405518	
-0.402039	
-0.401184	
-0.399109	
-0.397766	
-0.396057	
-0.394104	
-0.394043	
-0.392334	
-0.392029	
-0.390137	
-0.389709	
-0.387268	
-0.383667	
-0.382385	
-0.379517	
-0.377502	
-0.373474	
-0.369995	
-0.367554	
-0.363586	
-0.358704	
-0.35437	
-0.350525	
-0.345764	
-0.340271	
-0.336487	
-0.332947	
-0.328918	
-0.323364	
-0.319702	
-0.315369	
-0.311035	
-0.308472	
-0.304382	
-0.300964	
-0.298645	
-0.297119	
-0.295715	
-0.295044	
-0.294312	
-0.2948	
-0.294739	
-0.295105	
-0.296265	
-0.296692	
-0.297363	
-0.298706	
-0.301025	
-0.303223	
-0.304688	
-0.306763	
-0.308533	
-0.311401	
-0.313782	
-0.315918	
-0.318909	
-0.321045	
-0.323425	
-0.325745	
-0.327881	
-0.33075	
-0.332825	
-0.335266	
-0.337708	
-0.338928	
-0.341003	
-0.342712	
-0.344177	
-0.345398	
-0.347412	
-0.349792	
-0.352478	
-0.354248	
-0.355774	
-0.357178	
-0.359619	
-0.360718	
-0.361755	
-0.362488	
-0.363953	
-0.365051	
-0.36615	
-0.367493	
-0.368286	
-0.369324	
-0.370544	
-0.370605	
-0.371826	
-0.372681	
-0.372925	
-0.373047	
-0.374329	
-0.374207	
-0.374878	
-0.376099	
-0.375732	
-0.375977	
-0.377441	
-0.377625	
-0.377869	
-0.377991	
-0.378357	
-0.376526	
-0.37616	
-0.376099	
-0.376892	
-0.376709	
-0.377075	
-0.37738	
-0.377747	
-0.377686	
-0.377686	
-0.376221	
-0.375549	
-0.375427	
-0.375122	
-0.373474	
-0.374939	
-0.375	
-0.374817	
-0.374634	
-0.374329	
-0.375061	
-0.374207	
-0.374634	
-0.373108	
-0.372864	
-0.373413	
-0.373901	
-0.373962	
-0.37384	
-0.374084	
-0.374878	
-0.373962	
-0.375916	
-0.374817	
-0.375977	
-0.37561	
-0.376465	
-0.377075	
-0.378296	
-0.378784	
-0.378784	
-0.379578	
-0.380371	
-0.380432	
-0.381531	
-0.382324	
-0.382141	
-0.381531	
-0.383667	
-0.382446	
-0.384521	
-0.384155	
-0.384827	
-0.385132	
-0.38623	
-0.386047	
-0.385254	
-0.386169	
-0.384705	
-0.383972	
-0.385437	
-0.38501	
-0.38446	
-0.384766	
-0.385254	
-0.385254	
-0.385498	
-0.384949	
-0.384644	
-0.383179	
-0.383789	
-0.383545	
-0.381714	
-0.382996	
-0.382996	
-0.382324	
-0.382751	
-0.382507	
-0.381348	
-0.380371	
-0.380737	
-0.378113	
-0.379211	
-0.379211	
-0.378845	
-0.378967	
-0.37854	
-0.378479	
-0.379272	
-0.379272	
-0.378113	
-0.378662	
-0.377441	
-0.376221	
-0.377014	
-0.376587	
-0.377258	
-0.376892	
-0.376404	
-0.377197	
-0.377747	
-0.378113	
-0.377563	
-0.377991	
-0.377075	
-0.377686	
-0.378296	
-0.378723	
-0.37915	
-0.379822	
-0.379761	
-0.381104	
-0.38147	
-0.380981	
-0.381104	
-0.381226	
-0.380432	
-0.381958	
-0.38092	
-0.382568	
-0.382446	
-0.382813	
-0.383423	
-0.384277	
-0.385071	
-0.383972	
-0.383484	
-0.384094	
-0.384155	
-0.38446	
-0.382751	
-0.384827	
-0.384216	
-0.384888	
-0.385315	
-0.385925	
-0.387207	
-0.38623	
-0.386414	
-0.386658	
-0.386475	
-0.386108	
-0.386047	
-0.388428	
-0.388672	
-0.388367	
-0.388123	
-0.388733	
-0.389221	
-0.387512	
-0.38739	
-0.386902	
-0.386108	
-0.386658	
-0.386169	
-0.385864	
-0.386292	
-0.385803	
-0.385498	
-0.384949	
-0.385742	
-0.384583	
-0.385437	
-0.384705	
-0.384399	
-0.385376	
-0.383667	
-0.385803	
-0.385986	
-0.385559	
-0.38623	
-0.38623	
-0.387573	
-0.386475	
-0.387451	
-0.386169	
-0.386658	
-0.387024	
-0.386841	
-0.387024	
-0.387268	
-0.387268	
-0.388062	
-0.388367	
-0.389587	
-0.388611	
-0.388733	
-0.38739	
-0.389343	
-0.388123	
-0.388916	
-0.388794	
-0.388489	
-0.388062	
-0.389648	
-0.389404	
-0.388855	
-0.38855	
-0.387817	
-0.387512	
-0.388184	
-0.385193	
-0.388062	
-0.387756	
-0.388184	
-0.388245	
-0.388306	
-0.388855	
-0.388733	
-0.389221	
-0.387573	
-0.38739	
-0.387451	
-0.388184	
-0.388123	
-0.387085	
-0.387207	
-0.388062	
-0.387268	
-0.38678	
-0.386902	
-0.386841	
-0.385132	
-0.384766	
-0.385498	
-0.385559	
-0.385986	
-0.38501	
-0.384583	
-0.384766	
-0.384033	
-0.383606	
-0.382813	
-0.382324	
-0.380981	
-0.380798	
-0.380249	
-0.38269	
-0.38208	
-0.381836	
-0.382263	
-0.383118	
-0.382141	
-0.381836	
-0.382019	
-0.381531	
-0.381104	
-0.380798	
-0.379883	
-0.382385	
-0.382446	
-0.382996	
-0.382874	
-0.383911	
-0.383118	
-0.383728	
-0.384033	
-0.38385	
-0.383972	
-0.382568	
-0.383179	
-0.38562	
-0.384766	
-0.384827	
-0.385864	
-0.386169	
-0.387573	
-0.387695	
-0.388062	
-0.388733	
-0.388733	
-0.388062	
-0.389282	
-0.390625	
-0.390808	
-0.391663	
-0.39209	
-0.392273	
-0.393616	
-0.393616	
-0.392761	
-0.392456	
-0.394226	
-0.39447	
-0.394653	
-0.395386	
-0.394653	
-0.394958	
-0.394958	
-0.39447	
-0.39447	
-0.394165	
-0.394592	
-0.392822	
-0.392883	
-0.391785	
-0.392029	
-0.391785	
-0.391357	
-0.391296	
-0.391663	
-0.390747	
-0.391235	
-0.391113	
-0.391663	
-0.389038	
-0.389648	
-0.388489	
-0.388977	
-0.388855	
-0.389832	
-0.38916	
-0.389832	
-0.389221	
-0.389404	
-0.389526	
-0.389648	
-0.387573	
-0.388062	
-0.387573	
-0.387939	
-0.387878	
-0.388367	
-0.387512	
-0.387268	
-0.387512	
-0.387634	
-0.386963	
-0.386475	
-0.383972	
-0.384766	
-0.385193	
-0.386719	
-0.387024	
-0.387207	
-0.387695	
-0.388123	
-0.388062	
-0.388062	
-0.387146	
-0.38916	
-0.387512	
-0.388	
-0.386902	
-0.388916	
-0.389282	
-0.389343	
-0.389709	
-0.389648	
-0.390442	
-0.389893	
-0.390442	
-0.391052	
-0.389221	
-0.389709	
-0.388916	
-0.390625	
-0.390991	
-0.390808	
-0.391296	
-0.390747	
-0.391296	
-0.39093	
-0.391663	
-0.39093	
-0.389893	
-0.389587	
-0.389587	
-0.389709	
-0.39032	
-0.389526	
-0.389832	
-0.388489	
-0.388611	
-0.388245	
-0.388733	
-0.388184	
-0.386963	
-0.386902	
-0.386108	
-0.386108	
-0.385986	
-0.385071	
-0.385193	
-0.384705	
-0.385498	
-0.38501	
-0.38562	
-0.38562	
-0.384705	
-0.384521	
-0.384033	
-0.384705	
-0.385254	
-0.385742	
-0.386658	
-0.385376	
-0.387024	
-0.385986	
-0.387024	
-0.387024	
-0.386658	
-0.386597	
-0.386292	
-0.387817	
-0.388	
-0.388611	
-0.388855	
-0.388672	
-0.390137	
-0.389221	
-0.390015	
-0.391235	
-0.391724	
-0.39209	
-0.392334	
-0.393738	
-0.39447	
-0.39447	
-0.394592	
-0.394836	
-0.395569	
-0.394531	
-0.39563	
-0.396118	
-0.39502	
-0.395142	
-0.395508	
-0.396545	
-0.39679	
-0.396606	
-0.396362	
-0.396606	
-0.397583	
-0.39563	
-0.396667	
-0.396545	
-0.395081	
-0.394958	
-0.39447	
-0.394836	
-0.39447	
-0.394226	
-0.393372	
-0.393799	
-0.393372	
-0.391174	
-0.392395	
-0.392273	
-0.391541	
-0.390869	
-0.390381	
-0.390747	
-0.390503	
-0.390686	
-0.389648	
-0.39032	
-0.390686	
-0.390137	
-0.390869	
-0.390869	
-0.389893	
-0.389587	
-0.388977	
-0.389526	
-0.38916	
-0.389954	
-0.38916	
-0.38916	
-0.38916	
-0.388794	
-0.389343	
-0.389893	
-0.388611	
-0.387939	
-0.386963	
-0.386963	
-0.386841	
-0.388794	
-0.388062	
-0.38855	
-0.388672	
-0.388855	
-0.388855	
-0.389954	
-0.388611	
-0.388245	
-0.389038	
-0.38916	
-0.390076	
-0.390808	
-0.390198	
-0.390015	
-0.390503	
-0.390442	
-0.390564	
-0.392151	
-0.390991	
-0.389832	
-0.389893	
-0.390198	
-0.390015	
-0.389954	
-0.389465	
-0.389526	
-0.390015	
-0.389587	
-0.389343	
-0.390198	
-0.388672	
-0.388	
-0.387878	
-0.388184	
-0.389526	
-0.389526	
-0.38855	
-0.388489	
-0.387634	
-0.388123	
-0.388428	
-0.388306	
-0.387634	
-0.387024	
-0.387695	
-0.386108	
-0.388184	
-0.388123	
-0.388123	
-0.38855	
-0.387085	
-0.388733	
-0.388611	
-0.388123	
-0.389343	
-0.387512	
-0.388855	
-0.38739	
-0.389282	
-0.388672	
-0.389282	
-0.388916	
-0.388428	
-0.388916	
-0.388672	
-0.388977	
-0.388977	
-0.387634	
-0.389404	
-0.388123	
-0.389526	
-0.389648	
-0.390259	
-0.389832	
-0.389465	
-0.390503	
-0.390625	
-0.390564	
-0.39093	
-0.390869	
-0.391052	
-0.390747	
-0.393372	
-0.393311	
-0.393738	
-0.393921	
-0.393677	
-0.394714	
-0.395569	
-0.394775	
-0.395386	
-0.394592	
-0.395447	
-0.394897	
-0.395935	
-0.395813	
-0.395874	
-0.395813	
-0.395142	
-0.396179	
-0.396057	
-0.395752	
-0.396362	
-0.395325	
-0.395569	
-0.394531	
-0.395508	
-0.39563	
-0.395386	
-0.395386	
-0.394409	
-0.395264	
-0.394897	
-0.394592	
-0.394043	
-0.393005	
-0.3927	
-0.392212	
-0.393677	
-0.392395	
-0.391479	
-0.391785	
-0.390869	
-0.390625	
-0.389709	
-0.389282	
-0.389526	
-0.387451	
-0.387146	
-0.387268	
-0.388245	
-0.386475	
-0.386169	
-0.385925	
-0.385254	
-0.38446	
-0.383911	
-0.383484	
-0.383972	
-0.382874	
-0.384155	
-0.384277	
-0.385376	
-0.38501	
-0.384949	
-0.385376	
-0.385498	
-0.386292	
-0.386414	
-0.386902	
-0.387268	
-0.385681	
-0.38678	
-0.386963	
-0.38855	
-0.388489	
-0.388672	
-0.389526	
-0.389404	
-0.389282	
-0.389465	
-0.389343	
-0.389954	
-0.388489	
-0.390076	
-0.389282	
-0.391296	
-0.390442	
-0.390381	
-0.390808	
-0.390198	
-0.390442	
-0.39093	
-0.390625	
-0.39209	
-0.389954	
-0.391541	
-0.390442	
-0.392639	
-0.391968	
-0.392456	
-0.392395	
-0.392517	
-0.393433	
-0.39386	
-0.392944	
-0.393738	
-0.391785	
-0.392334	
-0.390564	
-0.392334	
-0.391663	
-0.391357	
-0.391113	
-0.391663	
-0.391296	
-0.390686	
-0.390442	
-0.391174	
-0.388794	
-0.389404	
-0.388733	
-0.390381	
-0.389526	
-0.390259	
-0.389526	
-0.388916	
-0.389343	
-0.389282	
-0.388977	
-0.389526	
-0.387085	
-0.388306	
-0.388062	
-0.38916	
-0.388672	
-0.388489	
-0.389038	
-0.388977	
-0.38916	
-0.388733	
-0.388855	
-0.389893	
-0.387817	
-0.390198	
-0.389648	
-0.391357	
-0.391052	
-0.391602	
-0.391907	
-0.392212	
-0.392639	
-0.392761	
-0.393127	
-0.39386	
-0.393311	
-0.393982	
-0.393921	
-0.394897	
-0.394958	
-0.39502	
-0.394775	
-0.394043	
-0.394958	
-0.394714	
-0.394226	
-0.395325	
-0.393677	
-0.394226	
-0.393555	
-0.393677	
-0.394226	
-0.393921	
-0.393677	
-0.391846	
-0.393066	
-0.393066	
-0.391602	
-0.392822	
-0.391418	
-0.391174	
-0.389709	
-0.390381	
-0.39032	
-0.389954	
-0.389343	
-0.386719	
-0.387451	
-0.387329	
-0.386719	
-0.387146	
-0.38623	
-0.385376	
-0.384644	
-0.385437	
-0.385132	
-0.384766	
-0.384949	
-0.383179	
-0.384521	
-0.384888	
-0.384644	
-0.384827	
-0.383728	
-0.382446	
-0.383118	
-0.383728	
-0.383484	
-0.383606	
-0.384094	
-0.382813	
-0.384033	
-0.384949	
-0.38501	
-0.385986	
-0.385681	
-0.385071	
-0.385559	
-0.386658	
-0.387024	
-0.386658	
-0.388184	
-0.386658	
-0.388062	
-0.388855	
-0.389404	
-0.38916	
-0.388489	
-0.387695	
-0.387817	
-0.389099	
-0.389587	
-0.389465	
-0.390869	
-0.389221	
-0.389771	
-0.390198	
-0.390442	
-0.390381	
-0.389954	
-0.389099	
-0.388977	
-0.390686	
-0.390625	
-0.390991	
-0.391541	
-0.390686	
-0.391113	
-0.39093	
-0.391357	
-0.392822	
-0.393005	
-0.392029	
-0.390869	
-0.3927	
-0.392517	
-0.392151	
-0.392334	
-0.391113	
-0.390686	
-0.391052	
-0.391418	
-0.391541	
-0.390259	
-0.390442	
-0.388916	
-0.389099	
-0.38916	
-0.38916	
-0.389832	
-0.388672	
-0.388916	
-0.389343	
-0.390198	
-0.390808	
-0.389893	
-0.389526	
-0.388672	
-0.390137	
-0.390747	
-0.390747	
-0.391113	
-0.389832	
-0.390625	
-0.390991	
-0.391235	
-0.391602	
-0.39032	
-0.390503	
-0.39032	
-0.391541	
-0.391418	
-0.391968	
-0.3927	
-0.391479	
-0.392456	
-0.392029	
-0.393127	
-0.393433	
-0.391479	
-0.391296	
-0.390198	
-0.391541	
-0.390991	
-0.391296	
-0.391785	
-0.390076	
-0.390869	
-0.390503	
-0.391235	
-0.391479	
-0.390442	
-0.390503	
-0.389648	
-0.390564	
-0.391113	
-0.391052	
-0.391602	
-0.39032	
-0.390381	
-0.389771	
-0.390808	
-0.391418	
-0.389954	
-0.389648	
-0.389038	
-0.389038	
-0.389893	
-0.389465	
-0.389893	
-0.388916	
-0.389038	
-0.388367	
-0.388916	
-0.389404	
-0.386902	
-0.386902	
-0.385437	
-0.385315	
-0.386292	
-0.385437	
-0.38501	
-0.384094	
-0.384644	
-0.384155	
-0.385071	
-0.386047	
-0.384705	
-0.383789	
-0.382507	
-0.383911	
-0.384155	
-0.383972	
-0.384094	
-0.382874	
-0.383606	
-0.382874	
-0.384033	
-0.385376	
-0.384338	
-0.384216	
-0.383179	
-0.384338	
-0.385498	
-0.385498	
-0.385132	
-0.385193	
-0.385254	
-0.384827	
-0.385986	
-0.387268	
-0.386597	
-0.387146	
-0.387024	
-0.388733	
-0.389221	
-0.389832	
-0.389709	
-0.390442	
-0.390625	
-0.389893	
-0.391418	
-0.394348	
-0.392212	
-0.3927	
-0.3927	
-0.393738	
-0.394836	
-0.394165	
-0.394409	
-0.395508	
-0.396179	
-0.395325	
-0.396179	
-0.397156	
-0.39502	
-0.394958	
-0.39386	
-0.393066	
-0.394897	
-0.394592	
-0.393494	
-0.393188	
-0.393372	
-0.392456	
-0.392639	
-0.392944	
-0.391602	
-0.391785	
-0.390564	
-0.389038	
-0.391418	
-0.391113	
-0.390015	
-0.389893	
-0.389526	
-0.389282	
-0.390076	
-0.390564	
-0.389221	
-0.390015	
-0.388733	
-0.387695	
-0.389099	
-0.389343	
-0.388733	
-0.388916	
-0.388611	
-0.388123	
-0.388428	
-0.389282	
-0.388	
-0.387451	
-0.387207	
-0.386597	
-0.387329	
-0.386292	
-0.386353	
-0.386475	
-0.387085	
-0.386597	
-0.388062	
-0.38916	
-0.388794	
-0.388367	
-0.387756	
-0.387512	
-0.389771	
-0.38916	
-0.388916	
-0.388489	
-0.389282	
-0.388428	
-0.389648	
-0.391052	
-0.391296	
-0.389893	
-0.390137	
-0.390015	
-0.391296	
-0.390869	
-0.390686	
-0.390381	
-0.390564	
-0.389587	
-0.390991	
-0.391968	
-0.392578	
-0.390564	
-0.391113	
-0.391113	
-0.391907	
-0.391113	
-0.391174	
-0.390381	
-0.390137	
-0.389221	
-0.390686	
-0.39032	
-0.390564	
-0.388611	
-0.388916	
-0.387146	
-0.388733	
-0.388306	
-0.387512	
-0.386902	
-0.386597	
-0.385376	
-0.38623	
-0.385925	
-0.386292	
-0.385071	
-0.385376	
-0.383789	
-0.38501	
-0.38501	
-0.384338	
-0.384766	
-0.385254	
-0.384644	
-0.385437	
-0.385803	
-0.386719	
-0.385986	
-0.385742	
-0.385132	
-0.38623	
-0.387695	
-0.387573	
-0.386963	
-0.387878	
-0.387451	
-0.387939	
-0.388855	
-0.389954	
-0.389343	
-0.389648	
-0.389221	
-0.389343	
-0.391846	
-0.392883	
-0.39325	
-0.393921	
-0.393616	
-0.394226	
-0.395142	
-0.396118	
-0.39563	
-0.395142	
-0.394653	
-0.394897	
-0.395874	
-0.396118	
-0.396606	
-0.39679	
-0.395569	
-0.396484	
-0.397827	
-0.398438	
-0.397095	
-0.396606	
-0.396423	
-0.395752	
-0.395752	
-0.395325	
-0.395508	
-0.395508	
-0.394348	
-0.394104	
-0.394348	
-0.395813	
-0.393799	
-0.392456	
-0.392151	
-0.392578	
-0.392578	
-0.391663	
-0.391296	
-0.390991	
-0.389771	
-0.39093	
-0.390625	
-0.393127	
-0.391052	
-0.39032	
-0.390015	
-0.390869	
-0.391113	
-0.390442	
-0.390137	
-0.389648	
-0.388184	
-0.390015	
-0.390076	
-0.391357	
-0.39032	
-0.39032	
-0.388733	
-0.388855	
-0.389404	
-0.389099	
-0.389038	
-0.386108	
-0.386169	
-0.387268	
-0.388123	
-0.390381	
-0.389832	
-0.389343	
-0.388489	
-0.388489	
-0.389099	
-0.389465	
-0.389709	
-0.389465	
-0.388977	
-0.390442	
-0.390747	
-0.391785	
-0.391418	
-0.391113	
-0.390869	
-0.390869	
-0.390991	
-0.391479	
-0.39093	
-0.390442	
-0.390259	
-0.390686	
-0.389771	
-0.391541	
-0.391296	
-0.39032	
-0.389954	
-0.388916	
-0.389709	
-0.389893	
-0.389343	
-0.387939	
-0.389221	
-0.390503	
-0.389465	
-0.389587	
-0.390137	
-0.388367	
-0.387817	
-0.387207	
-0.388	
-0.388062	
-0.388306	
-0.386963	
-0.387634	
-0.389038	
-0.388672	
-0.389038	
-0.389832	
-0.389343	
-0.389343	
-0.38855	
-0.388306	
-0.389587	
-0.389648	
-0.388611	
-0.388916	
-0.389648	
-0.389648	
-0.390198	
-0.390564	
-0.389587	
-0.389709	
-0.389343	
-0.388672	
-0.389709	
-0.389771	
-0.389404	
-0.389832	
-0.390381	
-0.39093	
-0.391113	
-0.392212	
-0.390808	
-0.391113	
-0.390991	
-0.390686	
-0.392639	
-0.39209	
-0.391479	
-0.392822	
-0.39386	
-0.394287	
-0.394775	
-0.396606	
-0.396118	
-0.396301	
-0.395874	
-0.395874	
-0.397705	
-0.396118	
-0.395813	
-0.395691	
-0.39679	
-0.397339	
-0.396973	
-0.39856	
-0.398071	
-0.39679	
-0.396973	
-0.396118	
-0.397583	
-0.396729	
-0.396423	
-0.396484	
-0.396301	
-0.396606	
-0.397034	
-0.3974	
-0.396667	
-0.39563	
-0.39563	
-0.394897	
-0.395264	
-0.394714	
-0.393677	
-0.39447	
-0.393311	
-0.393982	
-0.392822	
-0.393799	
-0.392456	
-0.391418	
-0.390686	
-0.390808	
-0.390625	
-0.389465	
-0.388916	
-0.388855	
-0.387512	
-0.387329	
-0.387695	
-0.388855	
-0.387024	
-0.385071	
-0.384216	
-0.384399	
-0.385437	
-0.385071	
-0.385498	
-0.385498	
-0.384583	
-0.385559	
-0.386536	
-0.387756	
-0.387451	
-0.387634	
-0.387573	
-0.388	
-0.388367	
-0.388184	
-0.38855	
-0.388306	
-0.388306	
-0.389832	
-0.390625	
-0.390503	
-0.391724	
-0.390686	
-0.390869	
-0.391113	
-0.391418	
-0.391113	
-0.391357	
-0.390808	
-0.390564	
-0.391541	
-0.39209	
-0.39209	
-0.393616	
-0.391663	
-0.392151	
-0.391724	
-0.393433	
-0.392334	
-0.392883	
-0.391418	
-0.392761	
-0.39325	
-0.393738	
-0.394531	
-0.395203	
-0.394531	
-0.395203	
-0.393738	
-0.393494	
-0.394043	
-0.393555	
-0.392212	
-0.392761	
-0.392395	
-0.392029	
-0.392578	
-0.39447	
-0.392395	
-0.391602	
-0.390991	
-0.390442	
-0.391602	
-0.391541	
-0.390442	
-0.390076	
-0.391235	
-0.391113	
-0.390564	
-0.391418	
-0.390259	
-0.390198	
-0.388794	
-0.388367	
-0.390381	
-0.389893	
-0.390015	
-0.389282	
-0.389648	
-0.390564	
-0.390564	
-0.390198	
-0.390198	
-0.389893	
-0.388794	
-0.389587	
-0.391357	
-0.391663	
-0.391602	
-0.391968	
-0.392456	
-0.392883	
-0.393921	
-0.394531	
-0.394043	
-0.394287	
-0.393616	
-0.393616	
-0.396301	
-0.395569	
-0.395935	
-0.395447	
-0.396667	
-0.39624	
-0.396484	
-0.396423	
-0.396118	
-0.395386	
-0.395508	
-0.394836	
-0.397095	
-0.395752	
-0.395508	
-0.394043	
-0.39502	
-0.39563	
-0.394958	
-0.395081	
-0.394775	
-0.393494	
-0.3927	
-0.392151	
-0.393982	
-0.392212	
-0.392029	
-0.390503	
-0.391663	
-0.391357	
-0.390381	
-0.389954	
-0.389038	
-0.388489	
-0.388	
-0.387085	
-0.388	
-0.386841	
-0.386597	
-0.385803	
-0.386169	
-0.385681	
-0.385986	
-0.387146	
-0.385803	
-0.385498	
-0.385437	
-0.384766	
-0.385925	
-0.385254	
-0.384766	
-0.384033	
-0.384644	
-0.385071	
-0.384949	
-0.386597	
-0.386414	
-0.385315	
-0.385681	
-0.386414	
-0.387756	
-0.387146	
-0.387329	
-0.387634	
-0.387878	
-0.389038	
-0.389465	
-0.390259	
-0.390137	
-0.389832	
-0.389282	
-0.389526	
-0.391052	
-0.390625	
-0.390503	
-0.390137	
-0.391052	
-0.391541	
-0.390747	
	
