C:\DOCUMENTS AND SETTINGS\JASON\DESKTOP\UFRJ\UFRJ EPHYS\RSCI-BM 12 WK SERIES\070803-RSCI-BM-11\RSCI-BM-11-LEMG\070803-RSCI-BM-11-LEMG-0011.ACQ
0.025000 msec/sample
1 channel
Analog input
Volts
CH1	
2000	
-0.392029	
-0.392334	
-0.3927	
-0.392822	
-0.393005	
-0.393799	
-0.393738	
-0.392517	
-0.393372	
-0.392517	
-0.391418	
-0.391541	
-0.391907	
-0.391846	
-0.391541	
-0.391052	
-0.390076	
-0.390503	
-0.390503	
-0.389893	
-0.391846	
-0.389282	
-0.388611	
-0.389404	
-0.389771	
-0.390442	
-0.389526	
-0.390015	
-0.389465	
-0.389771	
-0.390625	
-0.390747	
-0.392151	
-0.390503	
-0.390869	
-0.391052	
-0.391418	
-0.392456	
-0.391846	
-0.39093	
-0.391602	
-0.389343	
-0.392151	
-0.393494	
-0.393005	
-0.392944	
-0.392578	
-0.392761	
-0.391602	
-0.392578	
-0.392883	
-0.392578	
-0.392456	
-0.390564	
-0.392334	
-0.392822	
-0.391602	
-0.391724	
-0.391296	
-0.391602	
-0.389832	
-0.391785	
-0.391541	
-0.390747	
-0.391663	
-0.390503	
-0.391113	
-0.391418	
-0.391846	
-0.391174	
-0.391357	
-0.389954	
-0.390564	
-0.391113	
-0.391846	
-0.390686	
-0.390381	
-0.390137	
-0.39032	
-0.390259	
-0.390259	
-0.39032	
-0.390015	
-0.388733	
-0.389465	
-0.388977	
-0.390198	
-0.388611	
-0.387268	
-0.386658	
-0.386658	
-0.386169	
-0.385803	
-0.386841	
-0.385864	
-0.383179	
-0.384949	
-0.385498	
-0.385986	
-0.384766	
-0.384827	
-0.384521	
-0.383423	
-0.384155	
-0.383972	
-0.385254	
-0.384155	
-0.383667	
-0.384033	
-0.384521	
-0.384094	
-0.384033	
-0.384766	
-0.384827	
-0.383545	
-0.384888	
-0.386047	
-0.386536	
-0.385864	
-0.386169	
-0.386169	
-0.386536	
-0.386475	
-0.388306	
-0.388062	
-0.38855	
-0.387939	
-0.390137	
-0.391174	
-0.390625	
-0.391174	
-0.391235	
-0.391785	
-0.391479	
-0.392944	
-0.394165	
-0.393738	
-0.394714	
-0.392944	
-0.394836	
-0.39679	
-0.397461	
-0.397278	
-0.396545	
-0.395081	
-0.395386	
-0.39624	
-0.396484	
-0.395874	
-0.395508	
-0.394348	
-0.394958	
-0.395142	
-0.394592	
-0.395203	
-0.394104	
-0.392578	
-0.3927	
-0.393372	
-0.393494	
-0.392822	
-0.391724	
-0.391663	
-0.390381	
-0.391907	
-0.391846	
-0.392029	
-0.391235	
-0.389771	
-0.390869	
-0.390625	
-0.389893	
-0.390869	
-0.390503	
-0.389893	
-0.389587	
-0.39032	
-0.390259	
-0.390991	
-0.390137	
-0.388977	
-0.39032	
-0.389771	
-0.389954	
-0.389832	
-0.389648	
-0.389099	
-0.388733	
-0.389893	
-0.388672	
-0.389099	
-0.38855	
-0.388977	
-0.388916	
-0.389343	
-0.390015	
-0.390564	
-0.365356	
-0.360779	
-0.365112	
-0.366943	
-0.367737	
-0.368225	
-0.399292	
-0.397339	
-0.393494	
-0.392883	
-0.393433	
-0.391663	
-0.392822	
-0.39209	
-0.392273	
-0.392578	
-0.393616	
-0.392212	
-0.393311	
-0.392639	
-0.392639	
-0.392456	
-0.393066	
-0.391968	
-0.392639	
-0.392151	
-0.392029	
-0.393127	
-0.393127	
-0.391846	
-0.392822	
-0.391418	
-0.391907	
-0.390442	
-0.391296	
-0.391052	
-0.390686	
-0.390564	
-0.389343	
-0.390869	
-0.389709	
-0.38916	
-0.389221	
-0.387939	
-0.387024	
-0.386536	
-0.38623	
-0.385559	
-0.385437	
-0.385071	
-0.385376	
-0.387451	
-0.389282	
-0.39093	
-0.393127	
-0.394592	
-0.396423	
-0.399658	
-0.401917	
-0.406738	
-0.409607	
-0.411926	
-0.415771	
-0.421021	
-0.426453	
-0.430542	
-0.436951	
-0.441406	
-0.447083	
-0.452759	
-0.458984	
-0.463989	
-0.444702	
-0.445557	
-0.453308	
-0.459839	
-0.465942	
-0.469482	
-0.505066	
-0.5047	
-0.502869	
-0.503052	
-0.505127	
-0.505188	
-0.506775	
-0.508606	
-0.509277	
-0.512695	
-0.515259	
-0.515564	
-0.517456	
-0.51886	
-0.520325	
-0.522095	
-0.525208	
-0.52655	
-0.52832	
-0.529175	
-0.530212	
-0.532288	
-0.534241	
-0.533264	
-0.53302	
-0.533081	
-0.532227	
-0.532043	
-0.531494	
-0.529785	
-0.52832	
-0.526672	
-0.525696	
-0.526245	
-0.525879	
-0.524597	
-0.524231	
-0.523804	
-0.522156	
-0.521423	
-0.520752	
-0.519714	
-0.517517	
-0.516174	
-0.512939	
-0.512756	
-0.510742	
-0.508667	
-0.505615	
-0.50293	
-0.498657	
-0.495544	
-0.493103	
-0.490112	
-0.485901	
-0.482483	
-0.479065	
-0.477356	
-0.474487	
-0.472351	
-0.468567	
-0.465576	
-0.462646	
-0.459534	
-0.457581	
-0.453552	
-0.449219	
-0.443787	
-0.438599	
-0.434692	
-0.428589	
-0.422607	
-0.414673	
-0.408325	
-0.400024	
-0.392578	
-0.386658	
-0.378052	
-0.37085	
-0.36261	
-0.355469	
-0.348633	
-0.342163	
-0.33551	
-0.330383	
-0.325623	
-0.321045	
-0.317688	
-0.316711	
-0.313782	
-0.313477	
-0.311951	
-0.31134	
-0.310303	
-0.310547	
-0.309937	
-0.310547	
-0.311951	
-0.314209	
-0.315735	
-0.318604	
-0.320923	
-0.324707	
-0.328308	
-0.33136	
-0.336853	
-0.340027	
-0.344604	
-0.348083	
-0.351929	
-0.35614	
-0.359436	
-0.363892	
-0.367737	
-0.371216	
-0.374451	
-0.379578	
-0.384949	
-0.38855	
-0.393372	
-0.397705	
-0.402771	
-0.407104	
-0.411865	
-0.416687	
-0.420532	
-0.424744	
-0.428223	
-0.432251	
-0.435791	
-0.438721	
-0.441223	
-0.443176	
-0.445129	
-0.446106	
-0.448364	
-0.448914	
-0.449463	
-0.449463	
-0.450317	
-0.451355	
-0.450928	
-0.452393	
-0.451843	
-0.451416	
-0.451294	
-0.452698	
-0.451965	
-0.451477	
-0.451294	
-0.449158	
-0.44928	
-0.449097	
-0.44635	
-0.445313	
-0.442505	
-0.440491	
-0.436401	
-0.434204	
-0.431213	
-0.426392	
-0.422607	
-0.417542	
-0.414429	
-0.411072	
-0.405762	
-0.401428	
-0.39624	
-0.391418	
-0.386414	
-0.382324	
-0.377808	
-0.372681	
-0.367798	
-0.362	
-0.356995	
-0.352295	
-0.346313	
-0.340637	
-0.333984	
-0.327026	
-0.322205	
-0.316467	
-0.31073	
-0.30426	
-0.299072	
-0.293823	
-0.287903	
-0.284546	
-0.279724	
-0.277588	
-0.273193	
-0.269409	
-0.268127	
-0.265991	
-0.264832	
-0.263123	
-0.260986	
-0.259888	
-0.260864	
-0.262817	
-0.263733	
-0.265503	
-0.267578	
-0.269836	
-0.272888	
-0.275696	
-0.278809	
-0.28241	
-0.286377	
-0.289063	
-0.293701	
-0.296997	
-0.302612	
-0.30481	
-0.308777	
-0.312805	
-0.316101	
-0.320129	
-0.324097	
-0.327576	
-0.330444	
-0.334656	
-0.337341	
-0.340088	
-0.342651	
-0.34491	
-0.347595	
-0.348694	
-0.352112	
-0.352966	
-0.353821	
-0.356628	
-0.357605	
-0.359375	
-0.360229	
-0.362183	
-0.362549	
-0.36438	
-0.364868	
-0.366272	
-0.367188	
-0.367371	
-0.369202	
-0.36969	
-0.370911	
-0.37207	
-0.372131	
-0.372925	
-0.374756	
-0.376648	
-0.375916	
-0.377197	
-0.37616	
-0.377441	
-0.377502	
-0.37793	
-0.3797	
-0.379639	
-0.380066	
-0.379944	
-0.380066	
-0.379761	
-0.379639	
-0.379517	
-0.378601	
-0.380493	
-0.379578	
-0.380737	
-0.380859	
-0.380432	
-0.381348	
-0.379883	
-0.380676	
-0.379944	
-0.380493	
-0.379028	
-0.379578	
-0.379272	
-0.379333	
-0.379761	
-0.379456	
-0.379456	
-0.379822	
-0.379517	
-0.380432	
-0.379333	
-0.3797	
-0.378723	
-0.380005	
-0.378723	
-0.379395	
-0.379761	
-0.380798	
-0.380737	
-0.380798	
-0.381653	
-0.381653	
-0.382019	
-0.381958	
-0.381348	
-0.382935	
-0.383118	
-0.383728	
-0.383484	
-0.383789	
-0.383911	
-0.38324	
-0.38385	
-0.383606	
-0.382813	
-0.382202	
-0.382507	
-0.382202	
-0.382507	
-0.382385	
-0.383179	
-0.38269	
-0.383118	
-0.38269	
-0.381958	
-0.382141	
-0.381775	
-0.380127	
-0.380615	
-0.381409	
-0.381226	
-0.380554	
-0.380554	
-0.381226	
-0.379028	
-0.378418	
-0.377625	
-0.377747	
-0.376099	
-0.376648	
-0.376953	
-0.376648	
-0.376953	
-0.376892	
-0.37677	
-0.376099	
-0.376404	
-0.376221	
-0.375488	
-0.375732	
-0.374634	
-0.376038	
-0.375671	
-0.375488	
-0.376038	
-0.375671	
-0.375671	
-0.375793	
-0.376648	
-0.375244	
-0.376221	
-0.375122	
-0.375671	
-0.376953	
-0.377869	
-0.378723	
-0.378235	
-0.3797	
-0.379089	
-0.380615	
-0.379944	
-0.380066	
-0.380127	
-0.379517	
-0.381042	
-0.381287	
-0.381531	
-0.381226	
-0.381775	
-0.382507	
-0.381653	
-0.383362	
-0.38269	
-0.382813	
-0.381836	
-0.381531	
-0.383118	
-0.382996	
-0.383423	
-0.382813	
-0.383545	
-0.383545	
-0.384094	
-0.385559	
-0.38385	
-0.384033	
-0.383484	
-0.384094	
-0.38623	
-0.386597	
-0.387451	
-0.38739	
-0.385742	
-0.385986	
-0.386353	
-0.386475	
-0.38446	
-0.384705	
-0.384094	
-0.384644	
-0.385498	
-0.384094	
-0.385254	
-0.384583	
-0.38385	
-0.384033	
-0.38446	
-0.384705	
-0.383057	
-0.383179	
-0.382202	
-0.38324	
-0.383972	
-0.384521	
-0.385437	
-0.38501	
-0.385559	
-0.384705	
-0.385681	
-0.386169	
-0.38501	
-0.385559	
-0.384827	
-0.385681	
-0.385498	
-0.38562	
-0.386963	
-0.38678	
-0.387939	
-0.386597	
-0.388855	
-0.387451	
-0.388062	
-0.387573	
-0.386902	
-0.387024	
-0.387146	
-0.387878	
-0.387146	
-0.387695	
-0.387268	
-0.386475	
-0.387573	
-0.386047	
-0.38678	
-0.386475	
-0.386475	
-0.385681	
-0.387268	
-0.387573	
-0.386475	
-0.388184	
-0.387207	
-0.387268	
-0.387939	
-0.387817	
-0.387085	
-0.386108	
-0.387268	
-0.386597	
-0.386841	
-0.386841	
-0.38739	
-0.386902	
-0.386414	
-0.387329	
-0.385803	
-0.387024	
-0.38562	
-0.385254	
-0.386292	
-0.385986	
-0.385986	
-0.385193	
-0.384766	
-0.383667	
-0.383728	
-0.384094	
-0.381592	
-0.382507	
-0.381165	
-0.381775	
-0.380798	
-0.382874	
-0.383545	
-0.381775	
-0.381836	
-0.381042	
-0.38208	
-0.380676	
-0.381042	
-0.381348	
-0.380615	
-0.380615	
-0.380249	
-0.381287	
-0.380981	
-0.38092	
-0.381409	
-0.381348	
-0.382935	
-0.381348	
-0.382507	
-0.382568	
-0.381042	
-0.382507	
-0.382507	
-0.383423	
-0.38446	
-0.385437	
-0.385986	
-0.385132	
-0.387817	
-0.387329	
-0.388	
-0.387573	
-0.387207	
-0.388611	
-0.388306	
-0.389465	
-0.390137	
-0.390503	
-0.390808	
-0.390564	
-0.393494	
-0.391968	
-0.393921	
-0.394043	
-0.393494	
-0.39386	
-0.392212	
-0.394104	
-0.393799	
-0.39386	
-0.392883	
-0.392395	
-0.39447	
-0.391907	
-0.393677	
-0.391846	
-0.390869	
-0.391785	
-0.390869	
-0.392212	
-0.390869	
-0.391907	
-0.390625	
-0.390381	
-0.391113	
-0.389465	
-0.390808	
-0.389648	
-0.388977	
-0.388367	
-0.388855	
-0.389832	
-0.388977	
-0.389648	
-0.388733	
-0.38916	
-0.390137	
-0.388367	
-0.389038	
-0.388245	
-0.388306	
-0.387451	
-0.388306	
-0.389282	
-0.388367	
-0.387695	
-0.387573	
-0.388428	
-0.388794	
-0.388672	
-0.388916	
-0.386414	
-0.386475	
-0.386658	
-0.387329	
-0.387939	
-0.38916	
-0.388916	
-0.388611	
-0.38855	
-0.388977	
-0.389465	
-0.389771	
-0.388367	
-0.390381	
-0.389709	
-0.390381	
-0.390747	
-0.390503	
-0.390137	
-0.390137	
-0.390991	
-0.390686	
-0.391357	
-0.391602	
-0.390076	
-0.391663	
-0.390198	
-0.391907	
-0.391418	
-0.392212	
-0.392029	
-0.391541	
-0.392578	
-0.391541	
-0.391785	
-0.391174	
-0.389648	
-0.39093	
-0.389771	
-0.391052	
-0.389648	
-0.390198	
-0.389038	
-0.388977	
-0.389526	
-0.389282	
-0.389221	
-0.388428	
-0.386841	
-0.387573	
-0.38678	
-0.38739	
-0.386597	
-0.38739	
-0.385925	
-0.386292	
-0.386597	
-0.386841	
-0.386719	
-0.385925	
-0.384338	
-0.386414	
-0.387024	
-0.387573	
-0.386841	
-0.387512	
-0.387329	
-0.38739	
-0.388	
-0.387695	
-0.388489	
-0.388184	
-0.386963	
-0.388672	
-0.389587	
-0.39032	
-0.390259	
-0.390381	
-0.390259	
-0.390686	
-0.391235	
-0.392151	
-0.392822	
-0.391663	
-0.391663	
-0.394714	
-0.395142	
-0.395935	
-0.395874	
-0.395508	
-0.395874	
-0.396118	
-0.396912	
-0.396667	
-0.3974	
-0.395935	
-0.396057	
-0.396851	
-0.396912	
-0.398071	
-0.3974	
-0.397949	
-0.397766	
-0.398315	
-0.397949	
-0.397705	
-0.398315	
-0.396851	
-0.395813	
-0.396362	
-0.396729	
-0.395691	
-0.395691	
-0.395325	
-0.394226	
-0.394592	
-0.394653	
-0.394348	
-0.394226	
-0.393677	
-0.392517	
-0.39325	
-0.393188	
-0.393005	
-0.393494	
-0.392029	
-0.391052	
-0.39209	
-0.393372	
-0.392212	
-0.392456	
-0.391907	
-0.391113	
-0.391907	
-0.391907	
-0.392273	
-0.391785	
-0.390747	
-0.389832	
-0.391357	
-0.391479	
-0.390991	
-0.391846	
-0.389771	
-0.389221	
-0.390259	
-0.389343	
-0.388489	
-0.389648	
-0.389099	
-0.388367	
-0.389893	
-0.390747	
-0.390869	
-0.390747	
-0.389404	
-0.38916	
-0.39032	
-0.391296	
-0.39093	
-0.391785	
-0.391235	
-0.390564	
-0.391724	
-0.392761	
-0.392456	
-0.3927	
-0.391479	
-0.391602	
-0.391724	
-0.391968	
-0.391602	
-0.392334	
-0.391174	
-0.389771	
-0.391235	
-0.391052	
-0.390869	
-0.391174	
-0.389404	
-0.388916	
-0.390015	
-0.389648	
-0.390564	
-0.392029	
-0.390747	
-0.389099	
-0.389771	
-0.39032	
-0.389404	
-0.389526	
-0.387756	
-0.389099	
-0.389404	
-0.389404	
-0.388977	
-0.390076	
-0.389526	
-0.388794	
-0.390076	
-0.391113	
-0.389954	
-0.39032	
-0.389282	
-0.390076	
-0.390137	
-0.391479	
-0.390991	
-0.391296	
-0.390381	
-0.390259	
-0.390747	
-0.39093	
-0.390503	
-0.391174	
-0.390015	
-0.389709	
-0.390442	
-0.391663	
-0.390991	
-0.391724	
-0.390869	
-0.390869	
-0.391968	
-0.391785	
-0.392029	
-0.392273	
-0.391296	
-0.391907	
-0.393127	
-0.393738	
-0.393921	
-0.394409	
-0.394165	
-0.394348	
-0.394287	
-0.39624	
-0.395752	
-0.396606	
-0.396118	
-0.396362	
-0.396729	
-0.397827	
-0.397461	
-0.39679	
-0.397705	
-0.396973	
-0.396667	
-0.398071	
-0.39801	
-0.398865	
-0.397217	
-0.396484	
-0.397095	
-0.397644	
-0.397339	
-0.397095	
-0.397095	
-0.395508	
-0.396301	
-0.396667	
-0.396362	
-0.396423	
-0.394958	
-0.394592	
-0.394653	
-0.394714	
-0.394592	
-0.394043	
-0.393127	
-0.391113	
-0.392395	
-0.392029	
-0.391113	
-0.390747	
-0.389954	
-0.389648	
-0.388794	
-0.389587	
-0.389099	
-0.387939	
-0.387085	
-0.385986	
-0.386108	
-0.385559	
-0.384949	
-0.386108	
-0.384705	
-0.384705	
-0.385986	
-0.386047	
-0.387146	
-0.386353	
-0.386597	
-0.386292	
-0.387878	
-0.388428	
-0.387329	
-0.388489	
-0.386963	
-0.387817	
-0.388367	
-0.388428	
-0.390625	
-0.389343	
-0.389587	
-0.389709	
-0.390747	
-0.390869	
-0.390625	
-0.391785	
-0.389771	
-0.390137	
-0.391113	
-0.391724	
-0.392883	
-0.391418	
-0.391663	
-0.391968	
-0.391846	
-0.391418	
-0.391907	
-0.3927	
-0.391663	
-0.391541	
-0.392761	
-0.392273	
-0.393555	
-0.392395	
-0.392456	
-0.393066	
-0.393555	
-0.393311	
-0.393433	
-0.393372	
-0.393616	
-0.393799	
-0.393433	
-0.392456	
-0.394165	
-0.392761	
-0.39209	
-0.392395	
-0.391663	
-0.392639	
-0.392212	
-0.391479	
-0.391235	
-0.390137	
-0.390503	
-0.389221	
-0.390564	
-0.389709	
-0.389343	
-0.389099	
-0.388367	
-0.389648	
-0.389465	
-0.388977	
-0.388611	
-0.388306	
-0.387817	
-0.387512	
-0.389099	
-0.388123	
-0.387695	
-0.387512	
-0.388611	
-0.388916	
-0.389893	
-0.389587	
-0.389954	
-0.390625	
-0.39032	
-0.389893	
-0.392517	
-0.391357	
-0.39093	
-0.391663	
-0.392395	
-0.392334	
-0.393372	
-0.393311	
-0.394287	
-0.393616	
-0.394592	
-0.393677	
-0.395996	
-0.394897	
-0.394958	
-0.394897	
-0.394714	
-0.394958	
-0.395203	
-0.394165	
-0.394226	
-0.393677	
-0.394592	
-0.393005	
-0.395203	
-0.393433	
-0.392944	
-0.393127	
-0.391724	
-0.392761	
-0.3927	
-0.391968	
-0.391724	
-0.391418	
-0.391418	
-0.390198	
-0.392212	
-0.390137	
-0.390015	
-0.389465	
-0.388733	
-0.387939	
-0.387573	
-0.386658	
-0.386292	
-0.385742	
-0.385803	
-0.38501	
-0.386047	
-0.384888	
-0.385254	
-0.384338	
-0.384094	
-0.384644	
-0.38501	
-0.383911	
-0.384277	
-0.383728	
-0.383667	
-0.383606	
-0.384521	
-0.384033	
-0.383484	
-0.382813	
-0.383179	
-0.384277	
-0.384949	
-0.383484	
-0.38446	
-0.384644	
-0.385376	
-0.385376	
-0.38678	
-0.385925	
-0.38678	
-0.386597	
-0.385986	
-0.387634	
-0.388184	
-0.386597	
-0.388794	
-0.387939	
-0.388489	
-0.388123	
-0.389709	
-0.388123	
-0.388916	
-0.388916	
-0.388184	
-0.38916	
-0.389465	
-0.388	
-0.390259	
-0.389893	
-0.38916	
-0.389526	
-0.390625	
-0.389771	
-0.389832	
-0.389893	
-0.389832	
-0.390137	
-0.391296	
-0.39032	
-0.392578	
-0.391846	
-0.393188	
-0.392944	
-0.393066	
-0.391907	
-0.391479	
-0.391663	
-0.390991	
-0.391235	
-0.391235	
-0.390259	
-0.391541	
-0.390259	
-0.389832	
-0.389709	
-0.389954	
-0.389648	
-0.38916	
-0.389404	
-0.38855	
-0.388733	
-0.38916	
-0.388184	
-0.389221	
-0.388489	
-0.388794	
-0.389404	
-0.390503	
-0.389404	
-0.389771	
-0.390747	
-0.390015	
-0.390686	
-0.390747	
-0.391235	
-0.390381	
-0.389465	
-0.389954	
-0.390808	
-0.392273	
-0.390991	
-0.391174	
-0.392334	
-0.391907	
-0.391602	
-0.391663	
-0.39209	
-0.391418	
-0.390808	
-0.392029	
-0.391357	
-0.391541	
-0.390991	
-0.390747	
-0.390991	
-0.390442	
-0.390503	
-0.390381	
-0.390198	
-0.390503	
-0.390015	
-0.39032	
-0.390076	
-0.390991	
-0.390259	
-0.390381	
-0.390991	
-0.390137	
-0.390625	
-0.390503	
-0.390076	
-0.390137	
-0.389038	
-0.389343	
-0.389648	
-0.389771	
-0.389648	
-0.389099	
-0.389404	
-0.388062	
-0.389099	
-0.389099	
-0.388	
-0.388184	
-0.387207	
-0.38739	
-0.38678	
-0.385925	
-0.385742	
-0.385193	
-0.385071	
-0.383789	
-0.384399	
-0.38446	
-0.383484	
-0.384766	
-0.383789	
-0.38324	
-0.383667	
-0.383728	
-0.383301	
-0.383362	
-0.38269	
-0.382996	
-0.383484	
-0.383484	
-0.382324	
-0.384399	
-0.382874	
-0.383484	
-0.384521	
-0.384399	
-0.384705	
-0.38446	
-0.384521	
-0.383545	
-0.385376	
-0.385681	
-0.38385	
-0.385986	
-0.38623	
-0.38739	
-0.388367	
-0.388367	
-0.388977	
-0.389526	
-0.389893	
-0.389526	
-0.390381	
-0.391479	
-0.390442	
-0.391602	
-0.392456	
-0.3927	
-0.393127	
-0.394775	
-0.39386	
-0.39502	
-0.395569	
-0.394897	
-0.396423	
-0.396179	
-0.394409	
-0.395081	
-0.395447	
-0.394287	
-0.394165	
-0.394775	
-0.393921	
-0.39447	
-0.393799	
-0.392395	
-0.393372	
-0.394043	
-0.392273	
-0.392151	
-0.392639	
-0.391357	
-0.391418	
-0.391785	
-0.390625	
-0.390625	
-0.390198	
-0.389343	
-0.390808	
-0.39032	
-0.389038	
-0.389526	
-0.390625	
-0.389282	
-0.390137	
-0.390625	
-0.389709	
-0.389282	
-0.389465	
-0.388733	
-0.389526	
-0.389465	
-0.388245	
-0.388977	
-0.389282	
-0.388611	
-0.388855	
-0.389893	
-0.388184	
-0.389282	
-0.388245	
-0.38739	
-0.387634	
-0.388	
-0.387634	
-0.38916	
-0.389648	
-0.389465	
-0.389343	
-0.390381	
-0.389832	
-0.389465	
-0.389465	
-0.390381	
-0.390808	
-0.391052	
-0.390869	
-0.391052	
-0.391541	
-0.390869	
-0.391357	
-0.392151	
-0.391113	
-0.391357	
-0.391357	
-0.391113	
-0.391541	
-0.3927	
-0.391235	
-0.39209	
-0.392639	
-0.39209	
-0.391907	
-0.392761	
-0.391907	
-0.391602	
-0.391968	
-0.391357	
-0.390625	
-0.392273	
-0.389771	
-0.389648	
-0.389832	
-0.389832	
-0.389282	
-0.390503	
-0.389404	
-0.388916	
-0.388611	
-0.387695	
-0.387756	
-0.38739	
-0.386475	
-0.386292	
-0.386902	
-0.385681	
-0.386414	
-0.388062	
-0.386475	
-0.386536	
-0.386597	
-0.385925	
-0.387146	
-0.387695	
-0.386902	
-0.386353	
-0.388672	
-0.387146	
-0.387878	
-0.388794	
-0.386963	
-0.389038	
-0.388245	
-0.388733	
-0.38916	
-0.389954	
-0.390259	
-0.389587	
-0.391113	
-0.390625	
-0.391602	
-0.3927	
-0.391296	
-0.392212	
-0.391357	
-0.393555	
-0.395142	
-0.395325	
-0.396179	
-0.394836	
-0.396057	
-0.39563	
-0.396851	
-0.397766	
-0.395691	
-0.396729	
-0.396973	
-0.397156	
-0.397766	
-0.397705	
-0.399109	
-0.397034	
-0.398315	
-0.398132	
-0.398743	
-0.39917	
-0.3974	
-0.397827	
-0.397827	
-0.397034	
-0.39679	
-0.396729	
-0.397522	
-0.395874	
-0.395447	
-0.394775	
-0.395081	
-0.395752	
-0.394165	
-0.394531	
-0.393311	
-0.394043	
-0.393188	
-0.393494	
-0.393555	
-0.3927	
-0.393127	
-0.393005	
-0.392822	
-0.393066	
-0.392517	
-0.392151	
-0.392029	
-0.392273	
-0.391968	
-0.392273	
-0.3927	
-0.390869	
-0.392273	
-0.391541	
-0.390808	
-0.391907	
-0.391418	
-0.390869	
-0.390503	
-0.390564	
-0.390381	
-0.389099	
-0.38916	
-0.389099	
-0.389893	
-0.390076	
-0.388977	
-0.390747	
-0.391174	
-0.390686	
-0.390259	
-0.389832	
-0.391479	
-0.391357	
-0.391785	
-0.391113	
-0.392029	
-0.392273	
-0.391418	
-0.39325	
-0.392639	
-0.392822	
-0.392639	
-0.391907	
-0.393005	
-0.392639	
-0.3927	
-0.391174	
-0.392395	
-0.391541	
-0.390564	
-0.391724	
-0.391907	
-0.390869	
-0.390808	
-0.389832	
-0.391174	
-0.39093	
-0.391357	
-0.390381	
-0.391602	
-0.39032	
-0.389587	
-0.390564	
-0.390076	
-0.389832	
-0.389771	
-0.389099	
-0.390137	
-0.389893	
-0.389709	
-0.390137	
-0.390564	
-0.390442	
-0.390259	
-0.390991	
-0.391174	
-0.390442	
-0.391113	
-0.389404	
-0.391541	
-0.391724	
-0.391052	
-0.391418	
-0.391479	
-0.391357	
-0.391052	
-0.391296	
-0.391602	
-0.391357	
-0.391602	
-0.390381	
-0.391846	
-0.391724	
-0.391541	
-0.392212	
-0.391907	
-0.391907	
-0.392029	
-0.392273	
-0.391907	
-0.393555	
-0.39325	
-0.392334	
-0.393921	
-0.394043	
-0.394653	
-0.395386	
-0.395935	
-0.396301	
-0.395691	
-0.396362	
-0.397156	
-0.3974	
-0.397705	
-0.397644	
-0.398438	
-0.397522	
-0.398315	
-0.398743	
-0.398376	
-0.398682	
-0.397522	
-0.398193	
-0.399658	
-0.398254	
-0.398499	
-0.397461	
-0.398376	
-0.397644	
-0.397827	
-0.398438	
-0.397339	
-0.397339	
-0.397278	
-0.397522	
-0.398071	
-0.396179	
-0.396667	
-0.395447	
-0.396118	
-0.395325	
-0.394714	
-0.39502	
-0.393921	
-0.393616	
-0.391968	
-0.392273	
-0.3927	
-0.391052	
-0.39093	
-0.390442	
-0.389893	
-0.389587	
-0.388855	
-0.38916	
-0.388306	
-0.387817	
-0.385559	
-0.385559	
-0.386169	
-0.38562	
-0.386292	
-0.386475	
-0.385742	
-0.38678	
-0.387146	
-0.387512	
-0.387329	
-0.388062	
-0.388062	
-0.387817	
-0.388977	
-0.387756	
-0.388855	
-0.389343	
-0.38855	
-0.389465	
-0.390015	
-0.39093	
-0.389954	
-0.391357	
-0.390686	
-0.390564	
-0.391907	
-0.392273	
-0.391541	
-0.391724	
-0.390869	
-0.391724	
-0.391968	
-0.392334	
-0.392334	
-0.392761	
-0.391907	
-0.391846	
-0.392944	
-0.392639	
-0.391785	
-0.392578	
-0.391724	
-0.393127	
-0.393311	
-0.393127	
-0.393677	
-0.394409	
-0.392944	
-0.392639	
-0.393311	
-0.393982	
-0.393982	
-0.394165	
-0.392761	
-0.393188	
-0.392944	
-0.392578	
-0.392395	
-0.392761	
-0.391479	
-0.390503	
-0.391785	
-0.391052	
-0.390869	
-0.391296	
-0.391052	
-0.390564	
-0.390686	
-0.390686	
-0.39032	
-0.390015	
-0.389954	
-0.389404	
-0.389954	
-0.389648	
-0.39032	
-0.390076	
-0.38916	
-0.389221	
-0.389832	
-0.389954	
-0.389404	
-0.389832	
-0.389038	
-0.388611	
-0.389709	
-0.389709	
-0.391296	
-0.391113	
-0.391235	
-0.390869	
-0.392334	
-0.391907	
-0.391907	
-0.392578	
-0.392639	
-0.391846	
-0.3927	
-0.394287	
-0.395203	
-0.394348	
-0.394531	
-0.394165	
-0.395691	
-0.395203	
-0.395508	
-0.395508	
-0.395386	
-0.394226	
-0.395447	
-0.394531	
-0.394287	
-0.394775	
-0.39447	
-0.393005	
-0.394409	
-0.39386	
-0.393738	
-0.39325	
-0.39386	
-0.3927	
-0.3927	
-0.39209	
-0.391907	
-0.391174	
-0.391663	
-0.390381	
-0.39032	
-0.390503	
-0.391479	
-0.389893	
-0.389648	
-0.387817	
-0.38739	
-0.38739	
-0.387207	
-0.386353	
-0.38678	
-0.385376	
-0.38501	
-0.384888	
-0.386597	
-0.385437	
-0.385254	
-0.384399	
-0.385132	
-0.385315	
-0.384827	
-0.384705	
-0.384155	
-0.382874	
-0.383484	
-0.383667	
-0.384583	
-0.384033	
-0.384766	
-0.384216	
-0.384521	
-0.385742	
-0.384949	
-0.386597	
-0.385376	
-0.385437	
-0.386047	
-0.386414	
-0.387817	
-0.386841	
-0.388428	
-0.388062	
-0.387817	
-0.388916	
-0.387512	
-0.388611	
-0.389038	
-0.388062	
-0.388733	
-0.389221	
-0.389404	
-0.389099	
-0.389832	
-0.389343	
-0.388611	
-0.389832	
-0.389099	
-0.389648	
-0.390503	
-0.389221	
-0.390137	
-0.389709	
-0.390259	
-0.391174	
-0.391052	
-0.390442	
	
