C:\DOCUMENTS AND SETTINGS\JASON\DESKTOP\UFRJ\UFRJ EPHYS\RSCI-BM 12 WK SERIES\070803-RSCI-BM-11\RSCI-BM-11-LEMG\070803-RSCI-BM-11-LEMG-0015.ACQ
0.025000 msec/sample
1 channel
Analog input
Volts
CH1	
2000	
-0.393127	
-0.392273	
-0.391541	
-0.39032	
-0.391663	
-0.390869	
-0.39093	
-0.39032	
-0.390564	
-0.391541	
-0.3927	
-0.392883	
-0.39325	
-0.393494	
-0.392578	
-0.392334	
-0.393433	
-0.393677	
-0.393555	
-0.394226	
-0.394653	
-0.39502	
-0.39624	
-0.395691	
-0.396729	
-0.395874	
-0.395691	
-0.395081	
-0.394836	
-0.394775	
-0.394958	
-0.394531	
-0.394897	
-0.395447	
-0.395447	
-0.395142	
-0.395325	
-0.39502	
-0.394287	
-0.393066	
-0.391663	
-0.391479	
-0.392212	
-0.391968	
-0.391968	
-0.392273	
-0.392761	
-0.392456	
-0.393372	
-0.392822	
-0.39209	
-0.391724	
-0.392151	
-0.391785	
-0.392212	
-0.39209	
-0.391357	
-0.391968	
-0.393494	
-0.39209	
-0.3927	
-0.392151	
-0.391479	
-0.391052	
-0.390686	
-0.390503	
-0.391052	
-0.390625	
-0.389709	
-0.389893	
-0.391235	
-0.389893	
-0.390625	
-0.389221	
-0.388306	
-0.388428	
-0.387695	
-0.387024	
-0.387756	
-0.388123	
-0.387207	
-0.387207	
-0.388306	
-0.387207	
-0.388184	
-0.388672	
-0.387878	
-0.387573	
-0.387573	
-0.387512	
-0.387817	
-0.388123	
-0.387817	
-0.388367	
-0.389221	
-0.388367	
-0.39032	
-0.390625	
-0.388794	
-0.389038	
-0.389709	
-0.389282	
-0.390259	
-0.389893	
-0.389709	
-0.389954	
-0.390869	
-0.390137	
-0.391724	
-0.39209	
-0.390503	
-0.390991	
-0.390686	
-0.391663	
-0.391907	
-0.391785	
-0.391907	
-0.392273	
-0.39386	
-0.394836	
-0.396179	
-0.396545	
-0.394348	
-0.393921	
-0.393982	
-0.394287	
-0.39502	
-0.39502	
-0.395569	
-0.395752	
-0.396912	
-0.396362	
-0.396851	
-0.397156	
-0.395935	
-0.395935	
-0.395996	
-0.395874	
-0.396423	
-0.396973	
-0.396667	
-0.396851	
-0.397095	
-0.396545	
-0.396912	
-0.396973	
-0.396118	
-0.395447	
-0.395386	
-0.395203	
-0.395264	
-0.395142	
-0.394836	
-0.395081	
-0.395447	
-0.395081	
-0.395813	
-0.395813	
-0.394226	
-0.394287	
-0.39386	
-0.394287	
-0.394348	
-0.394287	
-0.394287	
-0.394165	
-0.394653	
-0.393677	
-0.394592	
-0.39447	
-0.392578	
-0.393433	
-0.391663	
-0.392639	
-0.392761	
-0.392395	
-0.392395	
-0.39093	
-0.390686	
-0.391296	
-0.391296	
-0.39209	
-0.39032	
-0.390747	
-0.390747	
-0.390686	
-0.39093	
-0.392029	
-0.39209	
-0.391418	
-0.392151	
-0.392212	
-0.392456	
-0.393311	
-0.391296	
-0.391724	
-0.390686	
-0.367065	
-0.362122	
-0.366638	
-0.367859	
-0.368958	
-0.369385	
-0.401428	
-0.398499	
-0.395691	
-0.393555	
-0.3927	
-0.390381	
-0.390137	
-0.391052	
-0.390869	
-0.389465	
-0.390869	
-0.390137	
-0.390259	
-0.389587	
-0.389954	
-0.388489	
-0.388428	
-0.386963	
-0.387207	
-0.38855	
-0.388306	
-0.388062	
-0.388611	
-0.388916	
-0.390137	
-0.388733	
-0.390259	
-0.388855	
-0.389099	
-0.388672	
-0.388184	
-0.390198	
-0.390259	
-0.390259	
-0.390625	
-0.390991	
-0.391724	
-0.391174	
-0.391174	
-0.389343	
-0.389221	
-0.388733	
-0.38855	
-0.389771	
-0.389587	
-0.391296	
-0.393494	
-0.395142	
-0.398254	
-0.400513	
-0.403809	
-0.40448	
-0.407715	
-0.410095	
-0.414063	
-0.418213	
-0.422424	
-0.426819	
-0.432007	
-0.4375	
-0.4422	
-0.448975	
-0.454834	
-0.459106	
-0.464966	
-0.470886	
-0.476501	
-0.482239	
-0.487	
-0.491333	
-0.494629	
-0.499207	
-0.500549	
-0.503235	
-0.503845	
-0.505859	
-0.507385	
-0.507935	
-0.510864	
-0.512207	
-0.512756	
-0.514771	
-0.515625	
-0.517273	
-0.51886	
-0.521057	
-0.52002	
-0.52179	
-0.523682	
-0.525208	
-0.526428	
-0.526733	
-0.52832	
-0.529724	
-0.529907	
-0.530762	
-0.530334	
-0.530701	
-0.528259	
-0.528076	
-0.527771	
-0.526672	
-0.526184	
-0.525085	
-0.524719	
-0.523254	
-0.52301	
-0.523254	
-0.522644	
-0.521851	
-0.518982	
-0.517822	
-0.518311	
-0.517029	
-0.516541	
-0.513916	
-0.512695	
-0.511658	
-0.509888	
-0.507568	
-0.505676	
-0.501831	
-0.497253	
-0.493652	
-0.491638	
-0.487976	
-0.484253	
-0.480896	
-0.477173	
-0.473511	
-0.46991	
-0.466248	
-0.463074	
-0.45813	
-0.453247	
-0.448792	
-0.443604	
-0.439392	
-0.433472	
-0.427185	
-0.420349	
-0.412903	
-0.40564	
-0.397278	
-0.388245	
-0.378784	
-0.369202	
-0.359863	
-0.350769	
-0.342102	
-0.332764	
-0.323975	
-0.31488	
-0.307434	
-0.281921	
-0.263245	
-0.261597	
-0.257446	
-0.252197	
-0.247986	
-0.273499	
-0.27301	
-0.266846	
-0.264282	
-0.260925	
-0.261597	
-0.26178	
-0.261475	
-0.262634	
-0.261963	
-0.263306	
-0.267456	
-0.270508	
-0.273865	
-0.277344	
-0.281494	
-0.285522	
-0.29071	
-0.295105	
-0.299561	
-0.304138	
-0.308716	
-0.312439	
-0.316956	
-0.321533	
-0.325806	
-0.329773	
-0.333008	
-0.338135	
-0.342041	
-0.345703	
-0.349731	
-0.350647	
-0.354736	
-0.357361	
-0.362244	
-0.364502	
-0.366699	
-0.368774	
-0.371643	
-0.374756	
-0.375732	
-0.37854	
-0.379944	
-0.380859	
-0.383972	
-0.386353	
-0.390442	
-0.393127	
-0.395508	
-0.39917	
-0.40271	
-0.406616	
-0.408752	
-0.411987	
-0.413818	
-0.416077	
-0.41925	
-0.421997	
-0.424683	
-0.427673	
-0.429871	
-0.433289	
-0.437622	
-0.440857	
-0.44397	
-0.447021	
-0.449341	
-0.451843	
-0.456177	
-0.458191	
-0.460083	
-0.462036	
-0.463928	
-0.466064	
-0.467712	
-0.468872	
-0.470093	
-0.470459	
-0.470032	
-0.470581	
-0.470459	
-0.470825	
-0.470825	
-0.470093	
-0.470215	
-0.470947	
-0.469666	
-0.467041	
-0.465637	
-0.462524	
-0.460266	
-0.458984	
-0.456726	
-0.454407	
-0.451782	
-0.448914	
-0.447083	
-0.445557	
-0.443542	
-0.441711	
-0.439819	
-0.437683	
-0.43689	
-0.436951	
-0.43457	
-0.433105	
-0.431763	
-0.430908	
-0.428467	
-0.426453	
-0.425598	
-0.423584	
-0.421143	
-0.420593	
-0.420837	
-0.420593	
-0.418701	
-0.417969	
-0.416504	
-0.415955	
-0.415649	
-0.414124	
-0.412781	
-0.409851	
-0.407532	
-0.403076	
-0.401367	
-0.397766	
-0.393799	
-0.390198	
-0.385315	
-0.380615	
-0.374695	
-0.369019	
-0.360046	
-0.352417	
-0.344543	
-0.335449	
-0.327515	
-0.318665	
-0.311279	
-0.304077	
-0.296082	
-0.291504	
-0.286316	
-0.283264	
-0.279907	
-0.276489	
-0.276184	
-0.276428	
-0.276062	
-0.274292	
-0.275574	
-0.276184	
-0.275757	
-0.27771	
-0.278809	
-0.280884	
-0.281982	
-0.285706	
-0.287048	
-0.289185	
-0.293762	
-0.297363	
-0.301331	
-0.305237	
-0.309326	
-0.313232	
-0.318298	
-0.322266	
-0.325012	
-0.32959	
-0.333313	
-0.337463	
-0.340515	
-0.344116	
-0.34668	
-0.34845	
-0.35321	
-0.355408	
-0.358215	
-0.360168	
-0.362244	
-0.362793	
-0.366577	
-0.368347	
-0.369873	
-0.370544	
-0.371338	
-0.373474	
-0.373779	
-0.375671	
-0.375122	
-0.374451	
-0.376038	
-0.374878	
-0.377014	
-0.376831	
-0.377014	
-0.377319	
-0.377625	
-0.378418	
-0.378845	
-0.379272	
-0.378113	
-0.377686	
-0.377563	
-0.377869	
-0.378235	
-0.377563	
-0.377869	
-0.378174	
-0.378845	
-0.378174	
-0.378906	
-0.377441	
-0.377014	
-0.376343	
-0.375244	
-0.376526	
-0.375793	
-0.375	
-0.373657	
-0.372559	
-0.373169	
-0.371277	
-0.371582	
-0.367859	
-0.36615	
-0.36438	
-0.365234	
-0.365356	
-0.364258	
-0.363342	
-0.361938	
-0.36084	
-0.361816	
-0.360168	
-0.359497	
-0.357666	
-0.356689	
-0.356445	
-0.356873	
-0.356689	
-0.35553	
-0.355408	
-0.354187	
-0.355164	
-0.355164	
-0.355896	
-0.355225	
-0.355042	
-0.354797	
-0.354675	
-0.357849	
-0.358337	
-0.358643	
-0.359436	
-0.359863	
-0.361145	
-0.363037	
-0.363953	
-0.363586	
-0.363281	
-0.364624	
-0.365112	
-0.366272	
-0.367371	
-0.367737	
-0.367859	
-0.368958	
-0.371582	
-0.37146	
-0.37146	
-0.371094	
-0.372375	
-0.371399	
-0.373901	
-0.372803	
-0.374207	
-0.374084	
-0.375122	
-0.376892	
-0.377197	
-0.378784	
-0.378845	
-0.378174	
-0.378052	
-0.378906	
-0.379028	
-0.378906	
-0.37854	
-0.379028	
-0.379883	
-0.379639	
-0.38031	
-0.379333	
-0.379272	
-0.379456	
-0.378784	
-0.379578	
-0.380188	
-0.379639	
-0.37854	
-0.379883	
-0.380371	
-0.379883	
-0.380066	
-0.378479	
-0.378906	
-0.378601	
-0.380188	
-0.380249	
-0.380188	
-0.381042	
-0.381714	
-0.382507	
-0.382996	
-0.383545	
-0.382996	
-0.382446	
-0.383423	
-0.383972	
-0.384949	
-0.384827	
-0.38501	
-0.384705	
-0.385559	
-0.38678	
-0.386169	
-0.386963	
-0.386047	
-0.385498	
-0.385559	
-0.38562	
-0.385071	
-0.385742	
-0.38562	
-0.384338	
-0.384705	
-0.38623	
-0.384949	
-0.384521	
-0.382507	
-0.381897	
-0.382446	
-0.384399	
-0.382202	
-0.382996	
-0.382935	
-0.382996	
-0.383484	
-0.384216	
-0.383972	
-0.384216	
-0.38385	
-0.383545	
-0.383362	
-0.384644	
-0.382507	
-0.383728	
-0.383484	
-0.383667	
-0.383789	
-0.384705	
-0.384277	
-0.384155	
-0.384155	
-0.382751	
-0.382263	
-0.383911	
-0.38269	
-0.382813	
-0.382019	
-0.381592	
-0.38208	
-0.382019	
-0.382324	
-0.381226	
-0.380737	
-0.379944	
-0.381165	
-0.380615	
-0.380615	
-0.380615	
-0.379028	
-0.380737	
-0.380981	
-0.382446	
-0.381714	
-0.381226	
-0.381409	
-0.38092	
-0.382263	
-0.380432	
-0.381958	
-0.381592	
-0.382019	
-0.382751	
-0.383118	
-0.384338	
-0.383057	
-0.382874	
-0.383118	
-0.384033	
-0.384094	
-0.38446	
-0.383972	
-0.384705	
-0.38562	
-0.38562	
-0.38623	
-0.385437	
-0.385254	
-0.385437	
-0.385254	
-0.386902	
-0.385254	
-0.387329	
-0.386963	
-0.387512	
-0.389038	
-0.390198	
-0.390625	
-0.389465	
-0.389465	
-0.388062	
-0.389954	
-0.389709	
-0.390503	
-0.39032	
-0.389832	
-0.391602	
-0.392883	
-0.392822	
-0.391785	
-0.391907	
-0.391663	
-0.391052	
-0.392639	
-0.391296	
-0.391968	
-0.392334	
-0.392456	
-0.393311	
-0.393372	
-0.393372	
-0.392151	
-0.390991	
-0.390198	
-0.391907	
-0.392151	
-0.390259	
-0.391418	
-0.391479	
-0.391357	
-0.391235	
-0.391479	
-0.391235	
-0.391052	
-0.389465	
-0.390137	
-0.391357	
-0.390869	
-0.390259	
-0.390503	
-0.39032	
-0.390564	
-0.390686	
-0.391479	
-0.390198	
-0.389893	
-0.389526	
-0.388672	
-0.389404	
-0.389282	
-0.389343	
-0.388733	
-0.388	
-0.388733	
-0.388306	
-0.388184	
-0.386108	
-0.387695	
-0.386719	
-0.386963	
-0.388	
-0.387878	
-0.387756	
-0.388672	
-0.387573	
-0.388306	
-0.389526	
-0.390198	
-0.389038	
-0.388733	
-0.389038	
-0.38855	
-0.388794	
-0.388977	
-0.38916	
-0.389893	
-0.388794	
-0.389832	
-0.390869	
-0.390991	
-0.389282	
-0.388489	
-0.388062	
-0.387939	
-0.387878	
-0.38678	
-0.387451	
-0.387024	
-0.384888	
-0.386658	
-0.387207	
-0.385437	
-0.385437	
-0.384827	
-0.38324	
-0.384521	
-0.384888	
-0.383179	
-0.384216	
-0.384094	
-0.384155	
-0.384949	
-0.38739	
-0.385254	
-0.385376	
-0.384827	
-0.385193	
-0.385254	
-0.386414	
-0.385986	
-0.385681	
-0.386414	
-0.387451	
-0.387573	
-0.388123	
-0.387573	
-0.387878	
-0.38678	
-0.388306	
-0.388306	
-0.388062	
-0.388367	
-0.387878	
-0.387451	
-0.388916	
-0.390564	
-0.389343	
-0.388977	
-0.388916	
-0.38916	
-0.389526	
-0.390381	
-0.389343	
-0.389832	
-0.389954	
-0.391113	
-0.392212	
-0.393555	
-0.392334	
-0.391785	
-0.391907	
-0.391907	
-0.392944	
-0.393738	
-0.392212	
-0.393494	
-0.393616	
-0.394043	
-0.394592	
-0.394348	
-0.394409	
-0.394348	
-0.392883	
-0.393311	
-0.394409	
-0.395447	
-0.394958	
-0.39447	
-0.39447	
-0.394348	
-0.39502	
-0.393677	
-0.393494	
-0.39386	
-0.393188	
-0.391907	
-0.393066	
-0.393188	
-0.392517	
-0.392029	
-0.391418	
-0.391724	
-0.392639	
-0.391357	
-0.390747	
-0.391541	
-0.390991	
-0.390137	
-0.389954	
-0.389526	
-0.389587	
-0.389282	
-0.388855	
-0.38916	
-0.390076	
-0.390015	
-0.388794	
-0.388489	
-0.388367	
-0.387573	
-0.387268	
-0.384827	
-0.386292	
-0.386658	
-0.385742	
-0.386169	
-0.388245	
-0.387878	
-0.386292	
-0.386169	
-0.38678	
-0.387085	
-0.388	
-0.387085	
-0.387207	
-0.386963	
-0.387451	
-0.388245	
-0.387878	
-0.388489	
-0.387695	
-0.386597	
-0.388306	
-0.388245	
-0.388489	
-0.38855	
-0.389038	
-0.388611	
-0.389038	
-0.389648	
-0.388733	
-0.388672	
-0.387756	
-0.385925	
-0.387207	
-0.387512	
-0.386841	
-0.386047	
-0.386353	
-0.385498	
-0.385376	
-0.385681	
-0.385254	
-0.385132	
-0.384155	
-0.382935	
-0.384094	
-0.384094	
-0.383118	
-0.383911	
-0.384521	
-0.383423	
-0.384583	
-0.385864	
-0.384766	
-0.38501	
-0.385132	
-0.384338	
-0.384705	
-0.386169	
-0.385803	
-0.387085	
-0.388062	
-0.387207	
-0.388489	
-0.388733	
-0.388123	
-0.387451	
-0.388306	
-0.387512	
-0.38623	
-0.387939	
-0.387329	
-0.38739	
-0.38739	
-0.387207	
-0.387451	
-0.388	
-0.388428	
-0.387817	
-0.387451	
-0.388062	
-0.387695	
-0.388611	
-0.388123	
-0.388489	
-0.388733	
-0.389465	
-0.389893	
-0.391357	
-0.391663	
-0.391113	
-0.390137	
-0.391174	
-0.391724	
-0.391724	
-0.39209	
-0.391724	
-0.391785	
-0.392334	
-0.392883	
-0.393066	
-0.392944	
-0.392822	
-0.391846	
-0.392822	
-0.391724	
-0.391846	
-0.391968	
-0.391174	
-0.39093	
-0.391907	
-0.392456	
-0.392517	
-0.392029	
-0.391785	
-0.390625	
-0.390381	
-0.390198	
-0.389709	
-0.389893	
-0.390015	
-0.389526	
-0.389648	
-0.39032	
-0.391235	
-0.389648	
-0.389282	
-0.389038	
-0.388733	
-0.388916	
-0.389282	
-0.388245	
-0.388123	
-0.388428	
-0.388306	
-0.388672	
-0.388611	
-0.386536	
-0.385681	
-0.385559	
-0.384949	
-0.38562	
-0.386475	
-0.385925	
-0.385437	
-0.385254	
-0.385254	
-0.385742	
-0.385437	
-0.384033	
-0.383728	
-0.382996	
-0.381958	
-0.383484	
-0.38269	
-0.382568	
-0.382385	
-0.382141	
-0.382996	
-0.383423	
-0.38324	
-0.381958	
-0.381409	
-0.382568	
-0.381714	
-0.382507	
-0.383179	
-0.383179	
-0.383118	
-0.382385	
-0.38324	
-0.383667	
-0.38446	
-0.383972	
-0.383179	
-0.383606	
-0.38385	
-0.383911	
-0.384644	
-0.384644	
-0.38501	
-0.384705	
-0.385315	
-0.385681	
-0.386719	
-0.386597	
-0.385498	
-0.385742	
-0.385071	
-0.387146	
-0.386597	
-0.387146	
-0.387451	
-0.387329	
-0.387878	
-0.388733	
-0.388977	
-0.388977	
-0.389282	
-0.389648	
-0.388916	
-0.390625	
-0.389587	
-0.389526	
-0.388977	
-0.389038	
-0.389587	
-0.389343	
-0.389893	
-0.389221	
-0.387756	
-0.386902	
-0.387756	
-0.387939	
-0.388367	
-0.388123	
-0.38678	
-0.387451	
-0.387695	
-0.387512	
-0.388367	
-0.387817	
-0.38678	
-0.386353	
-0.387634	
-0.387939	
-0.388306	
-0.38855	
-0.387756	
-0.389099	
-0.390015	
-0.390747	
-0.391846	
-0.389404	
-0.389221	
-0.389587	
-0.390808	
-0.391113	
-0.391479	
-0.391541	
-0.389648	
-0.391296	
-0.391968	
-0.392212	
-0.392639	
-0.390564	
-0.390015	
-0.390503	
-0.390991	
-0.390686	
-0.390747	
-0.390564	
-0.389099	
-0.390137	
-0.390381	
-0.390198	
-0.391174	
-0.389038	
-0.388367	
-0.388672	
-0.389038	
-0.388489	
-0.388367	
-0.388245	
-0.387756	
-0.388184	
-0.388794	
-0.38916	
-0.38855	
-0.387451	
-0.387207	
-0.386841	
-0.387817	
-0.387451	
-0.387512	
-0.386902	
-0.386353	
-0.385193	
-0.385803	
-0.386414	
-0.385559	
-0.385864	
-0.385437	
-0.384155	
-0.386047	
-0.385254	
-0.385071	
-0.38446	
-0.383972	
-0.384033	
-0.384521	
-0.384644	
-0.383118	
-0.383179	
-0.382263	
-0.381531	
-0.383545	
-0.382935	
-0.382446	
-0.38269	
-0.382385	
-0.382629	
-0.383789	
-0.385193	
-0.383545	
-0.383423	
-0.383118	
-0.384155	
-0.38501	
-0.384399	
-0.384583	
-0.384399	
-0.384888	
-0.385254	
-0.386536	
-0.387573	
-0.386353	
-0.386108	
-0.385742	
-0.386719	
-0.387939	
-0.387329	
-0.387451	
-0.387329	
-0.387634	
-0.388672	
-0.38855	
-0.390198	
-0.388245	
-0.388306	
-0.388062	
-0.389709	
-0.390015	
-0.389954	
-0.391541	
-0.391357	
-0.391174	
-0.391846	
-0.392273	
-0.391663	
-0.390503	
-0.390198	
-0.389832	
-0.39093	
-0.390076	
-0.390625	
-0.390015	
-0.390076	
-0.390381	
-0.390076	
-0.390747	
-0.390381	
-0.389465	
-0.388733	
-0.387329	
-0.389404	
-0.388916	
-0.388916	
-0.388855	
-0.387939	
-0.389465	
-0.389587	
-0.390137	
-0.390198	
-0.390625	
-0.38916	
-0.388367	
-0.391541	
-0.391602	
-0.391113	
-0.391418	
-0.391663	
-0.392212	
-0.393005	
-0.394287	
-0.392822	
-0.392761	
-0.392029	
-0.391968	
-0.393799	
-0.393372	
-0.393555	
-0.392761	
-0.392578	
-0.392944	
-0.393311	
-0.394531	
-0.392639	
-0.391968	
-0.390198	
-0.390747	
-0.392212	
-0.389771	
-0.389648	
-0.389282	
-0.390137	
-0.389954	
-0.389771	
-0.392395	
-0.389954	
-0.389526	
-0.388672	
-0.388672	
-0.390808	
-0.389526	
-0.389465	
-0.389587	
-0.389709	
-0.389893	
-0.390747	
-0.392334	
-0.389954	
-0.389221	
-0.388855	
-0.388611	
-0.39032	
-0.389832	
-0.389221	
-0.38855	
-0.38855	
-0.388611	
-0.388916	
-0.389709	
-0.387939	
-0.387085	
-0.385925	
-0.386536	
-0.387512	
-0.386597	
-0.386108	
-0.386047	
-0.385315	
-0.385376	
-0.386597	
-0.387329	
-0.385071	
-0.38501	
-0.384827	
-0.385315	
-0.386658	
-0.384827	
-0.385498	
-0.386169	
-0.386108	
-0.385803	
-0.386902	
-0.388672	
-0.386108	
-0.386169	
-0.386108	
-0.386475	
-0.388062	
-0.387878	
-0.387939	
-0.387939	
-0.38855	
-0.388306	
-0.389526	
-0.389954	
-0.388489	
-0.387939	
-0.387451	
-0.388916	
-0.39032	
-0.389282	
-0.389893	
-0.389771	
-0.390198	
-0.390381	
-0.391296	
-0.39209	
-0.392517	
-0.391663	
-0.391479	
-0.392761	
-0.393738	
-0.392578	
-0.392944	
-0.392822	
-0.394165	
-0.394531	
-0.395508	
-0.395691	
-0.394104	
-0.394104	
-0.393494	
-0.394226	
-0.395081	
-0.394653	
-0.395142	
-0.394714	
-0.394714	
-0.394836	
-0.395264	
-0.39563	
-0.394836	
-0.394104	
-0.39325	
-0.393616	
-0.39447	
-0.393616	
-0.39325	
-0.393372	
-0.393494	
-0.394653	
-0.394165	
-0.394104	
-0.39325	
-0.392517	
-0.391785	
-0.392639	
-0.393616	
-0.392639	
-0.392456	
-0.392456	
-0.392639	
-0.393494	
-0.393433	
-0.393188	
-0.391541	
-0.391724	
-0.390747	
-0.391907	
-0.391724	
-0.391296	
-0.390686	
-0.39032	
-0.390747	
-0.391541	
-0.391541	
-0.38916	
-0.387817	
-0.388245	
-0.387024	
-0.388855	
-0.389526	
-0.389404	
-0.388916	
-0.389587	
-0.390015	
-0.39032	
-0.390625	
-0.390808	
-0.389648	
-0.389648	
-0.389099	
-0.390747	
-0.390808	
-0.390259	
-0.389954	
-0.391052	
-0.391174	
-0.391907	
-0.392761	
-0.39209	
-0.390137	
-0.390076	
-0.388855	
-0.390564	
-0.390564	
-0.389465	
-0.389282	
-0.389038	
-0.389771	
-0.389038	
-0.389832	
-0.388916	
-0.387878	
-0.387756	
-0.386047	
-0.387207	
-0.38739	
-0.386902	
-0.386597	
-0.386353	
-0.387146	
-0.387512	
-0.388367	
-0.38739	
-0.386414	
-0.386658	
-0.386841	
-0.387451	
-0.387207	
-0.387268	
-0.388245	
-0.387268	
-0.388367	
-0.388672	
-0.390076	
-0.389099	
-0.387817	
-0.388367	
-0.388733	
-0.389954	
-0.390076	
-0.389404	
-0.390137	
-0.38855	
-0.390259	
-0.390442	
-0.391296	
-0.390869	
-0.389526	
-0.389526	
-0.390137	
-0.391113	
-0.391296	
-0.391174	
-0.391357	
-0.390259	
-0.393555	
-0.393616	
-0.394287	
-0.393433	
-0.392517	
-0.392395	
-0.392517	
-0.394775	
-0.394714	
-0.394409	
-0.394836	
-0.394165	
-0.395447	
-0.396118	
-0.396118	
-0.394836	
-0.394958	
-0.395508	
-0.39386	
-0.396301	
-0.395752	
-0.39563	
-0.395203	
-0.394775	
-0.396545	
-0.396301	
-0.395813	
-0.394653	
-0.39447	
-0.393921	
-0.392517	
-0.394531	
-0.393616	
-0.39325	
-0.392761	
-0.393188	
-0.393982	
-0.393311	
-0.393066	
-0.391541	
-0.391235	
-0.390625	
-0.39032	
-0.391296	
-0.390259	
-0.390381	
-0.389893	
-0.390686	
-0.390869	
-0.391052	
-0.391235	
-0.389526	
-0.389099	
-0.388855	
-0.387085	
-0.388	
-0.386902	
-0.387329	
-0.386902	
-0.386536	
-0.387146	
-0.388672	
-0.388672	
-0.387207	
-0.387573	
-0.38739	
-0.387024	
-0.38916	
-0.388428	
-0.388855	
-0.388489	
-0.388123	
-0.389465	
-0.389648	
-0.389099	
-0.388977	
-0.388794	
-0.389404	
-0.388672	
-0.390564	
-0.389771	
-0.390015	
-0.389709	
-0.389526	
-0.390015	
-0.389954	
-0.389709	
-0.388306	
-0.388	
-0.38739	
-0.386658	
-0.388184	
-0.387207	
-0.387024	
-0.386292	
-0.386658	
-0.386719	
-0.38623	
-0.385925	
-0.384888	
-0.384644	
-0.385071	
-0.383728	
-0.386047	
-0.38562	
-0.385254	
-0.38562	
-0.385437	
-0.385986	
-0.385742	
-0.386353	
-0.385803	
-0.385803	
-0.386047	
-0.386292	
-0.388306	
-0.388794	
-0.389465	
-0.389465	
-0.389282	
-0.389465	
-0.388611	
-0.38916	
-0.38739	
-0.388306	
-0.388	
-0.388	
-0.389099	
-0.388672	
-0.388489	
-0.38855	
-0.389099	
-0.389221	
-0.38855	
-0.389954	
-0.387634	
-0.388916	
-0.388062	
-0.389526	
-0.389404	
-0.389343	
-0.389343	
-0.389709	
-0.391418	
-0.392029	
-0.391724	
-0.392883	
-0.391602	
-0.392395	
-0.391174	
-0.392883	
-0.392944	
-0.393005	
-0.393188	
-0.392883	
-0.394287	
-0.394348	
-0.394104	
-0.39447	
-0.393311	
-0.393311	
-0.391968	
-0.393005	
-0.393311	
-0.392578	
-0.392334	
-0.392517	
-0.393555	
-0.392944	
-0.392761	
-0.392517	
-0.390747	
-0.391479	
-0.390625	
-0.390991	
-0.391724	
-0.391052	
-0.390198	
-0.390442	
-0.391174	
-0.389954	
-0.39032	
-0.390442	
-0.38855	
-0.389832	
-0.388733	
-0.389832	
-0.389099	
-0.388794	
-0.389038	
-0.388245	
-0.389771	
-0.387756	
-0.386353	
-0.385925	
-0.384705	
-0.385986	
-0.385559	
-0.386536	
-0.386292	
-0.386169	
-0.386108	
-0.385071	
-0.386536	
-0.385437	
-0.385071	
-0.384644	
-0.384399	
-0.38501	
-0.383362	
-0.385193	
-0.384827	
-0.384094	
-0.384216	
-0.38385	
-0.386597	
-0.384338	
-0.384949	
-0.383789	
-0.38446	
-0.384216	
-0.383484	
-0.384888	
-0.385437	
-0.385376	
-0.385498	
-0.384644	
-0.386841	
-0.385803	
-0.385681	
-0.384949	
-0.385559	
-0.386108	
-0.38501	
-0.386292	
-0.386169	
-0.386475	
-0.386902	
-0.385132	
-0.388	
-0.386841	
-0.387207	
-0.386536	
-0.38739	
-0.38678	
-0.385254	
-0.387878	
-0.388184	
-0.388245	
-0.388489	
-0.388062	
-0.390137	
-0.389465	
-0.390381	
-0.390076	
-0.391174	
-0.390808	
-0.388977	
-0.391174	
-0.389832	
-0.390137	
-0.389832	
-0.389221	
-0.390991	
-0.390076	
-0.390503	
-0.388855	
-0.388794	
-0.389038	
-0.387451	
-0.390198	
-0.389038	
-0.389343	
-0.388489	
-0.388367	
-0.389343	
-0.388733	
-0.388794	
-0.388489	
-0.388794	
-0.389099	
-0.38739	
-0.390564	
-0.389709	
-0.39032	
-0.389832	
-0.390625	
-0.392029	
-0.391235	
-0.391846	
-0.391418	
-0.391296	
-0.391785	
-0.390198	
-0.393433	
-0.392578	
-0.392883	
-0.392395	
-0.3927	
-0.392822	
-0.3927	
-0.392334	
-0.391479	
-0.391846	
-0.391785	
-0.390259	
-0.39325	
-0.391785	
-0.391418	
-0.391052	
-0.391663	
-0.391663	
-0.390869	
-0.390808	
-0.389282	
-0.390625	
-0.390076	
-0.388672	
-0.390991	
-0.389893	
-0.389526	
-0.389282	
-0.389954	
-0.389832	
-0.389465	
-0.389893	
-0.388	
-0.388428	
-0.388245	
-0.388428	
-0.389404	
-0.388123	
-0.38739	
-0.385864	
-0.386841	
-0.387268	
-0.386841	
-0.387817	
-0.385254	
-0.386047	
-0.385803	
-0.385437	
-0.386719	
-0.385193	
-0.385132	
-0.385254	
-0.384583	
-0.385437	
-0.38501	
-0.38562	
-0.383362	
-0.384521	
-0.383728	
-0.38324	
-0.383789	
-0.383972	
-0.384521	
-0.384277	
-0.384583	
-0.385437	
-0.384705	
-0.386414	
-0.383301	
-0.384888	
-0.385193	
-0.384766	
-0.385925	
-0.386353	
-0.386353	
-0.385925	
-0.38678	
-0.388123	
-0.387695	
-0.389343	
-0.38562	
-0.387756	
-0.388367	
-0.387939	
-0.388672	
-0.389404	
-0.389465	
-0.387939	
-0.389832	
-0.39093	
-0.389465	
-0.391235	
-0.388855	
-0.390503	
-0.390381	
-0.39093	
-0.392578	
-0.393005	
-0.392395	
-0.391785	
-0.393127	
-0.393555	
-0.39209	
-0.393738	
-0.390869	
-0.391846	
-0.391724	
-0.391541	
-0.391235	
-0.391663	
-0.391235	
-0.390381	
-0.391968	
-0.391724	
	
