C:\DOCUMENTS AND SETTINGS\JASON\DESKTOP\UFRJ\UFRJ EPHYS\RSCI-BM 12 WK SERIES\070803-RSCI-BM-11\RSCI-BM-11-LEMG\070803-RSCI-BM-11-LEMG-0004.ACQ
0.025000 msec/sample
1 channel
Analog input
Volts
CH1	
2000	
-0.386108	
-0.385437	
-0.385864	
-0.386047	
-0.385986	
-0.388184	
-0.387756	
-0.387268	
-0.387085	
-0.387207	
-0.38739	
-0.388123	
-0.389221	
-0.388611	
-0.387512	
-0.388672	
-0.389709	
-0.39093	
-0.390869	
-0.392517	
-0.392578	
-0.392883	
-0.393799	
-0.393433	
-0.393677	
-0.39386	
-0.393555	
-0.393677	
-0.392517	
-0.393372	
-0.395691	
-0.395752	
-0.394775	
-0.39502	
-0.39502	
-0.395081	
-0.395447	
-0.395996	
-0.395203	
-0.395203	
-0.394653	
-0.394836	
-0.395142	
-0.395142	
-0.394836	
-0.394653	
-0.393799	
-0.394165	
-0.393677	
-0.392578	
-0.392212	
-0.390259	
-0.390503	
-0.389893	
-0.390808	
-0.391418	
-0.390564	
-0.389526	
-0.390076	
-0.388855	
-0.389526	
-0.389832	
-0.390076	
-0.388855	
-0.388916	
-0.389038	
-0.388855	
-0.38916	
-0.389343	
-0.389526	
-0.389648	
-0.388611	
-0.38916	
-0.389709	
-0.389038	
-0.389648	
-0.388245	
-0.388794	
-0.389343	
-0.389282	
-0.390259	
-0.390381	
-0.389893	
-0.389648	
-0.389587	
-0.390564	
-0.390625	
-0.391724	
-0.390076	
-0.390015	
-0.39032	
-0.389526	
-0.390381	
-0.389709	
-0.389465	
-0.390381	
-0.390015	
-0.389832	
-0.390198	
-0.39032	
-0.391724	
-0.390198	
-0.390625	
-0.388794	
-0.389587	
-0.389771	
-0.389587	
-0.38855	
-0.388367	
-0.388367	
-0.388611	
-0.388184	
-0.388428	
-0.387024	
-0.386292	
-0.385925	
-0.38501	
-0.386292	
-0.385681	
-0.385254	
-0.385132	
-0.383667	
-0.383972	
-0.38385	
-0.384766	
-0.385437	
-0.383789	
-0.385071	
-0.38446	
-0.384644	
-0.385864	
-0.385315	
-0.385193	
-0.385498	
-0.386292	
-0.387146	
-0.387085	
-0.388733	
-0.387695	
-0.38855	
-0.388733	
-0.387756	
-0.390381	
-0.392639	
-0.392273	
-0.391296	
-0.390808	
-0.391846	
-0.392395	
-0.393127	
-0.393921	
-0.392395	
-0.393433	
-0.392822	
-0.392578	
-0.394653	
-0.393127	
-0.39325	
-0.392944	
-0.393433	
-0.394348	
-0.39447	
-0.394531	
-0.39386	
-0.393433	
-0.393494	
-0.392578	
-0.394714	
-0.394653	
-0.393616	
-0.392944	
-0.391541	
-0.392639	
-0.392944	
-0.392334	
-0.393005	
-0.390564	
-0.390991	
-0.390747	
-0.390381	
-0.391785	
-0.390564	
-0.390503	
-0.389343	
-0.388855	
-0.390564	
-0.389099	
-0.390015	
-0.38916	
-0.389038	
-0.38855	
-0.388489	
-0.389526	
-0.390198	
-0.389099	
-0.389038	
-0.388184	
-0.363525	
-0.362427	
-0.366821	
-0.369141	
-0.367188	
-0.367859	
-0.399048	
-0.395447	
-0.394043	
-0.391052	
-0.390991	
-0.390442	
-0.360291	
-0.363708	
-0.367371	
-0.370117	
-0.367981	
-0.369385	
-0.393311	
-0.395935	
-0.391907	
-0.391785	
-0.390808	
-0.390564	
-0.39093	
-0.390747	
-0.390442	
-0.391541	
-0.390198	
-0.390869	
-0.390381	
-0.388855	
-0.387634	
-0.389404	
-0.388916	
-0.388916	
-0.388306	
-0.387512	
-0.388611	
-0.388733	
-0.388855	
-0.388733	
-0.387695	
-0.387329	
-0.386414	
-0.386169	
-0.385864	
-0.384827	
-0.384338	
-0.385071	
-0.386292	
-0.387329	
-0.389771	
-0.390015	
-0.392944	
-0.395386	
-0.397156	
-0.399841	
-0.405334	
-0.407959	
-0.411194	
-0.414917	
-0.418457	
-0.424072	
-0.429993	
-0.434814	
-0.439575	
-0.445068	
-0.450989	
-0.457764	
-0.463867	
-0.467712	
-0.472229	
-0.475952	
-0.479492	
-0.482788	
-0.485962	
-0.487427	
-0.48822	
-0.488464	
-0.488403	
-0.489624	
-0.49176	
-0.490906	
-0.491211	
-0.492798	
-0.493896	
-0.494812	
-0.496399	
-0.496704	
-0.498291	
-0.499878	
-0.502136	
-0.504211	
-0.50769	
-0.508423	
-0.509827	
-0.510742	
-0.512756	
-0.514282	
-0.515503	
-0.514832	
-0.516785	
-0.515686	
-0.515747	
-0.516174	
-0.517395	
-0.516785	
-0.516113	
-0.515564	
-0.51532	
-0.515747	
-0.515808	
-0.516663	
-0.516541	
-0.516174	
-0.516663	
-0.516907	
-0.516968	
-0.517029	
-0.515442	
-0.513794	
-0.511841	
-0.510742	
-0.509094	
-0.508301	
-0.505615	
-0.502808	
-0.499939	
-0.494934	
-0.492126	
-0.488647	
-0.483948	
-0.479553	
-0.475037	
-0.470093	
-0.467224	
-0.462891	
-0.456482	
-0.452881	
-0.447937	
-0.442383	
-0.437927	
-0.432556	
-0.426758	
-0.42041	
-0.414063	
-0.407349	
-0.399231	
-0.391357	
-0.383301	
-0.374695	
-0.365173	
-0.355713	
-0.344788	
-0.335815	
-0.327087	
-0.317627	
-0.309082	
-0.299805	
-0.291504	
-0.284729	
-0.278259	
-0.2724	
-0.268066	
-0.264221	
-0.261108	
-0.258362	
-0.256592	
-0.255737	
-0.254028	
-0.253479	
-0.25238	
-0.253235	
-0.254944	
-0.25531	
-0.256958	
-0.25946	
-0.262268	
-0.264771	
-0.269104	
-0.273193	
-0.277222	
-0.282227	
-0.285828	
-0.290588	
-0.29657	
-0.302124	
-0.307312	
-0.311462	
-0.316345	
-0.321655	
-0.326416	
-0.330078	
-0.333862	
-0.338013	
-0.342102	
-0.345642	
-0.350037	
-0.35321	
-0.356262	
-0.358337	
-0.361694	
-0.365417	
-0.366821	
-0.369019	
-0.371948	
-0.373413	
-0.376526	
-0.377625	
-0.380249	
-0.38092	
-0.382446	
-0.383301	
-0.384094	
-0.385925	
-0.385681	
-0.386169	
-0.387085	
-0.385803	
-0.387207	
-0.387085	
-0.387695	
-0.386902	
-0.38739	
-0.38623	
-0.387817	
-0.388123	
-0.387024	
-0.387573	
-0.387634	
-0.386414	
-0.387512	
-0.387512	
-0.388367	
-0.388062	
-0.387817	
-0.386536	
-0.387756	
-0.389038	
-0.388123	
-0.388306	
-0.38739	
-0.387268	
-0.387939	
-0.387268	
-0.387817	
-0.387268	
-0.38562	
-0.384766	
-0.383972	
-0.383606	
-0.382507	
-0.381836	
-0.380066	
-0.378418	
-0.378967	
-0.377197	
-0.376465	
-0.375671	
-0.373779	
-0.372192	
-0.369873	
-0.369263	
-0.367554	
-0.366638	
-0.363708	
-0.361694	
-0.360474	
-0.359009	
-0.358154	
-0.355896	
-0.353821	
-0.352173	
-0.350647	
-0.349854	
-0.348083	
-0.346741	
-0.345032	
-0.343506	
-0.343933	
-0.344238	
-0.345825	
-0.34613	
-0.345337	
-0.345886	
-0.346558	
-0.347961	
-0.347839	
-0.348755	
-0.350281	
-0.350037	
-0.351257	
-0.352539	
-0.354858	
-0.356079	
-0.356262	
-0.356445	
-0.356995	
-0.358948	
-0.359619	
-0.360107	
-0.360962	
-0.360596	
-0.362183	
-0.362854	
-0.363953	
-0.365112	
-0.365295	
-0.365845	
-0.365601	
-0.368042	
-0.368835	
-0.369385	
-0.369873	
-0.369812	
-0.370544	
-0.371094	
-0.373108	
-0.373108	
-0.373901	
-0.375183	
-0.375732	
-0.375977	
-0.37616	
-0.376648	
-0.376892	
-0.376282	
-0.376892	
-0.376892	
-0.377991	
-0.377441	
-0.378723	
-0.378418	
-0.377441	
-0.378906	
-0.379578	
-0.378906	
-0.378662	
-0.378296	
-0.378784	
-0.379028	
-0.379028	
-0.379456	
-0.379944	
-0.377869	
-0.37854	
-0.379517	
-0.380127	
-0.379333	
-0.378601	
-0.379333	
-0.379272	
-0.380005	
-0.380188	
-0.38092	
-0.381042	
-0.38092	
-0.38031	
-0.380676	
-0.380554	
-0.380554	
-0.381104	
-0.38031	
-0.380249	
-0.38269	
-0.38385	
-0.383423	
-0.38446	
-0.38562	
-0.383728	
-0.384033	
-0.384338	
-0.384521	
-0.384583	
-0.384583	
-0.385254	
-0.38562	
-0.385925	
-0.386108	
-0.386536	
-0.386902	
-0.385986	
-0.386169	
-0.385986	
-0.385498	
-0.385803	
-0.385742	
-0.38623	
-0.385315	
-0.385071	
-0.385315	
-0.385864	
-0.385193	
-0.384827	
-0.384766	
-0.385254	
-0.384644	
-0.38385	
-0.383911	
-0.383789	
-0.381958	
-0.381104	
-0.382324	
-0.382019	
-0.382629	
-0.382446	
-0.382324	
-0.383362	
-0.382324	
-0.382751	
-0.382629	
-0.38324	
-0.382935	
-0.382874	
-0.382935	
-0.381836	
-0.383423	
-0.383301	
-0.38147	
-0.382629	
-0.382019	
-0.382446	
-0.381653	
-0.382751	
-0.382385	
-0.382568	
-0.383179	
-0.381775	
-0.383484	
-0.38385	
-0.382996	
-0.383911	
-0.383484	
-0.384155	
-0.384094	
-0.384277	
-0.384216	
-0.384766	
-0.384644	
-0.384155	
-0.385864	
-0.385254	
-0.38562	
-0.385864	
-0.385681	
-0.385803	
-0.385376	
-0.384949	
-0.385132	
-0.384888	
-0.385193	
-0.383301	
-0.384399	
-0.383423	
-0.38324	
-0.383545	
-0.383423	
-0.382874	
-0.381775	
-0.381592	
-0.382935	
-0.383301	
-0.382446	
-0.381226	
-0.382568	
-0.381531	
-0.381165	
-0.381897	
-0.380798	
-0.38092	
-0.381104	
-0.381409	
-0.383057	
-0.382629	
-0.38324	
-0.382751	
-0.383972	
-0.383057	
-0.382874	
-0.384827	
-0.38385	
-0.384521	
-0.384094	
-0.383606	
-0.385559	
-0.385986	
-0.385986	
-0.387024	
-0.388611	
-0.388428	
-0.389038	
-0.389465	
-0.387695	
-0.388428	
-0.389404	
-0.389771	
-0.390625	
-0.389771	
-0.390137	
-0.391541	
-0.390808	
-0.39093	
-0.391235	
-0.391785	
-0.392273	
-0.391357	
-0.391052	
-0.390076	
-0.391357	
-0.391113	
-0.390625	
-0.39093	
-0.39093	
-0.391541	
-0.391296	
-0.38916	
-0.390564	
-0.389771	
-0.388428	
-0.386902	
-0.386719	
-0.38739	
-0.386658	
-0.386719	
-0.387329	
-0.387573	
-0.386719	
-0.385864	
-0.386902	
-0.386475	
-0.386719	
-0.385986	
-0.38446	
-0.385986	
-0.386047	
-0.386108	
-0.386963	
-0.387024	
-0.386658	
-0.386902	
-0.387207	
-0.386047	
-0.386292	
-0.386047	
-0.385193	
-0.387024	
-0.387146	
-0.386902	
-0.386963	
-0.387817	
-0.38739	
-0.38739	
-0.387634	
-0.387329	
-0.387024	
-0.387268	
-0.386475	
-0.388184	
-0.387939	
-0.388245	
-0.388428	
-0.388855	
-0.387512	
-0.387817	
-0.388672	
-0.387085	
-0.388062	
-0.387451	
-0.387024	
-0.389038	
-0.388306	
-0.388123	
-0.387878	
-0.388123	
-0.386841	
-0.387268	
-0.386475	
-0.385559	
-0.385742	
-0.385742	
-0.384766	
-0.38623	
-0.385254	
-0.384521	
-0.384033	
-0.384583	
-0.383728	
-0.382935	
-0.382446	
-0.381653	
-0.38269	
-0.38324	
-0.381287	
-0.382751	
-0.382935	
-0.382874	
-0.38269	
-0.382324	
-0.383057	
-0.382935	
-0.383423	
-0.383667	
-0.383789	
-0.384399	
-0.384521	
-0.385254	
-0.385925	
-0.386902	
-0.387329	
-0.387329	
-0.388489	
-0.388977	
-0.390686	
-0.392029	
-0.390503	
-0.390259	
-0.390381	
-0.390625	
-0.391907	
-0.391296	
-0.391785	
-0.392395	
-0.3927	
-0.392029	
-0.392456	
-0.392639	
-0.390869	
-0.391724	
-0.392212	
-0.390381	
-0.393005	
-0.392273	
-0.392334	
-0.392822	
-0.392151	
-0.3927	
-0.392456	
-0.391602	
-0.392212	
-0.391907	
-0.391846	
-0.39032	
-0.391479	
-0.390564	
-0.390869	
-0.390015	
-0.389404	
-0.39093	
-0.390686	
-0.389343	
-0.389526	
-0.389099	
-0.388794	
-0.388062	
-0.388245	
-0.38855	
-0.388245	
-0.388184	
-0.388428	
-0.388916	
-0.388306	
-0.388367	
-0.389526	
-0.386963	
-0.387878	
-0.388062	
-0.388489	
-0.388489	
-0.388489	
-0.38855	
-0.388794	
-0.388733	
-0.389282	
-0.389526	
-0.390503	
-0.388245	
-0.388977	
-0.389648	
-0.390625	
-0.391052	
-0.390259	
-0.390015	
-0.390442	
-0.390076	
-0.390015	
-0.389709	
-0.39032	
-0.389893	
-0.389893	
-0.389404	
-0.388367	
-0.390137	
-0.389587	
-0.389587	
-0.389893	
-0.389832	
-0.389343	
-0.388123	
-0.386658	
-0.387512	
-0.387024	
-0.387329	
-0.385315	
-0.387695	
-0.387268	
-0.386841	
-0.387207	
-0.386108	
-0.387146	
-0.386353	
-0.386169	
-0.386475	
-0.38501	
-0.386169	
-0.384888	
-0.385986	
-0.385803	
-0.386292	
-0.385925	
-0.386169	
-0.386963	
-0.386353	
-0.387146	
-0.387512	
-0.386536	
-0.387146	
-0.387207	
-0.387512	
-0.388367	
-0.388428	
-0.388672	
-0.389221	
-0.388794	
-0.389648	
-0.390869	
-0.391907	
-0.391296	
-0.390808	
-0.391113	
-0.390076	
-0.391602	
-0.39093	
-0.390442	
-0.391052	
-0.391479	
-0.391968	
-0.391113	
-0.391296	
-0.391846	
-0.390869	
-0.391418	
-0.390991	
-0.392578	
-0.392212	
-0.391968	
-0.393066	
-0.391846	
-0.392761	
-0.3927	
-0.391907	
-0.393127	
-0.392639	
-0.392151	
-0.390869	
-0.391174	
-0.392334	
-0.391418	
-0.391724	
-0.392517	
-0.391296	
-0.391907	
-0.390259	
-0.391479	
-0.391235	
-0.390686	
-0.390015	
-0.390564	
-0.391907	
-0.390686	
-0.39093	
-0.391113	
-0.391235	
-0.392273	
-0.39209	
-0.392944	
-0.393005	
-0.39209	
-0.393188	
-0.392883	
-0.394104	
-0.393738	
-0.394287	
-0.39502	
-0.393921	
-0.394592	
-0.395752	
-0.396118	
-0.396118	
-0.395691	
-0.396118	
-0.395813	
-0.395142	
-0.396118	
-0.396179	
-0.395386	
-0.394775	
-0.395447	
-0.39624	
-0.393921	
-0.394592	
-0.393921	
-0.39386	
-0.393188	
-0.392944	
-0.393494	
-0.392883	
-0.393066	
-0.392639	
-0.392395	
-0.392639	
-0.390015	
-0.389771	
-0.390015	
-0.388062	
-0.388123	
-0.388306	
-0.389221	
-0.38855	
-0.388367	
-0.388794	
-0.386963	
-0.387817	
-0.386963	
-0.38678	
-0.38678	
-0.385803	
-0.385986	
-0.385925	
-0.385315	
-0.385864	
-0.385864	
-0.386658	
-0.385376	
-0.386353	
-0.387329	
-0.387085	
-0.386963	
-0.386963	
-0.38678	
-0.387573	
-0.387573	
-0.388306	
-0.388184	
-0.390564	
-0.39032	
-0.391296	
-0.392334	
-0.390137	
-0.391174	
-0.391724	
-0.390259	
-0.390442	
-0.391907	
-0.391907	
-0.392395	
-0.392151	
-0.392151	
-0.391296	
-0.392822	
-0.391602	
-0.392639	
-0.391724	
-0.391418	
-0.391602	
-0.391968	
-0.391724	
-0.391907	
-0.392212	
-0.393616	
-0.391602	
-0.393005	
-0.393066	
-0.393066	
-0.392334	
-0.392456	
-0.391846	
-0.390869	
-0.391418	
-0.391846	
-0.391357	
-0.392212	
-0.390991	
-0.391296	
-0.391418	
-0.391357	
-0.391113	
-0.391785	
-0.390808	
-0.389771	
-0.390564	
-0.390198	
-0.390869	
-0.39093	
-0.39032	
-0.390808	
-0.392212	
-0.391052	
-0.392883	
-0.392639	
-0.392761	
-0.393127	
-0.393616	
-0.394104	
-0.394226	
-0.394653	
-0.394653	
-0.393066	
-0.396179	
-0.395996	
-0.395874	
-0.395996	
-0.396973	
-0.396301	
-0.395569	
-0.396484	
-0.397034	
-0.396729	
-0.397949	
-0.396423	
-0.397034	
-0.397095	
-0.395996	
-0.395508	
-0.396057	
-0.394836	
-0.394775	
-0.395203	
-0.395081	
-0.394897	
-0.394592	
-0.393311	
-0.392151	
-0.392334	
-0.391785	
-0.391174	
-0.389832	
-0.389282	
-0.389282	
-0.389587	
-0.38916	
-0.388855	
-0.38916	
-0.389038	
-0.387573	
-0.388	
-0.38855	
-0.388489	
-0.387512	
-0.388428	
-0.387146	
-0.386292	
-0.387512	
-0.388062	
-0.387573	
-0.387939	
-0.386719	
-0.387756	
-0.387634	
-0.38678	
-0.387329	
-0.388489	
-0.386597	
-0.38678	
-0.387878	
-0.387939	
-0.388916	
-0.388733	
-0.389587	
-0.389343	
-0.390137	
-0.389404	
-0.389404	
-0.390686	
-0.390259	
-0.390564	
-0.391052	
-0.391541	
-0.392151	
-0.392273	
-0.392761	
-0.391907	
-0.392151	
-0.392578	
-0.392822	
-0.392273	
-0.392761	
-0.392273	
-0.391479	
-0.392273	
-0.392456	
-0.393005	
-0.392578	
-0.392822	
-0.391235	
-0.393188	
-0.391846	
-0.391357	
-0.392273	
-0.391479	
-0.391724	
-0.391541	
-0.389587	
-0.390625	
-0.390564	
-0.39032	
-0.389404	
-0.391174	
-0.39032	
-0.392151	
-0.392212	
-0.389893	
-0.390564	
-0.390869	
-0.391174	
-0.391724	
-0.391174	
-0.391357	
-0.391235	
-0.391052	
-0.391785	
-0.392029	
-0.392883	
-0.394165	
-0.393616	
-0.393433	
-0.394104	
-0.393677	
-0.393982	
-0.394165	
-0.394775	
-0.39325	
-0.394897	
-0.39386	
-0.395142	
-0.395447	
-0.394348	
-0.394226	
-0.394592	
-0.393494	
-0.39563	
-0.394653	
-0.39502	
-0.394348	
-0.394592	
-0.394226	
-0.395081	
-0.394165	
-0.393433	
-0.393372	
-0.393311	
-0.393188	
-0.393799	
-0.393127	
-0.39325	
-0.391968	
-0.391296	
-0.391479	
-0.390442	
-0.390015	
-0.390503	
-0.389648	
-0.389465	
-0.389709	
-0.390259	
-0.390381	
-0.389954	
-0.389771	
-0.389465	
-0.390808	
-0.389648	
-0.390076	
-0.38916	
-0.387878	
-0.389465	
-0.389221	
-0.387817	
-0.389709	
-0.388855	
-0.389771	
-0.388184	
-0.388794	
-0.38916	
-0.389954	
-0.38855	
-0.388489	
-0.38855	
-0.388916	
-0.388916	
-0.389587	
-0.389465	
-0.390625	
-0.389404	
-0.389221	
-0.391052	
-0.390442	
-0.390442	
-0.39093	
-0.389893	
-0.389404	
-0.390259	
-0.39093	
-0.390808	
-0.391541	
-0.392029	
-0.390625	
-0.390442	
-0.389954	
-0.389954	
-0.389282	
-0.388123	
-0.388245	
-0.387939	
-0.387329	
-0.388184	
-0.387634	
-0.388123	
-0.38739	
-0.386108	
-0.387634	
-0.386047	
-0.385803	
-0.384888	
-0.384827	
-0.384949	
-0.385071	
-0.385376	
-0.386047	
-0.386292	
-0.386841	
-0.38623	
-0.387207	
-0.386658	
-0.38678	
-0.388428	
-0.385986	
-0.386536	
-0.387939	
-0.388611	
-0.389343	
-0.388977	
-0.389587	
-0.389587	
-0.389709	
-0.39032	
-0.391052	
-0.3927	
-0.3927	
-0.393005	
-0.392639	
-0.39209	
-0.393372	
-0.393799	
-0.394043	
-0.393738	
-0.392822	
-0.395386	
-0.39502	
-0.395508	
-0.395142	
-0.395081	
-0.394836	
-0.395264	
-0.395569	
-0.396301	
-0.395813	
-0.396118	
-0.394531	
-0.395996	
-0.39563	
-0.395813	
-0.395142	
-0.392883	
-0.393738	
-0.39447	
-0.393555	
-0.393677	
-0.391724	
-0.391479	
-0.390625	
-0.390564	
-0.390991	
-0.389526	
-0.390442	
-0.389404	
-0.389648	
-0.389954	
-0.388672	
-0.389587	
-0.389343	
-0.389465	
-0.389404	
-0.388855	
-0.390503	
-0.389587	
-0.389526	
-0.389893	
-0.389343	
-0.388855	
-0.389282	
-0.389587	
-0.390503	
-0.388977	
-0.389954	
-0.389221	
-0.390381	
-0.389893	
-0.389526	
-0.389954	
-0.389587	
-0.388794	
-0.389587	
-0.388733	
-0.391907	
-0.39032	
-0.390259	
-0.390137	
-0.389954	
-0.390564	
-0.390198	
-0.390503	
-0.389771	
-0.389648	
-0.390991	
-0.389893	
-0.390869	
-0.391296	
-0.390564	
-0.390991	
-0.390564	
-0.390869	
-0.390015	
-0.388977	
-0.389221	
-0.388062	
-0.388611	
-0.387634	
-0.388367	
-0.388794	
-0.387573	
-0.387634	
-0.386841	
-0.386169	
-0.38623	
-0.384888	
-0.385559	
-0.384399	
-0.384094	
-0.384705	
-0.383118	
-0.384399	
-0.384766	
-0.384705	
-0.38501	
-0.385254	
-0.385925	
-0.385559	
-0.385437	
-0.385437	
-0.385254	
-0.385742	
-0.385559	
-0.387085	
-0.388	
-0.387695	
-0.38855	
-0.388428	
-0.38916	
-0.390137	
-0.390503	
-0.392761	
-0.390869	
-0.391907	
-0.391785	
-0.392761	
-0.392395	
-0.393188	
-0.393127	
-0.393555	
-0.393066	
-0.394653	
-0.3927	
-0.39386	
-0.393005	
-0.392822	
-0.393738	
-0.392822	
-0.393921	
-0.395203	
-0.394104	
-0.39447	
-0.393677	
-0.394775	
-0.393738	
-0.394409	
-0.394104	
-0.392395	
-0.393616	
-0.393127	
-0.393066	
-0.392761	
-0.392151	
-0.393188	
-0.392334	
-0.391113	
-0.392883	
-0.391296	
-0.391724	
-0.390442	
-0.390015	
-0.389648	
-0.389771	
-0.389526	
-0.389771	
-0.389832	
-0.389404	
-0.388306	
-0.390137	
-0.38855	
-0.389587	
-0.389343	
-0.387573	
-0.389465	
-0.388794	
-0.389221	
-0.390625	
-0.389893	
-0.390137	
-0.389099	
-0.38916	
-0.39032	
-0.390076	
-0.390442	
-0.389832	
-0.390625	
-0.39093	
-0.390991	
-0.391174	
-0.391296	
-0.392212	
-0.39093	
-0.39093	
-0.392151	
-0.389099	
-0.390381	
-0.390686	
-0.389465	
-0.390442	
-0.389648	
-0.390869	
-0.392456	
-0.391602	
-0.391174	
-0.390442	
-0.390198	
-0.387634	
-0.387756	
-0.388611	
-0.386719	
-0.388306	
-0.387451	
-0.388672	
-0.388367	
-0.388184	
-0.388672	
-0.387085	
-0.387451	
-0.38855	
-0.387268	
-0.387878	
-0.386597	
-0.386719	
-0.386597	
-0.386353	
-0.386719	
-0.387512	
-0.388123	
-0.387146	
-0.38739	
-0.388611	
-0.38678	
-0.387634	
-0.387451	
-0.386536	
-0.388916	
-0.387024	
-0.388733	
-0.389648	
-0.389465	
-0.389526	
-0.389404	
-0.389038	
-0.391113	
-0.391968	
-0.3927	
-0.390808	
-0.391907	
-0.390808	
-0.392212	
-0.391907	
-0.392395	
-0.392822	
-0.392212	
-0.391724	
-0.393433	
-0.391846	
-0.392334	
-0.391541	
-0.392395	
-0.392517	
-0.391785	
-0.392883	
-0.393555	
-0.393494	
-0.393677	
-0.393005	
-0.394348	
-0.392761	
-0.393494	
-0.393982	
-0.391846	
-0.392578	
-0.392944	
-0.392578	
-0.392334	
-0.392883	
-0.392578	
-0.391724	
-0.391235	
-0.391724	
-0.391968	
-0.392578	
-0.39032	
-0.390808	
-0.390625	
-0.390259	
-0.39093	
-0.392273	
-0.392029	
-0.39209	
-0.391846	
-0.393311	
-0.392273	
-0.392822	
-0.39386	
-0.393738	
-0.393616	
-0.39386	
-0.394409	
-0.394958	
-0.394409	
-0.394714	
-0.394775	
-0.39624	
-0.396179	
-0.39624	
-0.396423	
-0.395325	
-0.39624	
-0.395752	
-0.394897	
-0.397034	
-0.39624	
-0.395874	
-0.395203	
-0.395142	
-0.394714	
-0.394226	
-0.39447	
-0.394592	
-0.393738	
-0.393677	
-0.392883	
-0.393005	
-0.39386	
-0.393127	
-0.392761	
-0.391663	
-0.390808	
-0.389954	
-0.389404	
-0.389954	
-0.388	
-0.389832	
-0.389282	
-0.38739	
-0.388794	
-0.388611	
-0.389099	
-0.387817	
-0.387939	
-0.388	
-0.386963	
-0.386658	
-0.38501	
-0.386841	
-0.38623	
-0.385681	
-0.386475	
-0.387512	
-0.387024	
-0.386719	
-0.386658	
-0.388123	
-0.386108	
-0.387207	
-0.388428	
-0.386963	
-0.388123	
-0.387817	
-0.388123	
-0.390442	
-0.391602	
-0.392578	
-0.391418	
-0.391357	
-0.391296	
-0.391541	
-0.392639	
-0.390808	
-0.391846	
-0.391724	
-0.391663	
-0.392578	
-0.393433	
-0.392822	
-0.391968	
-0.392334	
-0.39325	
-0.391296	
-0.3927	
-0.391785	
-0.392273	
-0.392334	
-0.392822	
-0.392517	
-0.392944	
-0.392334	
-0.392456	
-0.392395	
-0.393127	
-0.392273	
-0.392273	
-0.39209	
-0.390442	
-0.392029	
-0.391724	
-0.391296	
-0.39209	
-0.392151	
-0.392151	
-0.391174	
-0.391357	
-0.391357	
-0.391418	
-0.391235	
-0.390137	
-0.391357	
-0.390869	
-0.39093	
-0.391052	
-0.392517	
-0.391541	
-0.391846	
-0.392517	
-0.393188	
-0.391968	
-0.393433	
-0.393066	
-0.39325	
-0.393921	
-0.394531	
-0.3927	
-0.395081	
-0.395508	
-0.396301	
-0.395264	
-0.396606	
-0.396118	
-0.396973	
-0.39679	
-0.396118	
-0.39679	
-0.397034	
-0.396362	
-0.397156	
-0.397827	
-0.397339	
-0.396545	
-0.39679	
-0.397278	
-0.395203	
-0.395569	
-0.395996	
-0.395264	
-0.395142	
-0.394836	
-0.393738	
-0.394653	
-0.393738	
-0.392761	
-0.391846	
-0.390686	
-0.389954	
-0.389282	
-0.389526	
-0.387878	
-0.389282	
-0.389282	
-0.388489	
-0.388977	
-0.388245	
-0.388916	
-0.388245	
-0.387878	
-0.387695	
-0.386658	
-0.387268	
-0.386902	
-0.387329	
-0.387634	
-0.386902	
-0.387085	
-0.387573	
-0.387451	
-0.387329	
-0.387756	
-0.388794	
-0.387024	
-0.387268	
-0.387878	
-0.387939	
-0.388489	
-0.388428	
-0.388184	
-0.389832	
-0.389954	
-0.39032	
-0.389343	
-0.38916	
-0.39093	
-0.390747	
-0.390381	
-0.389221	
-0.392273	
-0.391663	
-0.391785	
-0.392334	
-0.392334	
-0.392334	
-0.392029	
-0.392334	
-0.393005	
-0.390991	
-0.391724	
-0.391968	
-0.392639	
-0.392517	
-0.392273	
-0.391296	
-0.393188	
-0.392029	
-0.392517	
-0.391479	
-0.3927	
-0.390869	
-0.391052	
-0.391235	
-0.389771	
-0.391052	
-0.390564	
-0.39032	
-0.390991	
-0.390747	
-0.391418	
-0.390381	
-0.390564	
-0.390869	
-0.390808	
-0.39093	
-0.390808	
-0.391296	
-0.39093	
-0.390503	
-0.390076	
-0.391785	
-0.391479	
-0.391418	
-0.391724	
-0.394775	
-0.392944	
-0.393372	
-0.39386	
-0.393799	
-0.393555	
-0.393433	
-0.392517	
-0.394104	
-0.393494	
-0.394409	
-0.39386	
-0.394531	
-0.39447	
-0.394775	
-0.394531	
-0.394165	
-0.394897	
-0.394287	
-0.393677	
-0.394287	
-0.395081	
-0.395203	
-0.393982	
-0.394226	
-0.393921	
-0.393433	
-0.393188	
-0.392883	
-0.392883	
-0.393127	
-0.392639	
-0.390625	
-0.392334	
-0.391968	
-0.390625	
-0.389893	
-0.390015	
-0.389282	
-0.389404	
-0.389893	
-0.389587	
-0.389404	
-0.389099	
-0.389343	
-0.390076	
-0.39032	
-0.390747	
-0.389587	
-0.389771	
-0.389404	
-0.389099	
-0.389038	
-0.389343	
-0.388611	
-0.388916	
-0.388611	
-0.387939	
-0.38855	
-0.388855	
-0.387695	
-0.388855	
-0.388794	
-0.387756	
-0.388245	
-0.388916	
-0.388733	
-0.389282	
-0.389282	
-0.388245	
-0.389404	
-0.390442	
-0.390503	
-0.390381	
-0.39032	
-0.389404	
-0.389648	
-0.390137	
-0.38855	
-0.390686	
-0.390259	
-0.389771	
-0.390869	
-0.390686	
-0.39032	
-0.389893	
-0.388916	
-0.387695	
-0.387146	
-0.387695	
-0.386902	
-0.386963	
-0.387024	
-0.386719	
-0.386292	
-0.387085	
-0.387329	
-0.386658	
-0.385681	
-0.386597	
-0.385071	
-0.384949	
-0.385193	
-0.383789	
	
