C:\DOCUMENTS AND SETTINGS\JASON\DESKTOP\UFRJ\UFRJ EPHYS\RSCI-BM 12 WK SERIES\070803-RSCI-BM-11\RSCI-BM-11-LEMG\070803-RSCI-BM-11-LEMG-0007.ACQ
0.025000 msec/sample
1 channel
Analog input
Volts
CH1	
2000	
-0.39502	
-0.393799	
-0.394775	
-0.394104	
-0.39325	
-0.394104	
-0.394165	
-0.393799	
-0.393921	
-0.394043	
-0.393311	
-0.394409	
-0.393921	
-0.393494	
-0.39386	
-0.39386	
-0.393372	
-0.393005	
-0.393311	
-0.392822	
-0.392639	
-0.392578	
-0.392517	
-0.392395	
-0.392029	
-0.392517	
-0.391907	
-0.39209	
-0.391724	
-0.391418	
-0.391724	
-0.391785	
-0.391052	
-0.391113	
-0.390625	
-0.391724	
-0.392334	
-0.393921	
-0.392761	
-0.393738	
-0.393738	
-0.393799	
-0.394775	
-0.395935	
-0.395081	
-0.395081	
-0.394287	
-0.395874	
-0.396545	
-0.396667	
-0.396179	
-0.396973	
-0.396973	
-0.39679	
-0.397583	
-0.396484	
-0.397217	
-0.396362	
-0.395996	
-0.395569	
-0.396057	
-0.396301	
-0.396545	
-0.395142	
-0.395691	
-0.394958	
-0.394836	
-0.395081	
-0.394897	
-0.394348	
-0.393799	
-0.392761	
-0.392029	
-0.391663	
-0.392151	
-0.39209	
-0.392578	
-0.39209	
-0.391418	
-0.392273	
-0.392944	
-0.391968	
-0.392334	
-0.391296	
-0.391846	
-0.390808	
-0.391052	
-0.389465	
-0.390076	
-0.389099	
-0.387878	
-0.388794	
-0.388916	
-0.388	
-0.388428	
-0.388123	
-0.386536	
-0.386963	
-0.386902	
-0.386169	
-0.386536	
-0.386108	
-0.385498	
-0.386475	
-0.387329	
-0.386108	
-0.386108	
-0.386658	
-0.386353	
-0.387451	
-0.387695	
-0.388123	
-0.387817	
-0.388855	
-0.388611	
-0.388855	
-0.389526	
-0.390503	
-0.389526	
-0.390076	
-0.389771	
-0.389709	
-0.389404	
-0.390991	
-0.389709	
-0.391418	
-0.390503	
-0.390625	
-0.391113	
-0.391968	
-0.392029	
-0.391357	
-0.391052	
-0.391174	
-0.391296	
-0.392151	
-0.392273	
-0.393799	
-0.393921	
-0.392334	
-0.392639	
-0.393188	
-0.393005	
-0.393066	
-0.393127	
-0.391724	
-0.392517	
-0.393799	
-0.39386	
-0.393433	
-0.393738	
-0.392212	
-0.393005	
-0.393799	
-0.392212	
-0.392822	
-0.392517	
-0.392029	
-0.3927	
-0.39325	
-0.392822	
-0.392822	
-0.393433	
-0.392456	
-0.392822	
-0.393982	
-0.393494	
-0.39325	
-0.393616	
-0.39386	
-0.393921	
-0.394226	
-0.394958	
-0.393494	
-0.394531	
-0.39502	
-0.394836	
-0.394836	
-0.39563	
-0.394836	
-0.394531	
-0.394836	
-0.393921	
-0.394714	
-0.395325	
-0.394592	
-0.395264	
-0.395447	
-0.393372	
-0.394592	
-0.39502	
-0.393738	
-0.39447	
-0.39386	
-0.392456	
-0.392883	
-0.392639	
-0.368713	
-0.364258	
-0.367737	
-0.367493	
-0.368225	
-0.368835	
-0.40094	
-0.397644	
-0.393799	
-0.393616	
-0.390991	
-0.392334	
-0.391602	
-0.391479	
-0.391602	
-0.390625	
-0.390808	
-0.391113	
-0.390869	
-0.391907	
-0.390869	
-0.390991	
-0.388916	
-0.390808	
-0.391113	
-0.389343	
-0.39032	
-0.389648	
-0.389465	
-0.389404	
-0.388916	
-0.389404	
-0.362427	
-0.360962	
-0.363342	
-0.364685	
-0.365723	
-0.364624	
-0.3974	
-0.394226	
-0.389587	
-0.388794	
-0.388672	
-0.38678	
-0.387024	
-0.387329	
-0.385742	
-0.384216	
-0.386414	
-0.385437	
-0.387146	
-0.388672	
-0.389404	
-0.390869	
-0.392944	
-0.395569	
-0.39801	
-0.400696	
-0.402832	
-0.406677	
-0.411133	
-0.413025	
-0.417908	
-0.421387	
-0.426086	
-0.431213	
-0.436707	
-0.44165	
-0.44751	
-0.453308	
-0.45697	
-0.462097	
-0.468933	
-0.473206	
-0.477783	
-0.482239	
-0.485107	
-0.487366	
-0.490906	
-0.491943	
-0.49353	
-0.494995	
-0.494019	
-0.495483	
-0.49823	
-0.499817	
-0.501343	
-0.503845	
-0.505493	
-0.50708	
-0.508606	
-0.508972	
-0.511353	
-0.513794	
-0.514282	
-0.51593	
-0.518799	
-0.52002	
-0.52124	
-0.523254	
-0.523621	
-0.524536	
-0.524719	
-0.52478	
-0.523926	
-0.524231	
-0.521973	
-0.521484	
-0.521545	
-0.520813	
-0.520935	
-0.521057	
-0.520752	
-0.519775	
-0.519836	
-0.518982	
-0.51886	
-0.519409	
-0.517456	
-0.5177	
-0.517395	
-0.515503	
-0.514221	
-0.513062	
-0.511292	
-0.509216	
-0.506592	
-0.503662	
-0.502319	
-0.49939	
-0.494812	
-0.492004	
-0.488647	
-0.484985	
-0.479858	
-0.474854	
-0.471863	
-0.46875	
-0.465393	
-0.46106	
-0.458435	
-0.454041	
-0.448792	
-0.443726	
-0.438293	
-0.432861	
-0.426697	
-0.419861	
-0.413818	
-0.406311	
-0.398132	
-0.391602	
-0.383484	
-0.374023	
-0.365906	
-0.356628	
-0.348999	
-0.340515	
-0.332458	
-0.324524	
-0.317383	
-0.310181	
-0.303772	
-0.297974	
-0.293701	
-0.28894	
-0.285583	
-0.281921	
-0.279114	
-0.276917	
-0.275269	
-0.27356	
-0.273193	
-0.271606	
-0.270813	
-0.271118	
-0.272278	
-0.272766	
-0.274353	
-0.276184	
-0.280884	
-0.282471	
-0.28595	
-0.288635	
-0.292725	
-0.294739	
-0.297546	
-0.300354	
-0.30365	
-0.306824	
-0.309326	
-0.312683	
-0.315613	
-0.319946	
-0.323425	
-0.326721	
-0.331299	
-0.336182	
-0.340332	
-0.343994	
-0.348755	
-0.353027	
-0.35675	
-0.363586	
-0.366516	
-0.371765	
-0.375854	
-0.379761	
-0.382385	
-0.386292	
-0.389893	
-0.392029	
-0.393677	
-0.393982	
-0.395081	
-0.39679	
-0.396973	
-0.397644	
-0.398193	
-0.39856	
-0.398804	
-0.398438	
-0.399597	
-0.398254	
-0.397278	
-0.396057	
-0.39447	
-0.39447	
-0.393799	
-0.392883	
-0.391663	
-0.391479	
-0.390503	
-0.389465	
-0.389221	
-0.387329	
-0.387207	
-0.384888	
-0.383667	
-0.382446	
-0.381226	
-0.379578	
-0.37793	
-0.37677	
-0.375488	
-0.374695	
-0.372742	
-0.371704	
-0.371277	
-0.370056	
-0.370483	
-0.369751	
-0.370178	
-0.369629	
-0.369995	
-0.371765	
-0.372375	
-0.372925	
-0.373596	
-0.375549	
-0.375793	
-0.375916	
-0.378784	
-0.378296	
-0.381042	
-0.38208	
-0.383484	
-0.384399	
-0.385437	
-0.387146	
-0.386719	
-0.387207	
-0.386902	
-0.386536	
-0.389099	
-0.388733	
-0.389954	
-0.390503	
-0.391785	
-0.391052	
-0.391479	
-0.392883	
-0.391785	
-0.392029	
-0.391479	
-0.392029	
-0.392212	
-0.392639	
-0.393005	
-0.393616	
-0.394348	
-0.394104	
-0.395691	
-0.395264	
-0.396179	
-0.395447	
-0.393921	
-0.395386	
-0.394836	
-0.394531	
-0.394043	
-0.394104	
-0.393188	
-0.392883	
-0.392883	
-0.391541	
-0.389893	
-0.388611	
-0.387512	
-0.385315	
-0.384583	
-0.382813	
-0.38092	
-0.38092	
-0.378357	
-0.377625	
-0.376648	
-0.375244	
-0.372498	
-0.3703	
-0.369568	
-0.369019	
-0.367065	
-0.366333	
-0.364624	
-0.364319	
-0.363342	
-0.363098	
-0.363525	
-0.363037	
-0.362183	
-0.361938	
-0.361328	
-0.362305	
-0.362305	
-0.362732	
-0.363403	
-0.365906	
-0.36554	
-0.365479	
-0.36676	
-0.366394	
-0.366028	
-0.36615	
-0.366516	
-0.367371	
-0.36676	
-0.367249	
-0.368042	
-0.369202	
-0.369019	
-0.369995	
-0.371216	
-0.369934	
-0.370544	
-0.370544	
-0.372437	
-0.372375	
-0.373291	
-0.373535	
-0.373596	
-0.375244	
-0.37561	
-0.376038	
-0.377502	
-0.377014	
-0.377014	
-0.376709	
-0.377563	
-0.377686	
-0.37854	
-0.378357	
-0.378601	
-0.380066	
-0.380798	
-0.380737	
-0.381531	
-0.380249	
-0.381042	
-0.379761	
-0.381104	
-0.381836	
-0.382141	
-0.381836	
-0.381653	
-0.383118	
-0.383118	
-0.383667	
-0.38446	
-0.382996	
-0.383667	
-0.383423	
-0.384521	
-0.384705	
-0.384521	
-0.384521	
-0.384338	
-0.385376	
-0.386719	
-0.386658	
-0.386047	
-0.385803	
-0.385315	
-0.384399	
-0.385803	
-0.384521	
-0.384521	
-0.384521	
-0.383606	
-0.384521	
-0.384888	
-0.38501	
-0.385254	
-0.38501	
-0.383789	
-0.383667	
-0.38446	
-0.384338	
-0.383972	
-0.383179	
-0.381287	
-0.382874	
-0.382446	
-0.383057	
-0.383179	
-0.382629	
-0.381958	
-0.38208	
-0.382568	
-0.382935	
-0.381958	
-0.382141	
-0.38147	
-0.382019	
-0.382385	
-0.383362	
-0.382507	
-0.381226	
-0.381897	
-0.381653	
-0.381226	
-0.381592	
-0.381531	
-0.381897	
-0.381592	
-0.382751	
-0.381836	
-0.382141	
-0.382996	
-0.381226	
-0.381714	
-0.382202	
-0.381287	
-0.382507	
-0.383057	
-0.38324	
-0.383667	
-0.384521	
-0.383911	
-0.384155	
-0.38501	
-0.383911	
-0.383667	
-0.383911	
-0.383423	
-0.384888	
-0.384399	
-0.383362	
-0.385376	
-0.387024	
-0.386719	
-0.386841	
-0.387634	
-0.386292	
-0.385681	
-0.386658	
-0.386414	
-0.387207	
-0.386047	
-0.385681	
-0.387329	
-0.38739	
-0.387512	
-0.387268	
-0.387878	
-0.386902	
-0.386536	
-0.387207	
-0.386414	
-0.386536	
-0.38678	
-0.385742	
-0.386536	
-0.387085	
-0.38678	
-0.386902	
-0.38739	
-0.385376	
-0.386292	
-0.386414	
-0.385254	
-0.386047	
-0.385742	
-0.385864	
-0.386841	
-0.38739	
-0.387573	
-0.388855	
-0.389099	
-0.388062	
-0.388794	
-0.389282	
-0.389221	
-0.389709	
-0.390381	
-0.390076	
-0.390991	
-0.391907	
-0.391357	
-0.391907	
-0.39325	
-0.392212	
-0.391907	
-0.391785	
-0.391602	
-0.391968	
-0.392334	
-0.391296	
-0.392456	
-0.3927	
-0.392273	
-0.392273	
-0.392273	
-0.39093	
-0.390625	
-0.389709	
-0.388672	
-0.390808	
-0.390686	
-0.388672	
-0.389038	
-0.388611	
-0.387451	
-0.387878	
-0.388916	
-0.388306	
-0.388306	
-0.387207	
-0.386108	
-0.388062	
-0.388123	
-0.387146	
-0.387024	
-0.388306	
-0.387085	
-0.387085	
-0.388	
-0.385986	
-0.385315	
-0.385071	
-0.384521	
-0.384216	
-0.384155	
-0.383423	
-0.383789	
-0.384827	
-0.383728	
-0.383484	
-0.384033	
-0.382324	
-0.381897	
-0.38208	
-0.38147	
-0.38208	
-0.381836	
-0.381592	
-0.38208	
-0.383057	
-0.38385	
-0.384399	
-0.384583	
-0.384094	
-0.384155	
-0.384216	
-0.384033	
-0.385193	
-0.385132	
-0.386169	
-0.38623	
-0.387207	
-0.38623	
-0.386169	
-0.387146	
-0.386292	
-0.386902	
-0.38623	
-0.385986	
-0.387207	
-0.387268	
-0.388428	
-0.387573	
-0.388123	
-0.388733	
-0.389038	
-0.389099	
-0.387512	
-0.389771	
-0.389282	
-0.389038	
-0.389893	
-0.389526	
-0.390198	
-0.390137	
-0.39032	
-0.389954	
-0.390503	
-0.391541	
-0.390015	
-0.390564	
-0.389526	
-0.389099	
-0.390015	
-0.389709	
-0.389404	
-0.389771	
-0.390076	
-0.389771	
-0.390076	
-0.390747	
-0.389832	
-0.389771	
-0.389587	
-0.388977	
-0.389893	
-0.389709	
-0.390137	
-0.390625	
-0.390076	
-0.391357	
-0.390625	
-0.392029	
-0.390381	
-0.391052	
-0.391052	
-0.389343	
-0.391968	
-0.391541	
-0.391846	
-0.391968	
-0.391479	
-0.392883	
-0.392212	
-0.392761	
-0.391602	
-0.391907	
-0.391907	
-0.390808	
-0.391602	
-0.391296	
-0.392029	
-0.392578	
-0.391113	
-0.391724	
-0.391296	
-0.391541	
-0.39032	
-0.388733	
-0.389832	
-0.388062	
-0.388245	
-0.387756	
-0.387817	
-0.38855	
-0.388733	
-0.388672	
-0.389526	
-0.389709	
-0.389648	
-0.388	
-0.38916	
-0.388123	
-0.388428	
-0.388916	
-0.388428	
-0.388611	
-0.388977	
-0.389038	
-0.388489	
-0.388916	
-0.389587	
-0.387512	
-0.388367	
-0.387085	
-0.387329	
-0.386536	
-0.385925	
-0.38623	
-0.385803	
-0.386963	
-0.387329	
-0.386841	
-0.387634	
-0.384827	
-0.385864	
-0.384338	
-0.384644	
-0.384583	
-0.384644	
-0.384583	
-0.384583	
-0.384644	
-0.385132	
-0.385986	
-0.386353	
-0.384644	
-0.385986	
-0.384521	
-0.38501	
-0.385132	
-0.385315	
-0.385376	
-0.385925	
-0.385864	
-0.386841	
-0.386597	
-0.387085	
-0.386414	
-0.386902	
-0.386108	
-0.385132	
-0.386597	
-0.38678	
-0.387024	
-0.386963	
-0.386658	
-0.388123	
-0.388245	
-0.388489	
-0.387878	
-0.388672	
-0.387573	
-0.386536	
-0.388611	
-0.389038	
-0.38916	
-0.38916	
-0.389465	
-0.390442	
-0.390686	
-0.390381	
-0.389709	
-0.390015	
-0.389526	
-0.389099	
-0.391418	
-0.392578	
-0.392395	
-0.392212	
-0.392029	
-0.392456	
-0.393677	
-0.393066	
-0.392761	
-0.391724	
-0.392029	
-0.390869	
-0.391663	
-0.392578	
-0.392822	
-0.393066	
-0.392517	
-0.393311	
-0.393738	
-0.393127	
-0.393677	
-0.392578	
-0.392822	
-0.391663	
-0.391968	
-0.392944	
-0.39325	
-0.3927	
-0.39209	
-0.391907	
-0.392822	
-0.391724	
-0.391846	
-0.391479	
-0.390076	
-0.389832	
-0.388855	
-0.390015	
-0.389648	
-0.389099	
-0.389587	
-0.389343	
-0.389771	
-0.388428	
-0.389404	
-0.388916	
-0.386414	
-0.386108	
-0.384827	
-0.386353	
-0.386475	
-0.386169	
-0.386902	
-0.386902	
-0.388062	
-0.386353	
-0.388123	
-0.387329	
-0.385315	
-0.386963	
-0.386536	
-0.38678	
-0.387451	
-0.387085	
-0.387329	
-0.387756	
-0.388428	
-0.38739	
-0.388672	
-0.388367	
-0.387085	
-0.387939	
-0.387634	
-0.388	
-0.389038	
-0.389465	
-0.38916	
-0.389038	
-0.389832	
-0.389038	
-0.389832	
-0.390381	
-0.388489	
-0.389404	
-0.388184	
-0.387695	
-0.388306	
-0.387451	
-0.387146	
-0.38678	
-0.386658	
-0.385986	
-0.385986	
-0.386414	
-0.384216	
-0.385315	
-0.383911	
-0.38324	
-0.384399	
-0.383728	
-0.383728	
-0.383728	
-0.384094	
-0.384399	
-0.384033	
-0.383484	
-0.382874	
-0.384338	
-0.382629	
-0.382874	
-0.385193	
-0.384705	
-0.384399	
-0.384888	
-0.385437	
-0.385864	
-0.385986	
-0.386475	
-0.386169	
-0.386414	
-0.385559	
-0.386902	
-0.388306	
-0.389099	
-0.388794	
-0.388672	
-0.38855	
-0.389465	
-0.388367	
-0.389099	
-0.389404	
-0.388489	
-0.388672	
-0.388245	
-0.389526	
-0.390503	
-0.391174	
-0.39093	
-0.391113	
-0.393311	
-0.391418	
-0.393005	
-0.393555	
-0.392517	
-0.392883	
-0.3927	
-0.393494	
-0.393982	
-0.394348	
-0.394714	
-0.394836	
-0.396118	
-0.394287	
-0.39563	
-0.395081	
-0.392639	
-0.393494	
-0.393799	
-0.392029	
-0.393433	
-0.392761	
-0.392212	
-0.392517	
-0.391724	
-0.391235	
-0.392151	
-0.39093	
-0.389282	
-0.391052	
-0.389954	
-0.388123	
-0.390625	
-0.390503	
-0.389587	
-0.389893	
-0.39032	
-0.390259	
-0.389893	
-0.389832	
-0.388245	
-0.388977	
-0.387573	
-0.387634	
-0.388611	
-0.386963	
-0.38678	
-0.387024	
-0.387695	
-0.388733	
-0.387695	
-0.387512	
-0.387207	
-0.388062	
-0.386963	
-0.387878	
-0.387817	
-0.387024	
-0.387146	
-0.387695	
-0.388123	
-0.389282	
-0.388123	
-0.387573	
-0.388367	
-0.387878	
-0.387573	
-0.388123	
-0.388	
-0.388123	
-0.387329	
-0.387817	
-0.387878	
-0.388916	
-0.387817	
-0.388367	
-0.388977	
-0.386292	
-0.387329	
-0.386902	
-0.385803	
-0.386902	
-0.386169	
-0.385803	
-0.386414	
-0.387146	
-0.386047	
-0.387024	
-0.38623	
-0.38446	
-0.385498	
-0.385071	
-0.383484	
-0.386047	
-0.38562	
-0.385254	
-0.385681	
-0.386536	
-0.385315	
-0.386108	
-0.385803	
-0.385559	
-0.386047	
-0.385742	
-0.385864	
-0.387085	
-0.388	
-0.38739	
-0.387939	
-0.388794	
-0.389221	
-0.389893	
-0.389404	
-0.389709	
-0.38916	
-0.387817	
-0.388672	
-0.388977	
-0.389038	
-0.389282	
-0.389282	
-0.389832	
-0.390076	
-0.389404	
-0.389893	
-0.389099	
-0.389526	
-0.388672	
-0.388794	
-0.389771	
-0.390259	
-0.390564	
-0.391357	
-0.39209	
-0.392212	
-0.391418	
-0.393066	
-0.392273	
-0.392029	
-0.392151	
-0.392395	
-0.392029	
-0.392883	
-0.393005	
-0.392883	
-0.39325	
-0.394226	
-0.393677	
-0.394653	
-0.394287	
-0.393188	
-0.392883	
-0.3927	
-0.392334	
-0.393494	
-0.392944	
-0.392456	
-0.392395	
-0.393188	
-0.392578	
-0.392456	
-0.392395	
-0.39093	
-0.391296	
-0.390625	
-0.390076	
-0.391968	
-0.391602	
-0.390808	
-0.391296	
-0.391846	
-0.391296	
-0.391479	
-0.390808	
-0.389282	
-0.391052	
-0.389038	
-0.388672	
-0.390015	
-0.389893	
-0.389893	
-0.389282	
-0.390381	
-0.389282	
-0.38916	
-0.388672	
-0.387817	
-0.389038	
-0.387756	
-0.386292	
-0.388	
-0.388245	
-0.387878	
-0.387451	
-0.387451	
-0.38739	
-0.385925	
-0.387695	
-0.385315	
-0.385498	
-0.385559	
-0.384277	
-0.385803	
-0.385986	
-0.385925	
-0.385986	
-0.38562	
-0.386292	
-0.385315	
-0.386536	
-0.384705	
-0.384888	
-0.384827	
-0.383301	
-0.385193	
-0.384827	
-0.384705	
-0.384583	
-0.38501	
-0.385376	
-0.384949	
-0.385559	
-0.385559	
-0.384399	
-0.385315	
-0.384338	
-0.386169	
-0.386414	
-0.386841	
-0.386841	
-0.387756	
-0.388611	
-0.388489	
-0.388489	
-0.390076	
-0.387512	
-0.389282	
-0.388367	
-0.388855	
-0.389587	
-0.38916	
-0.389343	
-0.390503	
-0.392334	
-0.391968	
-0.391541	
-0.392944	
-0.389893	
-0.391296	
-0.390137	
-0.390991	
-0.39093	
-0.390991	
-0.391785	
-0.390747	
-0.391907	
-0.391418	
-0.390747	
-0.392761	
-0.388977	
-0.39032	
-0.389282	
-0.388855	
-0.390076	
-0.389954	
-0.389282	
-0.389221	
-0.389832	
-0.390015	
-0.388855	
-0.390442	
-0.388306	
-0.388489	
-0.387878	
-0.386414	
-0.388794	
-0.389099	
-0.388977	
-0.388611	
-0.389587	
-0.391357	
-0.389954	
-0.391235	
-0.389893	
-0.390442	
-0.390869	
-0.388733	
-0.392395	
-0.391968	
-0.392395	
-0.392822	
-0.392822	
-0.394348	
-0.393494	
-0.39447	
-0.393677	
-0.393005	
-0.394409	
-0.392456	
-0.39386	
-0.39325	
-0.394043	
-0.393799	
-0.393616	
-0.394409	
-0.392944	
-0.39325	
-0.393127	
-0.390259	
-0.391602	
-0.390869	
-0.391418	
-0.391113	
-0.391235	
-0.390442	
-0.389282	
-0.389465	
-0.389282	
-0.389526	
-0.392029	
-0.387695	
-0.388794	
-0.38855	
-0.389465	
-0.389404	
-0.388977	
-0.388916	
-0.38855	
-0.388367	
-0.388977	
-0.387451	
-0.389526	
-0.38562	
-0.386536	
-0.385315	
-0.385315	
-0.385803	
-0.385071	
-0.384705	
-0.384705	
-0.384521	
-0.384888	
-0.384216	
-0.385559	
-0.383057	
-0.382751	
-0.382446	
-0.381287	
-0.382935	
-0.383423	
-0.382813	
-0.383728	
-0.384583	
-0.385254	
-0.384583	
-0.385803	
-0.384949	
-0.384399	
-0.385498	
-0.383179	
-0.385864	
-0.386536	
-0.386719	
-0.387146	
-0.386414	
-0.388062	
-0.38739	
-0.387695	
-0.387512	
-0.38623	
-0.387817	
-0.385986	
-0.387878	
-0.388123	
-0.388245	
-0.388489	
-0.389099	
-0.389954	
-0.389282	
-0.390137	
-0.391174	
-0.390503	
-0.390381	
-0.38916	
-0.389893	
-0.390015	
-0.390381	
-0.389954	
-0.390076	
-0.391052	
-0.391357	
-0.390869	
-0.39209	
-0.389893	
-0.389648	
-0.389465	
-0.389771	
-0.389893	
-0.390076	
-0.389709	
-0.389954	
-0.389893	
-0.390503	
-0.390137	
-0.392029	
-0.388916	
-0.388855	
-0.390015	
-0.389343	
-0.390686	
-0.39032	
-0.389954	
-0.390442	
-0.39093	
-0.391113	
-0.391418	
-0.393311	
-0.390808	
-0.390991	
-0.391663	
-0.391602	
-0.391663	
-0.391357	
-0.391113	
-0.391785	
-0.391968	
-0.391724	
-0.392883	
-0.39325	
-0.392029	
-0.391785	
-0.391052	
-0.390625	
-0.391724	
-0.391602	
-0.391357	
-0.391235	
-0.390869	
-0.390808	
-0.390747	
-0.390869	
-0.39093	
-0.388611	
-0.386658	
-0.386536	
-0.388062	
-0.388489	
-0.38855	
-0.388794	
-0.388367	
-0.389587	
-0.389221	
-0.389343	
-0.389343	
-0.388245	
-0.387024	
-0.386292	
-0.388	
-0.388794	
-0.389221	
-0.387939	
-0.387878	
-0.388916	
-0.388306	
-0.38855	
-0.387878	
-0.386292	
-0.386292	
-0.384827	
-0.384583	
-0.385803	
-0.386292	
-0.385803	
-0.38623	
-0.385925	
-0.385559	
-0.386536	
-0.385986	
-0.384155	
-0.384155	
-0.383606	
-0.383789	
-0.384155	
-0.384155	
-0.384521	
-0.384888	
-0.384583	
-0.385193	
-0.385559	
-0.386475	
-0.385071	
-0.385315	
-0.384216	
-0.383606	
-0.385254	
-0.385559	
-0.385254	
-0.385925	
-0.386536	
-0.387268	
-0.386902	
-0.387329	
-0.387085	
-0.386658	
-0.384949	
-0.38562	
-0.386841	
-0.387024	
-0.387268	
-0.38678	
-0.386902	
-0.388428	
-0.388489	
-0.389099	
-0.389771	
-0.387756	
-0.387878	
-0.388794	
-0.388794	
-0.389282	
-0.390442	
-0.388855	
-0.389465	
-0.390076	
-0.390137	
-0.391174	
-0.391541	
-0.389221	
-0.391602	
-0.392151	
-0.392395	
-0.392273	
-0.392456	
-0.392578	
-0.392334	
-0.392456	
-0.3927	
-0.39386	
-0.393982	
-0.391846	
-0.392029	
-0.391296	
-0.392212	
-0.392273	
-0.392883	
-0.393127	
-0.393188	
-0.393188	
-0.393799	
-0.394348	
-0.393555	
-0.392395	
-0.3927	
-0.391663	
-0.391113	
-0.392395	
-0.392395	
-0.392456	
-0.391968	
-0.391541	
-0.391663	
-0.391357	
-0.391296	
-0.390503	
-0.388794	
-0.38855	
-0.388916	
-0.389648	
-0.389099	
-0.388916	
-0.389465	
-0.388794	
-0.38916	
-0.389099	
-0.38855	
-0.387451	
-0.38501	
-0.38501	
-0.385742	
-0.387146	
-0.386658	
-0.387573	
-0.386841	
-0.386414	
-0.387451	
-0.387695	
-0.388245	
-0.388306	
-0.386658	
-0.386414	
-0.387207	
-0.386719	
-0.387207	
-0.388062	
-0.388184	
-0.388306	
-0.388489	
-0.389282	
-0.389282	
-0.389709	
-0.388733	
-0.389221	
-0.388123	
-0.388367	
-0.388977	
-0.388977	
-0.389343	
-0.389587	
-0.389465	
-0.390564	
-0.390686	
-0.390747	
-0.389587	
-0.388062	
-0.387634	
-0.387451	
-0.387817	
-0.387207	
-0.387024	
-0.386902	
-0.387024	
-0.386047	
-0.386536	
-0.386475	
-0.386353	
-0.383301	
-0.383179	
-0.383545	
-0.384094	
-0.383911	
-0.384338	
-0.383972	
-0.384094	
-0.383972	
-0.384827	
-0.385071	
-0.385254	
-0.384277	
-0.383118	
-0.383667	
-0.384521	
-0.385254	
-0.385559	
-0.385864	
-0.386169	
-0.38678	
-0.388123	
-0.387634	
-0.386963	
-0.387756	
-0.388123	
-0.388611	
-0.388489	
-0.388733	
-0.388489	
-0.388733	
-0.388672	
-0.388977	
-0.390381	
-0.389832	
-0.389282	
-0.389038	
-0.389343	
-0.389343	
-0.390625	
-0.39093	
-0.391785	
-0.39209	
-0.3927	
-0.39325	
-0.393188	
-0.394104	
-0.393982	
-0.395081	
-0.3927	
-0.394104	
-0.395447	
-0.395691	
-0.395325	
-0.395081	
-0.395508	
-0.394958	
-0.39502	
-0.395386	
-0.39624	
-0.395264	
-0.393555	
-0.392822	
-0.393188	
-0.392822	
-0.392456	
-0.392456	
-0.392395	
-0.391846	
-0.391418	
-0.392822	
-0.393555	
-0.391235	
-0.390869	
-0.389343	
-0.390442	
-0.389832	
-0.390686	
-0.390869	
-0.389954	
-0.389832	
-0.39032	
-0.390869	
-0.391052	
-0.389771	
-0.390015	
-0.386841	
-0.386475	
-0.387085	
-0.387756	
-0.388062	
-0.388123	
-0.388062	
-0.388428	
-0.388977	
-0.389099	
-0.38855	
-0.388977	
-0.387451	
-0.386108	
-0.388123	
-0.388245	
-0.388733	
-0.388794	
-0.388428	
-0.38855	
-0.389038	
-0.390869	
-0.390259	
-0.390015	
-0.388672	
-0.388	
-0.388245	
-0.388245	
-0.388672	
-0.388733	
-0.388672	
-0.388855	
-0.388062	
-0.389526	
-0.390076	
-0.388855	
-0.386902	
-0.386597	
-0.387207	
-0.385925	
-0.387085	
-0.386963	
-0.387024	
-0.386719	
-0.385925	
-0.387634	
-0.388245	
-0.386597	
-0.38623	
-0.384644	
-0.385193	
-0.385315	
-0.386292	
-0.386108	
-0.386536	
-0.386475	
-0.387573	
-0.388	
-0.388062	
-0.387939	
-0.387512	
-0.38678	
-0.387207	
-0.388123	
-0.389221	
-0.388916	
-0.390015	
-0.390564	
-0.390747	
-0.391113	
-0.390808	
-0.390198	
-0.390198	
-0.389709	
-0.38916	
-0.389771	
-0.389893	
-0.389954	
-0.390015	
-0.39032	
-0.390747	
-0.390991	
-0.391785	
-0.391663	
-0.391479	
-0.390503	
-0.391113	
-0.391418	
-0.391907	
-0.392822	
-0.392578	
-0.392883	
-0.392883	
-0.39386	
-0.394592	
-0.39563	
-0.394653	
-0.392822	
-0.393311	
-0.392578	
-0.394226	
-0.39447	
-0.394531	
-0.394714	
-0.394287	
-0.394531	
-0.395264	
-0.395447	
-0.394165	
-0.393738	
-0.392029	
-0.392944	
-0.3927	
-0.393555	
-0.393799	
-0.393616	
-0.393372	
-0.393005	
-0.393616	
-0.39386	
-0.393311	
-0.392883	
-0.390808	
-0.391968	
-0.391235	
-0.392212	
-0.39209	
-0.392151	
-0.392517	
-0.391968	
-0.392456	
-0.392273	
-0.392029	
-0.391113	
-0.390869	
-0.389282	
-0.390015	
-0.390564	
-0.390137	
-0.390137	
-0.389954	
-0.389648	
-0.389771	
-0.390808	
-0.390442	
-0.389465	
-0.388794	
-0.388611	
-0.388428	
-0.388367	
-0.387695	
-0.387695	
-0.387573	
-0.387451	
-0.387024	
-0.388611	
-0.388245	
-0.387695	
-0.386536	
-0.386475	
-0.385925	
-0.386902	
-0.387268	
-0.387207	
-0.386658	
-0.385925	
-0.386414	
-0.38739	
-0.387451	
-0.386475	
-0.385986	
-0.383789	
-0.384888	
-0.385864	
-0.385925	
-0.386353	
-0.386108	
-0.385803	
-0.386597	
-0.387146	
-0.387268	
-0.388611	
-0.387573	
-0.385742	
-0.386414	
-0.387695	
-0.388611	
-0.388977	
-0.388916	
-0.389404	
-0.389648	
-0.390076	
-0.391296	
-0.391357	
-0.390747	
-0.390381	
-0.390564	
-0.389648	
-0.391968	
	
