C:\DOCUMENTS AND SETTINGS\JASON\DESKTOP\UFRJ\UFRJ EPHYS\RSCI-BM 12 WK SERIES\070803-RSCI-BM-11\RSCI-BM-11-LEMG\070803-RSCI-BM-11-LEMG-0022.ACQ
0.025000 msec/sample
1 channel
Analog input
Volts
CH1	
2000	
-0.392456	
-0.393433	
-0.393066	
-0.393311	
-0.393494	
-0.392822	
-0.391724	
-0.392822	
-0.391418	
-0.392029	
-0.392151	
-0.391907	
-0.391357	
-0.391174	
-0.390808	
-0.391724	
-0.39209	
-0.390808	
-0.390076	
-0.390686	
-0.390808	
-0.39093	
-0.391357	
-0.391052	
-0.390381	
-0.391602	
-0.390076	
-0.390991	
-0.390686	
-0.388672	
-0.387695	
-0.387939	
-0.388672	
-0.388855	
-0.389221	
-0.388367	
-0.389099	
-0.389465	
-0.388733	
-0.390076	
-0.390015	
-0.389526	
-0.388733	
-0.390015	
-0.390442	
-0.390381	
-0.390747	
-0.389832	
-0.390869	
-0.390991	
-0.391724	
-0.39209	
-0.392029	
-0.391235	
-0.39032	
-0.390686	
-0.392151	
-0.39209	
-0.392517	
-0.39093	
-0.391174	
-0.390686	
-0.39093	
-0.389465	
-0.390625	
-0.388916	
-0.387878	
-0.387878	
-0.388611	
-0.388489	
-0.387573	
-0.387329	
-0.386536	
-0.386475	
-0.386719	
-0.386536	
-0.387451	
-0.385803	
-0.38562	
-0.384888	
-0.38623	
-0.386047	
-0.38562	
-0.385681	
-0.386292	
-0.38623	
-0.387817	
-0.388245	
-0.388611	
-0.387085	
-0.387512	
-0.388489	
-0.387634	
-0.387939	
-0.388489	
-0.387268	
-0.388672	
-0.388	
-0.389771	
-0.389832	
-0.390198	
-0.38916	
-0.388977	
-0.389832	
-0.389404	
-0.389709	
-0.390381	
-0.389587	
-0.390198	
-0.389465	
-0.392029	
-0.391846	
-0.39209	
-0.391724	
-0.391907	
-0.393127	
-0.393066	
-0.394348	
-0.395508	
-0.396851	
-0.396606	
-0.395569	
-0.397888	
-0.3974	
-0.397461	
-0.396606	
-0.397766	
-0.397766	
-0.397644	
-0.398132	
-0.397705	
-0.398254	
-0.397034	
-0.396179	
-0.397095	
-0.398071	
-0.396973	
-0.395874	
-0.396057	
-0.395752	
-0.395447	
-0.394836	
-0.394531	
-0.394226	
-0.394165	
-0.393555	
-0.394226	
-0.394775	
-0.394043	
-0.392517	
-0.392456	
-0.392761	
-0.392456	
-0.392456	
-0.390808	
-0.391113	
-0.391357	
-0.391052	
-0.391052	
-0.391541	
-0.391174	
-0.389832	
-0.389709	
-0.389709	
-0.389648	
-0.390869	
-0.388123	
-0.388306	
-0.387634	
-0.387695	
-0.388428	
-0.388184	
-0.388916	
-0.387207	
-0.388184	
-0.38855	
-0.388611	
-0.390198	
-0.388123	
-0.389648	
-0.389343	
-0.39032	
-0.390137	
-0.389465	
-0.390442	
-0.389282	
-0.389648	
-0.39093	
-0.391113	
-0.391907	
-0.390381	
-0.391602	
-0.391235	
-0.392273	
-0.392517	
-0.392517	
-0.392639	
-0.365906	
-0.360596	
-0.363831	
-0.366516	
-0.36676	
-0.365906	
-0.398865	
-0.396973	
-0.394531	
-0.392883	
-0.391235	
-0.389832	
-0.389771	
-0.388916	
-0.387695	
-0.388428	
-0.389221	
-0.38855	
-0.388	
-0.387756	
-0.388306	
-0.388306	
-0.386658	
-0.387085	
-0.387268	
-0.387024	
-0.38678	
-0.388062	
-0.388428	
-0.389465	
-0.390015	
-0.390259	
-0.390564	
-0.39032	
-0.390259	
-0.388733	
-0.389282	
-0.389709	
-0.389587	
-0.389709	
-0.389526	
-0.389709	
-0.388977	
-0.389404	
-0.389709	
-0.388794	
-0.38916	
-0.387329	
-0.387878	
-0.387756	
-0.388855	
-0.391235	
-0.391418	
-0.39447	
-0.396118	
-0.398438	
-0.402161	
-0.405029	
-0.408752	
-0.412415	
-0.416077	
-0.419556	
-0.424438	
-0.430176	
-0.434814	
-0.440552	
-0.446228	
-0.453491	
-0.4599	
-0.465759	
-0.469971	
-0.477112	
-0.482727	
-0.48877	
-0.493164	
-0.496033	
-0.501221	
-0.504089	
-0.505737	
-0.508118	
-0.510315	
-0.511292	
-0.512939	
-0.514282	
-0.514709	
-0.517395	
-0.52002	
-0.520325	
-0.521423	
-0.522339	
-0.525085	
-0.526489	
-0.528259	
-0.529114	
-0.530579	
-0.533081	
-0.533447	
-0.535522	
-0.535522	
-0.536316	
-0.536072	
-0.535339	
-0.536499	
-0.535339	
-0.534668	
-0.533081	
-0.532776	
-0.532043	
-0.53064	
-0.528625	
-0.525818	
-0.525696	
-0.525146	
-0.523071	
-0.523865	
-0.52356	
-0.5224	
-0.52063	
-0.52002	
-0.518555	
-0.517883	
-0.516418	
-0.513611	
-0.512146	
-0.510681	
-0.508057	
-0.505676	
-0.502014	
-0.497864	
-0.494873	
-0.491455	
-0.487854	
-0.484009	
-0.48114	
-0.47644	
-0.472839	
-0.468872	
-0.466064	
-0.461548	
-0.457092	
-0.451172	
-0.446411	
-0.442322	
-0.436096	
-0.430542	
-0.424377	
-0.417297	
-0.410095	
-0.401367	
-0.393921	
-0.384766	
-0.376587	
-0.366394	
-0.35675	
-0.348938	
-0.338623	
-0.329956	
-0.321411	
-0.312195	
-0.304688	
-0.297485	
-0.292053	
-0.28595	
-0.281982	
-0.276245	
-0.273254	
-0.273071	
-0.271118	
-0.270081	
-0.267761	
-0.2677	
-0.266724	
-0.267456	
-0.268738	
-0.269104	
-0.270081	
-0.272095	
-0.275574	
-0.278442	
-0.282227	
-0.286865	
-0.290039	
-0.294556	
-0.298523	
-0.303467	
-0.30835	
-0.312622	
-0.31543	
-0.320862	
-0.324768	
-0.330261	
-0.335144	
-0.337158	
-0.342224	
-0.345581	
-0.349426	
-0.352356	
-0.355408	
-0.3573	
-0.361084	
-0.363464	
-0.366211	
-0.369568	
-0.370239	
-0.373413	
-0.376099	
-0.377686	
-0.379517	
-0.381897	
-0.382263	
-0.382935	
-0.38501	
-0.386414	
-0.38678	
-0.387085	
-0.387695	
-0.388245	
-0.388428	
-0.389038	
-0.390137	
-0.388428	
-0.388367	
-0.388245	
-0.388428	
-0.389099	
-0.389282	
-0.387573	
-0.389099	
-0.388916	
-0.38916	
-0.389465	
-0.388916	
-0.387451	
-0.388855	
-0.387817	
-0.388855	
-0.388611	
-0.388123	
-0.387939	
-0.388672	
-0.387878	
-0.387085	
-0.387268	
-0.385437	
-0.384338	
-0.383179	
-0.38324	
-0.381653	
-0.38092	
-0.378052	
-0.377502	
-0.376465	
-0.375549	
-0.372803	
-0.369934	
-0.36792	
-0.367004	
-0.365784	
-0.364075	
-0.362915	
-0.361511	
-0.360107	
-0.358276	
-0.356934	
-0.35553	
-0.354248	
-0.351624	
-0.349121	
-0.348999	
-0.34845	
-0.347168	
-0.34729	
-0.345459	
-0.346741	
-0.346985	
-0.347168	
-0.347717	
-0.347717	
-0.346375	
-0.348145	
-0.349548	
-0.349609	
-0.350647	
-0.352417	
-0.3526	
-0.353699	
-0.355042	
-0.355713	
-0.35675	
-0.35675	
-0.357788	
-0.359558	
-0.359924	
-0.360779	
-0.362305	
-0.361633	
-0.364136	
-0.364502	
-0.364685	
-0.366577	
-0.368103	
-0.366577	
-0.366882	
-0.368896	
-0.3703	
-0.372009	
-0.373047	
-0.372437	
-0.372986	
-0.373779	
-0.373962	
-0.374451	
-0.374878	
-0.375183	
-0.375366	
-0.37561	
-0.376038	
-0.375671	
-0.375732	
-0.375916	
-0.376404	
-0.37561	
-0.376953	
-0.376221	
-0.37561	
-0.375732	
-0.375732	
-0.375366	
-0.376343	
-0.37561	
-0.376343	
-0.376587	
-0.376404	
-0.375732	
-0.377563	
-0.377625	
-0.376953	
-0.378357	
-0.377686	
-0.378357	
-0.378845	
-0.379822	
-0.379456	
-0.380859	
-0.380798	
-0.381592	
-0.381592	
-0.383301	
-0.382202	
-0.382751	
-0.382446	
-0.383545	
-0.383728	
-0.384827	
-0.384583	
-0.385681	
-0.384033	
-0.384766	
-0.384155	
-0.38501	
-0.383911	
-0.382874	
-0.381897	
-0.382629	
-0.382568	
-0.383972	
-0.383545	
-0.383667	
-0.382935	
-0.383484	
-0.382751	
-0.383301	
-0.38324	
-0.382568	
-0.382568	
-0.38324	
-0.382751	
-0.383728	
-0.383606	
-0.38324	
-0.381653	
-0.383545	
-0.383057	
-0.382874	
-0.382751	
-0.38208	
-0.381958	
-0.381958	
-0.382019	
-0.381836	
-0.382141	
-0.381409	
-0.380676	
-0.380554	
-0.38031	
-0.379944	
-0.3797	
-0.378235	
-0.378784	
-0.378235	
-0.378906	
-0.378357	
-0.377808	
-0.376709	
-0.377502	
-0.377991	
-0.377136	
-0.377563	
-0.376526	
-0.377075	
-0.377197	
-0.37793	
-0.378784	
-0.378967	
-0.378418	
-0.377747	
-0.379333	
-0.379517	
-0.380066	
-0.378906	
-0.37915	
-0.380981	
-0.380432	
-0.38092	
-0.381287	
-0.380676	
-0.381226	
-0.381836	
-0.381897	
-0.381592	
-0.382874	
-0.381348	
-0.38269	
-0.38324	
-0.383362	
-0.383423	
-0.383118	
-0.382446	
-0.38446	
-0.383911	
-0.384644	
-0.384827	
-0.384155	
-0.384705	
-0.385925	
-0.38678	
-0.387695	
-0.387939	
-0.387146	
-0.388123	
-0.389709	
-0.388733	
-0.38916	
-0.390015	
-0.388184	
-0.389587	
-0.389648	
-0.389771	
-0.389709	
-0.389832	
-0.389832	
-0.390442	
-0.390564	
-0.389587	
-0.390442	
-0.389038	
-0.38916	
-0.38916	
-0.38916	
-0.38916	
-0.388733	
-0.388428	
-0.387878	
-0.388428	
-0.387024	
-0.387695	
-0.388489	
-0.386169	
-0.387207	
-0.387573	
-0.387573	
-0.387085	
-0.387634	
-0.386047	
-0.387085	
-0.388123	
-0.386841	
-0.386841	
-0.386597	
-0.387024	
-0.38623	
-0.387207	
-0.386719	
-0.386414	
-0.387573	
-0.386719	
-0.387146	
-0.387451	
-0.384949	
-0.384583	
-0.383362	
-0.384949	
-0.384644	
-0.384399	
-0.384766	
-0.385559	
-0.385193	
-0.385254	
-0.386536	
-0.384827	
-0.385742	
-0.386536	
-0.384338	
-0.386658	
-0.386658	
-0.386108	
-0.386353	
-0.387512	
-0.385742	
-0.387512	
-0.38855	
-0.387207	
-0.387695	
-0.388062	
-0.387695	
-0.387939	
-0.388428	
-0.388123	
-0.387939	
-0.388428	
-0.387268	
-0.387817	
-0.387451	
-0.386414	
-0.386353	
-0.384888	
-0.385193	
-0.385559	
-0.384888	
-0.38501	
-0.385315	
-0.383667	
-0.383972	
-0.38446	
-0.382629	
-0.38385	
-0.383484	
-0.381165	
-0.382629	
-0.384155	
-0.383484	
-0.383118	
-0.383484	
-0.383728	
-0.383728	
-0.385254	
-0.384155	
-0.385132	
-0.384155	
-0.384583	
-0.386414	
-0.384705	
-0.384827	
-0.385437	
-0.385498	
-0.385681	
-0.386353	
-0.385742	
-0.385681	
-0.386658	
-0.385315	
-0.386292	
-0.387695	
-0.386902	
-0.386963	
-0.387268	
-0.387817	
-0.387756	
-0.389038	
-0.387329	
-0.388794	
-0.388184	
-0.387878	
-0.389465	
-0.389832	
-0.390686	
-0.39093	
-0.391846	
-0.393188	
-0.394531	
-0.395142	
-0.394714	
-0.394714	
-0.393616	
-0.393982	
-0.395142	
-0.393982	
-0.39502	
-0.395386	
-0.396057	
-0.395874	
-0.396423	
-0.396545	
-0.394653	
-0.395264	
-0.393921	
-0.394592	
-0.394775	
-0.39386	
-0.393311	
-0.392639	
-0.392822	
-0.392456	
-0.393066	
-0.391785	
-0.391541	
-0.392273	
-0.391357	
-0.391907	
-0.391052	
-0.390747	
-0.39093	
-0.39032	
-0.390381	
-0.389587	
-0.390259	
-0.389404	
-0.389404	
-0.387756	
-0.387878	
-0.388611	
-0.387756	
-0.388245	
-0.388245	
-0.387878	
-0.388306	
-0.387634	
-0.386353	
-0.386169	
-0.386353	
-0.38623	
-0.386719	
-0.386475	
-0.386658	
-0.386841	
-0.387268	
-0.386963	
-0.387268	
-0.388062	
-0.387207	
-0.388367	
-0.388489	
-0.387878	
-0.388611	
-0.38855	
-0.388977	
-0.388916	
-0.390198	
-0.38916	
-0.39032	
-0.390442	
-0.390503	
-0.390076	
-0.39032	
-0.390442	
-0.391235	
-0.390625	
-0.390808	
-0.390503	
-0.390686	
-0.390381	
-0.391418	
-0.39032	
-0.390747	
-0.389282	
-0.389648	
-0.387512	
-0.389099	
-0.387146	
-0.388062	
-0.388	
-0.387512	
-0.387329	
-0.387085	
-0.387085	
-0.386292	
-0.385803	
-0.38678	
-0.385742	
-0.386536	
-0.385742	
-0.386047	
-0.385925	
-0.385681	
-0.387207	
-0.387634	
-0.388062	
-0.388611	
-0.388611	
-0.388062	
-0.388123	
-0.387329	
-0.387939	
-0.387756	
-0.387756	
-0.38855	
-0.388977	
-0.388672	
-0.388428	
-0.388733	
-0.388428	
-0.387878	
-0.389221	
-0.387878	
-0.389832	
-0.388672	
-0.389221	
-0.390015	
-0.389404	
-0.389587	
-0.389893	
-0.389954	
-0.390381	
-0.39032	
-0.392822	
-0.391846	
-0.3927	
-0.393066	
-0.393921	
-0.394287	
-0.393982	
-0.394836	
-0.394287	
-0.395813	
-0.395203	
-0.396362	
-0.396606	
-0.396973	
-0.396912	
-0.396729	
-0.397522	
-0.3974	
-0.396973	
-0.397339	
-0.396729	
-0.396423	
-0.395569	
-0.39624	
-0.395935	
-0.395386	
-0.395081	
-0.394287	
-0.394226	
-0.394836	
-0.394409	
-0.394348	
-0.393677	
-0.394409	
-0.39325	
-0.394165	
-0.393982	
-0.392944	
-0.393005	
-0.393372	
-0.393372	
-0.392944	
-0.391418	
-0.392334	
-0.391113	
-0.392273	
-0.391663	
-0.392212	
-0.390991	
-0.39093	
-0.391052	
-0.390564	
-0.389832	
-0.388489	
-0.389099	
-0.388611	
-0.388855	
-0.388672	
-0.387695	
-0.388855	
-0.387085	
-0.387756	
-0.388	
-0.387146	
-0.387207	
-0.38678	
-0.387878	
-0.386963	
-0.386963	
-0.386841	
-0.386841	
-0.387085	
-0.384949	
-0.387207	
-0.386108	
-0.387268	
-0.387817	
-0.387451	
-0.388733	
-0.387451	
-0.388611	
-0.38855	
-0.388977	
-0.388916	
-0.388123	
-0.389648	
-0.388672	
-0.390259	
-0.389526	
-0.38916	
-0.390808	
-0.388733	
-0.391113	
-0.390137	
-0.391052	
-0.390137	
-0.390686	
-0.391296	
-0.390991	
-0.391541	
-0.390869	
-0.390808	
-0.390808	
-0.390869	
-0.391602	
-0.391052	
-0.391602	
-0.390869	
-0.391174	
-0.393738	
-0.394714	
-0.394104	
-0.393799	
-0.393616	
-0.393127	
-0.39386	
-0.393677	
-0.393188	
-0.392761	
-0.392883	
-0.393127	
-0.391907	
-0.392944	
-0.392639	
-0.391296	
-0.392151	
-0.391479	
-0.391846	
-0.391663	
-0.390564	
-0.390991	
-0.389343	
-0.391541	
-0.389771	
-0.390991	
-0.390625	
-0.390137	
-0.390747	
-0.390198	
-0.391907	
-0.391846	
-0.391663	
-0.393066	
-0.392639	
-0.393616	
-0.392273	
-0.394287	
-0.393127	
-0.394043	
-0.395508	
-0.39447	
-0.396179	
-0.395569	
-0.396179	
-0.395935	
-0.396362	
-0.396851	
-0.395874	
-0.397156	
-0.395691	
-0.395447	
-0.39679	
-0.396301	
-0.396179	
-0.395203	
-0.396179	
-0.394653	
-0.394775	
-0.394653	
-0.394104	
-0.393677	
-0.39325	
-0.394775	
-0.39386	
-0.393799	
-0.39325	
-0.393616	
-0.393494	
-0.392273	
-0.393616	
-0.392578	
-0.393188	
-0.392822	
-0.391968	
-0.392578	
-0.391846	
-0.39209	
-0.391724	
-0.391174	
-0.391296	
-0.390198	
-0.391113	
-0.389771	
-0.390381	
-0.389404	
-0.389221	
-0.388062	
-0.386841	
-0.387329	
-0.386841	
-0.385681	
-0.38623	
-0.385559	
-0.386902	
-0.384766	
-0.38678	
-0.385254	
-0.385071	
-0.385742	
-0.385498	
-0.38562	
-0.384338	
-0.384766	
-0.385681	
-0.386292	
-0.386475	
-0.386353	
-0.386902	
-0.386414	
-0.387329	
-0.387512	
-0.387268	
-0.388184	
-0.387878	
-0.388916	
-0.388733	
-0.389221	
-0.388855	
-0.388916	
-0.389343	
-0.38916	
-0.390137	
-0.389893	
-0.390137	
-0.390747	
-0.390564	
-0.391541	
-0.390442	
-0.392639	
-0.391479	
-0.391663	
-0.391846	
-0.39209	
-0.392334	
-0.391785	
-0.393066	
-0.392578	
-0.393677	
-0.394836	
-0.393494	
-0.394958	
-0.393372	
-0.394592	
-0.394043	
-0.394165	
-0.39386	
-0.394287	
-0.394653	
-0.393799	
-0.393127	
-0.39325	
-0.393005	
-0.393066	
-0.391479	
-0.393494	
-0.391663	
-0.392212	
-0.391296	
-0.391235	
-0.391907	
-0.391052	
-0.391357	
-0.390686	
-0.391113	
-0.390686	
-0.39032	
-0.390686	
-0.38916	
-0.390381	
-0.391174	
-0.390991	
-0.39093	
-0.39093	
-0.391846	
-0.391785	
-0.392334	
-0.391907	
-0.392761	
-0.393311	
-0.393433	
-0.393494	
-0.394348	
-0.394226	
-0.394226	
-0.394775	
-0.394958	
-0.394653	
-0.395874	
-0.395081	
-0.395203	
-0.394958	
-0.394775	
-0.395447	
-0.39386	
-0.393188	
-0.392578	
-0.392273	
-0.393005	
-0.392456	
-0.394104	
-0.391846	
-0.393555	
-0.39325	
-0.3927	
-0.393616	
-0.392029	
-0.393738	
-0.392639	
-0.391785	
-0.392456	
-0.392578	
-0.393372	
-0.391907	
-0.392578	
-0.391602	
-0.391785	
-0.392456	
-0.391418	
-0.392212	
-0.391357	
-0.391541	
-0.39032	
-0.39032	
-0.390808	
-0.389404	
-0.390015	
-0.387878	
-0.38855	
-0.388184	
-0.387024	
-0.387207	
-0.387085	
-0.387207	
-0.386414	
-0.386414	
-0.385803	
-0.385254	
-0.385498	
-0.383606	
-0.385193	
-0.385498	
-0.385193	
-0.384399	
-0.385193	
-0.385376	
-0.384949	
-0.38623	
-0.38501	
-0.385986	
-0.386536	
-0.385864	
-0.386536	
-0.387146	
-0.388062	
-0.387451	
-0.388367	
-0.387634	
-0.387634	
-0.387878	
-0.386902	
-0.388306	
-0.387817	
-0.388	
-0.38916	
-0.388245	
-0.390015	
-0.389709	
-0.390076	
-0.389282	
-0.389709	
-0.390686	
-0.39032	
-0.390869	
-0.390869	
-0.391052	
-0.390686	
-0.391174	
-0.393127	
-0.393494	
-0.393005	
-0.393311	
-0.39386	
-0.394531	
-0.394775	
-0.395081	
-0.394836	
-0.395264	
-0.395386	
-0.395447	
-0.395447	
-0.395081	
-0.394409	
-0.394287	
-0.395996	
-0.395386	
-0.395203	
-0.395752	
-0.39447	
-0.395142	
-0.39502	
-0.394775	
-0.394043	
-0.394165	
-0.393494	
-0.39325	
-0.393066	
-0.391846	
-0.392822	
-0.392944	
-0.391418	
-0.392517	
-0.392334	
-0.393005	
-0.391968	
-0.392273	
-0.391296	
-0.391785	
-0.391113	
-0.391357	
-0.391724	
-0.391174	
-0.390442	
-0.391235	
-0.391785	
-0.391357	
-0.391235	
-0.391724	
-0.390991	
-0.391113	
-0.390564	
-0.390747	
-0.390198	
-0.388184	
-0.387817	
-0.388794	
-0.390442	
-0.389221	
-0.389099	
-0.389282	
-0.388977	
-0.389893	
-0.388794	
-0.390869	
-0.390686	
-0.389832	
-0.390198	
-0.390503	
-0.391235	
-0.39032	
-0.391174	
-0.390076	
-0.389526	
-0.390808	
-0.392029	
-0.392029	
-0.391479	
-0.391602	
-0.391663	
-0.391846	
-0.392273	
-0.391663	
-0.391968	
-0.389954	
-0.390869	
-0.390991	
-0.391052	
-0.389648	
-0.389587	
-0.388794	
-0.388916	
-0.388489	
-0.389221	
-0.388489	
-0.388306	
-0.387085	
-0.387695	
-0.387268	
-0.387939	
-0.386475	
-0.386047	
-0.385864	
-0.386658	
-0.386047	
-0.386963	
-0.386719	
-0.386658	
-0.386414	
-0.386902	
-0.386963	
-0.388245	
-0.387695	
-0.38739	
-0.387939	
-0.388916	
-0.389343	
-0.388123	
-0.38916	
-0.388367	
-0.387268	
-0.388794	
-0.387939	
-0.38916	
-0.389648	
-0.389282	
-0.388794	
-0.389771	
-0.391113	
-0.389893	
-0.391174	
-0.389526	
-0.39032	
-0.391418	
-0.391418	
-0.391418	
-0.391418	
-0.391846	
-0.390808	
-0.39209	
-0.39447	
-0.393555	
-0.395447	
-0.394653	
-0.396729	
-0.397034	
-0.397461	
-0.397339	
-0.396851	
-0.397095	
-0.396606	
-0.397522	
-0.399048	
-0.398682	
-0.398132	
-0.397095	
-0.398132	
-0.397156	
-0.398499	
-0.397644	
-0.397095	
-0.396179	
-0.396423	
-0.397156	
-0.395691	
-0.395447	
-0.394531	
-0.394409	
-0.394836	
-0.393066	
-0.394897	
-0.394714	
-0.393799	
-0.3927	
-0.39325	
-0.394226	
-0.392761	
-0.392273	
-0.39209	
-0.391663	
-0.392395	
-0.391174	
-0.39209	
-0.391785	
-0.390808	
-0.389709	
-0.390991	
-0.391479	
-0.390564	
-0.390869	
-0.389832	
-0.387695	
-0.387817	
-0.388794	
-0.389221	
-0.388367	
-0.389099	
-0.388733	
-0.388611	
-0.389465	
-0.389465	
-0.389954	
-0.388733	
-0.389099	
-0.389771	
-0.390076	
-0.391174	
-0.390015	
-0.390259	
-0.389954	
-0.390503	
-0.391907	
-0.391052	
-0.392029	
-0.390747	
-0.391907	
-0.391907	
-0.393188	
-0.393555	
-0.392822	
-0.392761	
-0.392212	
-0.393066	
-0.393372	
-0.392212	
-0.392334	
-0.39209	
-0.391907	
-0.391541	
-0.391968	
-0.391052	
-0.389832	
-0.390137	
-0.389404	
-0.390076	
-0.389465	
-0.389526	
-0.388489	
-0.387695	
-0.388916	
-0.387451	
-0.388855	
-0.387634	
-0.388	
-0.386963	
-0.387268	
-0.387695	
-0.388733	
-0.388489	
-0.387146	
-0.388062	
-0.39032	
-0.390137	
-0.390381	
-0.389465	
-0.390015	
-0.389038	
-0.389221	
-0.390259	
-0.390442	
-0.390442	
-0.388794	
-0.389465	
-0.390259	
-0.390381	
-0.390808	
-0.390442	
-0.39093	
-0.389526	
-0.391174	
-0.391357	
-0.391052	
-0.391663	
-0.390808	
-0.390869	
-0.392029	
-0.392578	
-0.393005	
-0.392883	
-0.39325	
-0.393372	
-0.394714	
-0.395386	
-0.394775	
-0.395752	
-0.395691	
-0.39563	
-0.396606	
-0.397522	
-0.39801	
-0.397522	
-0.39801	
-0.397949	
-0.399231	
-0.399292	
-0.397583	
-0.397705	
-0.398315	
-0.398071	
-0.397339	
-0.398804	
-0.397095	
-0.397095	
-0.396667	
-0.396362	
-0.396606	
-0.396362	
-0.395935	
-0.39447	
-0.395264	
-0.395203	
-0.393982	
-0.396484	
-0.395325	
-0.394836	
-0.394897	
-0.39502	
-0.394531	
-0.394653	
-0.394958	
-0.393433	
-0.392517	
-0.393311	
-0.392944	
-0.394714	
-0.393188	
-0.392883	
-0.391846	
-0.393311	
-0.392639	
-0.391846	
-0.391174	
-0.389832	
-0.389282	
-0.389709	
-0.390137	
-0.391357	
-0.389709	
-0.389282	
-0.38739	
-0.389221	
-0.389038	
-0.388123	
-0.388489	
-0.388184	
-0.387756	
-0.388123	
-0.388794	
-0.388977	
-0.388123	
-0.388123	
-0.387146	
-0.388123	
-0.388916	
-0.38855	
-0.388916	
-0.389099	
-0.388855	
-0.389526	
-0.390686	
-0.389465	
-0.389648	
-0.390198	
-0.389648	
-0.389771	
-0.391785	
-0.39093	
-0.390259	
-0.390442	
-0.391479	
-0.390869	
-0.391418	
-0.391235	
-0.391663	
-0.391235	
-0.391113	
-0.392151	
-0.392456	
-0.391602	
-0.391052	
-0.391785	
-0.392212	
-0.390991	
-0.3927	
-0.392029	
-0.392578	
-0.391052	
-0.393799	
-0.394409	
-0.395508	
-0.395203	
-0.39447	
-0.393799	
-0.394409	
-0.39386	
-0.394958	
-0.393799	
-0.394226	
-0.392883	
-0.394958	
-0.393616	
-0.394226	
-0.393982	
-0.3927	
-0.391907	
-0.393066	
-0.393311	
-0.393494	
-0.392029	
-0.392029	
-0.391663	
-0.393616	
-0.392456	
-0.391602	
-0.391602	
-0.391052	
-0.390442	
-0.391846	
-0.392944	
-0.392883	
-0.392944	
-0.393494	
-0.393433	
-0.394104	
-0.39502	
-0.394531	
-0.394409	
-0.394897	
-0.394958	
-0.395447	
-0.396729	
-0.39624	
-0.395874	
-0.396484	
-0.396484	
-0.397095	
-0.398254	
-0.397156	
-0.396545	
-0.396606	
-0.396851	
-0.396423	
-0.396851	
-0.39624	
-0.396423	
-0.395264	
-0.39502	
-0.395691	
-0.395935	
-0.394409	
-0.393677	
-0.394958	
-0.394592	
-0.393921	
-0.395142	
-0.394165	
-0.394287	
-0.393188	
-0.393555	
-0.393982	
-0.39386	
-0.394226	
-0.392944	
-0.393188	
-0.393005	
-0.392517	
-0.393799	
-0.391907	
-0.391785	
-0.390564	
-0.392639	
-0.391357	
-0.391418	
-0.391174	
-0.389282	
-0.387207	
-0.387024	
-0.388123	
-0.388123	
-0.387451	
-0.387207	
-0.386047	
-0.387634	
-0.386841	
-0.386902	
-0.38678	
-0.386108	
-0.385254	
-0.385925	
-0.386353	
-0.386414	
-0.386047	
-0.385803	
-0.386536	
-0.386963	
-0.387451	
-0.387085	
-0.387573	
-0.388245	
-0.386902	
-0.388062	
-0.389221	
-0.388977	
-0.38916	
-0.388855	
-0.389343	
-0.389587	
-0.390259	
-0.389954	
-0.389465	
-0.390381	
-0.389771	
-0.390625	
-0.391724	
-0.392029	
-0.391602	
-0.390869	
-0.392273	
-0.392517	
-0.393616	
-0.392944	
-0.392761	
-0.392395	
-0.393005	
-0.392029	
-0.393616	
-0.394531	
-0.395752	
-0.394165	
-0.394836	
-0.39447	
-0.395142	
-0.394897	
-0.39447	
-0.394348	
-0.394592	
-0.39447	
-0.394775	
-0.394104	
-0.393982	
-0.392883	
-0.392456	
-0.393127	
-0.393433	
-0.392883	
-0.392456	
-0.391357	
-0.391663	
-0.392395	
-0.392517	
-0.391174	
-0.391174	
-0.390991	
-0.390991	
-0.391052	
-0.390808	
-0.390259	
-0.390991	
-0.390869	
-0.39093	
-0.392212	
-0.393066	
-0.391968	
-0.39209	
-0.39325	
-0.393066	
-0.393921	
-0.393982	
-0.394104	
-0.394775	
-0.393799	
-0.394531	
-0.394958	
-0.396118	
-0.395081	
-0.394897	
-0.396362	
-0.396057	
-0.396362	
-0.395386	
-0.395569	
-0.395386	
-0.393127	
-0.392822	
-0.393433	
-0.393921	
-0.393311	
-0.392334	
-0.394653	
-0.393616	
-0.394043	
-0.393616	
-0.393616	
-0.393372	
-0.393188	
-0.393372	
-0.393372	
-0.393372	
-0.392151	
-0.392517	
-0.39386	
-0.392395	
-0.393372	
-0.392578	
-0.391907	
-0.391785	
-0.392212	
-0.39209	
-0.392029	
-0.391541	
-0.391541	
-0.390625	
-0.390686	
-0.390564	
-0.39032	
-0.389343	
-0.388916	
-0.387756	
-0.387512	
-0.388245	
-0.387573	
-0.386963	
-0.386963	
-0.386841	
-0.385193	
-0.385925	
-0.385925	
-0.38446	
-0.385132	
-0.385071	
-0.385132	
-0.386292	
-0.385742	
-0.385864	
-0.38623	
-0.386414	
-0.385315	
-0.386414	
-0.386902	
-0.386963	
-0.386963	
-0.386902	
-0.387146	
-0.388672	
-0.388611	
-0.387878	
-0.388245	
-0.388672	
-0.387634	
-0.389038	
-0.38855	
-0.388672	
-0.388977	
-0.388367	
-0.388306	
-0.390259	
-0.390869	
-0.390015	
-0.39032	
-0.39093	
-0.39032	
-0.391357	
-0.390747	
-0.390869	
-0.390747	
-0.390869	
-0.392456	
-0.394348	
-0.394348	
-0.393799	
-0.393372	
-0.394653	
-0.394714	
-0.395508	
-0.395508	
-0.395203	
-0.395203	
-0.395264	
-0.394897	
-0.395996	
-0.39624	
-0.395325	
-0.395691	
-0.395813	
-0.395386	
-0.396057	
-0.394897	
-0.395081	
-0.394714	
-0.394409	
-0.393921	
	
