C:\DOCUMENTS AND SETTINGS\JASON\DESKTOP\UFRJ\UFRJ EPHYS\RSCI-BM 12 WK SERIES\070803-RSCI-BM-11\RSCI-BM-11-LEMG\070803-RSCI-BM-11-LEMG-0009.ACQ
0.025000 msec/sample
1 channel
Analog input
Volts
CH1	
2000	
-0.391174	
-0.391113	
-0.391724	
-0.392212	
-0.39093	
-0.392029	
-0.390564	
-0.392517	
-0.391479	
-0.391418	
-0.390991	
-0.390991	
-0.391235	
-0.391296	
-0.391418	
-0.392334	
-0.392029	
-0.392578	
-0.391357	
-0.391724	
-0.392639	
-0.391968	
-0.391479	
-0.391174	
-0.391785	
-0.391174	
-0.391235	
-0.39325	
-0.392212	
-0.392395	
-0.391541	
-0.391357	
-0.392944	
-0.392395	
-0.391663	
-0.391479	
-0.391846	
-0.393005	
-0.392822	
-0.394104	
-0.392944	
-0.394287	
-0.39325	
-0.392029	
-0.393738	
-0.392883	
-0.393066	
-0.393127	
-0.392456	
-0.39325	
-0.393005	
-0.393066	
-0.394775	
-0.394653	
-0.393677	
-0.392395	
-0.392334	
-0.390259	
-0.391541	
-0.391418	
-0.391418	
-0.39093	
-0.390991	
-0.391052	
-0.392944	
-0.390991	
-0.391174	
-0.390686	
-0.391602	
-0.390686	
-0.390747	
-0.389526	
-0.388367	
-0.38916	
-0.389526	
-0.389465	
-0.391113	
-0.390137	
-0.390808	
-0.390137	
-0.389771	
-0.391052	
-0.390869	
-0.390869	
-0.389343	
-0.39093	
-0.39093	
-0.390564	
-0.391663	
-0.391113	
-0.391541	
-0.390259	
-0.390259	
-0.391479	
-0.391479	
-0.390198	
-0.389771	
-0.390625	
-0.390991	
-0.391174	
-0.39209	
-0.392395	
-0.392517	
-0.391602	
-0.390686	
-0.391907	
-0.391357	
-0.391113	
-0.391174	
-0.390015	
-0.391235	
-0.391602	
-0.392456	
-0.392334	
-0.392578	
-0.392029	
-0.391235	
-0.392029	
-0.391357	
-0.391296	
-0.391846	
-0.391113	
-0.390869	
-0.39093	
-0.39093	
-0.391113	
-0.390503	
-0.390564	
-0.389893	
-0.390869	
-0.389099	
-0.389954	
-0.389343	
-0.389038	
-0.389893	
-0.389099	
-0.388977	
-0.39032	
-0.389404	
-0.388672	
-0.388	
-0.387573	
-0.388062	
-0.388062	
-0.387634	
-0.386597	
-0.388062	
-0.388123	
-0.387512	
-0.388916	
-0.388672	
-0.388306	
-0.386963	
-0.387512	
-0.387573	
-0.388245	
-0.388	
-0.387756	
-0.388611	
-0.390015	
-0.390137	
-0.391052	
-0.390564	
-0.392029	
-0.391296	
-0.390137	
-0.39209	
-0.391418	
-0.391907	
-0.39209	
-0.391968	
-0.392578	
-0.392944	
-0.393555	
-0.393311	
-0.39447	
-0.393127	
-0.392883	
-0.393921	
-0.391785	
-0.392334	
-0.392639	
-0.391724	
-0.392212	
-0.391602	
-0.391602	
-0.392273	
-0.39209	
-0.391602	
-0.391296	
-0.391418	
-0.389343	
-0.390503	
-0.390137	
-0.389099	
-0.389771	
-0.389771	
-0.364868	
-0.361816	
-0.365356	
-0.366821	
-0.36615	
-0.366455	
-0.396301	
-0.394531	
-0.390869	
-0.389709	
-0.388062	
-0.388489	
-0.388184	
-0.387878	
-0.387939	
-0.387573	
-0.385925	
-0.387695	
-0.387939	
-0.386902	
-0.386536	
-0.386536	
-0.386963	
-0.389099	
-0.389893	
-0.388977	
-0.387878	
-0.387451	
-0.38562	
-0.386353	
-0.387024	
-0.388245	
-0.387695	
-0.387451	
-0.386841	
-0.388794	
-0.389282	
-0.388611	
-0.388367	
-0.390442	
-0.388306	
-0.388672	
-0.38855	
-0.388367	
-0.388	
-0.387512	
-0.386108	
-0.38678	
-0.386597	
-0.387146	
-0.387085	
-0.38855	
-0.36261	
-0.362732	
-0.368164	
-0.371338	
-0.374756	
-0.377136	
-0.410706	
-0.411682	
-0.412231	
-0.413574	
-0.417236	
-0.422119	
-0.424194	
-0.430115	
-0.434875	
-0.441223	
-0.445129	
-0.450439	
-0.456543	
-0.462097	
-0.46814	
-0.472168	
-0.477478	
-0.47998	
-0.483154	
-0.485657	
-0.487854	
-0.490234	
-0.491333	
-0.492859	
-0.493408	
-0.4953	
-0.497131	
-0.498169	
-0.500244	
-0.500732	
-0.502625	
-0.503906	
-0.504089	
-0.506348	
-0.507935	
-0.509216	
-0.511353	
-0.514099	
-0.517151	
-0.518188	
-0.520752	
-0.521057	
-0.522034	
-0.522705	
-0.522461	
-0.522339	
-0.522156	
-0.521179	
-0.520508	
-0.519958	
-0.520142	
-0.518066	
-0.517395	
-0.516724	
-0.515503	
-0.515442	
-0.515808	
-0.515625	
-0.515137	
-0.515137	
-0.515259	
-0.51532	
-0.514465	
-0.512939	
-0.512817	
-0.510315	
-0.509521	
-0.508118	
-0.506042	
-0.504761	
-0.502563	
-0.499451	
-0.496887	
-0.4953	
-0.492676	
-0.487732	
-0.485046	
-0.481628	
-0.477722	
-0.47467	
-0.47113	
-0.468506	
-0.464417	
-0.460144	
-0.455505	
-0.451965	
-0.447937	
-0.441467	
-0.436096	
-0.429749	
-0.420837	
-0.414673	
-0.407227	
-0.399353	
-0.391663	
-0.384216	
-0.375122	
-0.367737	
-0.359863	
-0.352051	
-0.34375	
-0.33728	
-0.329102	
-0.322144	
-0.316711	
-0.311279	
-0.306152	
-0.302185	
-0.298462	
-0.296814	
-0.2948	
-0.293518	
-0.292542	
-0.291748	
-0.290039	
-0.289246	
-0.289551	
-0.289734	
-0.290405	
-0.291626	
-0.29187	
-0.295105	
-0.298523	
-0.300232	
-0.303589	
-0.306885	
-0.308472	
-0.312561	
-0.315796	
-0.317749	
-0.320129	
-0.324097	
-0.327209	
-0.333191	
-0.339417	
-0.343994	
-0.349304	
-0.353333	
-0.358032	
-0.363098	
-0.368042	
-0.372803	
-0.378357	
-0.382507	
-0.388062	
-0.393616	
-0.397034	
-0.401184	
-0.405212	
-0.407043	
-0.409485	
-0.414429	
-0.415955	
-0.417114	
-0.416626	
-0.417419	
-0.417786	
-0.418335	
-0.416748	
-0.415833	
-0.414429	
-0.41217	
-0.410156	
-0.409546	
-0.406433	
-0.40625	
-0.403992	
-0.402588	
-0.401123	
-0.399902	
-0.397705	
-0.395752	
-0.393677	
-0.391663	
-0.389526	
-0.387329	
-0.382751	
-0.381653	
-0.37915	
-0.376465	
-0.373535	
-0.372498	
-0.370544	
-0.369507	
-0.367798	
-0.367432	
-0.367249	
-0.366028	
-0.365234	
-0.366394	
-0.365112	
-0.367249	
-0.36853	
-0.368347	
-0.368896	
-0.370667	
-0.369202	
-0.369263	
-0.369629	
-0.368103	
-0.36792	
-0.367004	
-0.365784	
-0.365173	
-0.365295	
-0.362915	
-0.361633	
-0.36145	
-0.35968	
-0.357788	
-0.357544	
-0.355042	
-0.353516	
-0.352295	
-0.350891	
-0.350281	
-0.35083	
-0.349365	
-0.349243	
-0.348694	
-0.34967	
-0.348816	
-0.34906	
-0.348267	
-0.349304	
-0.349609	
-0.350769	
-0.352905	
-0.354065	
-0.355408	
-0.357239	
-0.357849	
-0.360657	
-0.361023	
-0.362	
-0.362122	
-0.362976	
-0.362488	
-0.364014	
-0.364807	
-0.364319	
-0.365051	
-0.365417	
-0.364807	
-0.367188	
-0.366272	
-0.366394	
-0.366333	
-0.366638	
-0.365601	
-0.366821	
-0.36676	
-0.365784	
-0.366394	
-0.36615	
-0.364685	
-0.366577	
-0.365601	
-0.365295	
-0.36499	
-0.365417	
-0.364685	
-0.366089	
-0.366882	
-0.36615	
-0.367004	
-0.367981	
-0.367188	
-0.368713	
-0.369324	
-0.369446	
-0.369873	
-0.370544	
-0.3703	
-0.372314	
-0.373718	
-0.373657	
-0.374329	
-0.375793	
-0.374451	
-0.377014	
-0.377319	
-0.378479	
-0.378235	
-0.378723	
-0.377808	
-0.379395	
-0.38092	
-0.380615	
-0.381409	
-0.381714	
-0.381592	
-0.38269	
-0.381958	
-0.381775	
-0.381897	
-0.381348	
-0.380005	
-0.381348	
-0.382874	
-0.381836	
-0.381836	
-0.381958	
-0.383972	
-0.38562	
-0.384583	
-0.384644	
-0.383484	
-0.383118	
-0.382629	
-0.383789	
-0.384277	
-0.382507	
-0.382507	
-0.381958	
-0.381897	
-0.382385	
-0.381348	
-0.382324	
-0.381287	
-0.381348	
-0.381531	
-0.382019	
-0.38269	
-0.382019	
-0.382568	
-0.382629	
-0.382813	
-0.384155	
-0.382629	
-0.384338	
-0.383423	
-0.383667	
-0.38324	
-0.383606	
-0.38501	
-0.383972	
-0.384583	
-0.384033	
-0.384644	
-0.38501	
-0.384949	
-0.385071	
-0.384338	
-0.384583	
-0.38324	
-0.38446	
-0.385254	
-0.384766	
-0.384949	
-0.38446	
-0.384888	
-0.384155	
-0.385559	
-0.385742	
-0.385193	
-0.385803	
-0.385437	
-0.385986	
-0.386658	
-0.386841	
-0.386292	
-0.386108	
-0.387146	
-0.386353	
-0.387817	
-0.386597	
-0.386353	
-0.386414	
-0.386108	
-0.387573	
-0.386841	
-0.387512	
-0.386963	
-0.386108	
-0.386475	
-0.386841	
-0.387024	
-0.385498	
-0.386292	
-0.384583	
-0.386292	
-0.387451	
-0.386841	
-0.386108	
-0.386047	
-0.387146	
-0.385071	
-0.387573	
-0.38678	
-0.385986	
-0.385437	
-0.385254	
-0.38562	
-0.385986	
-0.386047	
-0.385071	
-0.385437	
-0.386353	
-0.385742	
-0.386169	
-0.385071	
-0.38501	
-0.383484	
-0.383789	
-0.384094	
-0.384583	
-0.384766	
-0.383728	
-0.383911	
-0.384094	
-0.384155	
-0.383606	
-0.383911	
-0.384338	
-0.383728	
-0.383667	
-0.384949	
-0.386047	
-0.385742	
-0.384888	
-0.385498	
-0.385986	
-0.386292	
-0.385437	
-0.385559	
-0.385437	
-0.385559	
-0.385498	
-0.386292	
-0.386963	
-0.387512	
-0.387024	
-0.386536	
-0.386841	
-0.386658	
-0.386414	
-0.386658	
-0.386658	
-0.386292	
-0.386536	
-0.386475	
-0.38739	
-0.388184	
-0.387329	
-0.38739	
-0.387878	
-0.387939	
-0.388062	
-0.388306	
-0.387634	
-0.387329	
-0.387451	
-0.388428	
-0.389343	
-0.390137	
-0.388123	
-0.388428	
-0.388672	
-0.389404	
-0.388794	
-0.388367	
-0.387207	
-0.387878	
-0.388733	
-0.390076	
-0.389343	
-0.387573	
-0.386475	
-0.387024	
-0.387817	
-0.388184	
-0.387207	
-0.386658	
-0.385986	
-0.386597	
-0.385925	
-0.386902	
-0.387329	
-0.387024	
-0.386536	
-0.386597	
-0.386963	
-0.385803	
-0.385681	
-0.384949	
-0.384583	
-0.385437	
-0.385742	
-0.386353	
-0.386169	
-0.385986	
-0.386108	
-0.385803	
-0.387329	
-0.387268	
-0.388306	
-0.386719	
-0.385742	
-0.386292	
-0.38678	
-0.387085	
-0.386719	
-0.386536	
-0.386719	
-0.385803	
-0.386536	
-0.386658	
-0.388184	
-0.386475	
-0.385803	
-0.387207	
-0.388062	
-0.388367	
-0.388611	
-0.387695	
-0.387268	
-0.387512	
-0.388367	
-0.387878	
-0.388184	
-0.387939	
-0.388184	
-0.387573	
-0.388184	
-0.389099	
-0.389221	
-0.388611	
-0.388367	
-0.388489	
-0.388916	
-0.388611	
-0.38855	
-0.387756	
-0.387634	
-0.387756	
-0.388062	
-0.388611	
-0.387817	
-0.387512	
-0.387451	
-0.386841	
-0.387268	
-0.387024	
-0.387085	
-0.386353	
-0.385803	
-0.386658	
-0.386047	
-0.38678	
-0.385742	
-0.385559	
-0.384827	
-0.38501	
-0.386108	
-0.385193	
-0.38562	
-0.385254	
-0.384338	
-0.385376	
-0.385864	
-0.386292	
-0.385925	
-0.38562	
-0.384949	
-0.386047	
-0.386292	
-0.38562	
-0.386475	
-0.386414	
-0.386169	
-0.386597	
-0.387573	
-0.388245	
-0.388672	
-0.389221	
-0.388367	
-0.389709	
-0.390137	
-0.389587	
-0.389648	
-0.389893	
-0.390076	
-0.389893	
-0.390381	
-0.391235	
-0.391113	
-0.391357	
-0.390442	
-0.390747	
-0.391113	
-0.39032	
-0.390442	
-0.389832	
-0.389343	
-0.388916	
-0.389771	
-0.389893	
-0.389526	
-0.389526	
-0.388367	
-0.388794	
-0.389343	
-0.387634	
-0.388489	
-0.387451	
-0.386169	
-0.38623	
-0.387817	
-0.387573	
-0.386902	
-0.387451	
-0.386292	
-0.387268	
-0.388123	
-0.386414	
-0.386597	
-0.385925	
-0.385986	
-0.385071	
-0.386047	
-0.386353	
-0.385864	
-0.385742	
-0.384155	
-0.384888	
-0.385925	
-0.385437	
-0.384949	
-0.385132	
-0.384033	
-0.38623	
-0.38739	
-0.38678	
-0.38623	
-0.384705	
-0.384155	
-0.384521	
-0.385193	
-0.385864	
-0.385498	
-0.384949	
-0.383484	
-0.385803	
-0.386108	
-0.385559	
-0.385559	
-0.386292	
-0.386841	
-0.386047	
-0.387085	
-0.387268	
-0.38678	
-0.386353	
-0.384033	
-0.385986	
-0.386963	
-0.386475	
-0.386353	
-0.385864	
-0.386414	
-0.386292	
-0.386841	
-0.386719	
-0.385132	
-0.386536	
-0.385071	
-0.386108	
-0.387329	
-0.38678	
-0.386414	
-0.38678	
-0.387146	
-0.387634	
-0.387695	
-0.388123	
-0.386353	
-0.38678	
-0.386047	
-0.387329	
-0.389038	
-0.388	
-0.388306	
-0.387756	
-0.388062	
-0.388184	
-0.388	
-0.389343	
-0.387207	
-0.386902	
-0.386841	
-0.387329	
-0.387939	
-0.386475	
-0.387817	
-0.38678	
-0.387451	
-0.388367	
-0.387451	
-0.388916	
-0.38678	
-0.385864	
-0.386047	
-0.387024	
-0.387878	
-0.38739	
-0.387268	
-0.387329	
-0.387817	
-0.388184	
-0.387939	
-0.389404	
-0.387634	
-0.387024	
-0.387451	
-0.387756	
-0.388733	
-0.387817	
-0.387329	
-0.387085	
-0.38678	
-0.388184	
-0.388062	
-0.389099	
-0.387329	
-0.387085	
-0.386841	
-0.387756	
-0.38855	
-0.387329	
-0.387756	
-0.387451	
-0.387573	
-0.388611	
-0.388855	
-0.390198	
-0.388367	
-0.388367	
-0.388062	
-0.388245	
-0.389893	
-0.389099	
-0.388977	
-0.38916	
-0.389038	
-0.389587	
-0.390137	
-0.391541	
-0.389587	
-0.389038	
-0.388	
-0.388184	
-0.389465	
-0.389771	
-0.389221	
-0.389343	
-0.388977	
-0.389221	
-0.39032	
-0.39032	
-0.389343	
-0.388672	
-0.387329	
-0.387207	
-0.38916	
-0.389282	
-0.388428	
-0.388733	
-0.38855	
-0.389893	
-0.390442	
-0.390686	
-0.38916	
-0.38916	
-0.387085	
-0.387878	
-0.389221	
-0.38916	
-0.389465	
-0.389099	
-0.388184	
-0.388794	
-0.389587	
-0.390076	
-0.388	
-0.388062	
-0.386658	
-0.387451	
-0.388489	
-0.387817	
-0.387878	
-0.387634	
-0.386353	
-0.387817	
-0.388245	
-0.388977	
-0.386719	
-0.386292	
-0.385254	
-0.385071	
-0.388123	
-0.388794	
-0.389709	
-0.389221	
-0.388611	
-0.389771	
-0.389709	
-0.390198	
-0.390198	
-0.389343	
-0.388367	
-0.38678	
-0.389771	
-0.389709	
-0.390076	
-0.389526	
-0.388977	
-0.389893	
-0.391479	
-0.392395	
-0.391968	
-0.390808	
-0.39032	
-0.388794	
-0.39032	
-0.389893	
-0.39032	
-0.389282	
-0.388123	
-0.389404	
-0.389893	
-0.390808	
-0.391357	
-0.389465	
-0.389221	
-0.388062	
-0.389893	
-0.389404	
-0.389465	
-0.389526	
-0.388794	
-0.389893	
-0.389709	
-0.390076	
-0.390686	
-0.388794	
-0.388428	
-0.387939	
-0.388184	
-0.388794	
-0.388428	
-0.388855	
-0.387634	
-0.389038	
-0.389587	
-0.389526	
-0.39032	
-0.389465	
-0.388428	
-0.387817	
-0.388184	
-0.389099	
-0.388672	
-0.388855	
-0.388367	
-0.388916	
-0.389282	
-0.39032	
-0.390503	
-0.390381	
-0.389282	
-0.388794	
-0.389282	
-0.390686	
-0.390198	
-0.390442	
-0.390015	
-0.391602	
-0.390686	
-0.391479	
-0.392944	
-0.391663	
-0.391052	
-0.390625	
-0.391785	
-0.392395	
-0.392822	
-0.393005	
-0.392273	
-0.392517	
-0.392395	
-0.393494	
-0.393372	
-0.393127	
-0.392456	
-0.391296	
-0.391479	
-0.391907	
-0.392212	
-0.392151	
-0.39209	
-0.392151	
-0.391541	
-0.391479	
-0.391968	
-0.390564	
-0.389587	
-0.388245	
-0.387817	
-0.389038	
-0.388916	
-0.388	
-0.387634	
-0.387695	
-0.387451	
-0.387329	
-0.387695	
-0.387695	
-0.38739	
-0.385925	
-0.385254	
-0.387451	
-0.387085	
-0.386841	
-0.387207	
-0.386963	
-0.387634	
-0.387512	
-0.388306	
-0.388916	
-0.389099	
-0.387207	
-0.38678	
-0.389771	
-0.388733	
-0.389771	
-0.389282	
-0.389587	
-0.389954	
-0.390381	
-0.391357	
-0.391479	
-0.391296	
-0.390564	
-0.391113	
-0.391785	
-0.390564	
-0.392151	
-0.392029	
-0.391907	
-0.392029	
-0.392639	
-0.393066	
-0.394165	
-0.393188	
-0.392944	
-0.392761	
-0.393005	
-0.392578	
-0.393188	
-0.393066	
-0.393616	
-0.393433	
-0.392578	
-0.391846	
-0.393311	
-0.391785	
-0.392517	
-0.391846	
-0.393188	
-0.394104	
-0.393738	
-0.393494	
-0.392761	
-0.393433	
-0.392517	
-0.3927	
-0.39325	
-0.393005	
-0.393127	
-0.392212	
-0.391418	
-0.391479	
-0.392212	
-0.391846	
-0.390625	
-0.391602	
-0.391724	
-0.393127	
-0.392456	
-0.391663	
-0.391907	
-0.392395	
-0.391113	
-0.391602	
-0.390808	
-0.391541	
-0.391479	
-0.391785	
-0.392334	
-0.392761	
-0.392456	
-0.391846	
-0.391235	
-0.390991	
-0.390808	
-0.391602	
-0.390381	
-0.391052	
-0.390198	
-0.390747	
-0.390808	
-0.392029	
-0.392029	
-0.390381	
-0.39032	
-0.390808	
-0.389587	
-0.39032	
-0.389893	
-0.39093	
-0.390198	
-0.390808	
-0.391296	
-0.391968	
-0.391724	
-0.391968	
-0.391296	
-0.391235	
-0.390808	
-0.391785	
-0.39093	
-0.391052	
-0.391052	
-0.391235	
-0.391602	
-0.39209	
-0.391113	
-0.392151	
-0.391235	
-0.390686	
-0.390686	
-0.390991	
-0.39032	
-0.390503	
-0.39032	
-0.390442	
-0.390869	
-0.391052	
-0.390991	
-0.392334	
-0.391052	
-0.390686	
-0.390747	
-0.391541	
-0.390747	
-0.39032	
-0.390625	
-0.390747	
-0.390381	
-0.39032	
-0.390869	
-0.391724	
-0.390869	
-0.390381	
-0.390808	
-0.390686	
-0.390625	
-0.389221	
-0.389832	
-0.389954	
-0.389465	
-0.388977	
-0.389832	
-0.389771	
-0.388245	
-0.387878	
-0.38916	
-0.388245	
-0.388733	
-0.388428	
-0.388306	
-0.388245	
-0.388672	
-0.388977	
-0.388672	
-0.389038	
-0.388916	
-0.388794	
-0.389587	
-0.387634	
-0.389221	
-0.389221	
-0.388367	
-0.389038	
-0.389465	
-0.389587	
-0.389709	
-0.389648	
-0.389648	
-0.389343	
-0.389343	
-0.389221	
-0.388977	
-0.388794	
-0.387817	
-0.387695	
-0.388733	
-0.389465	
-0.390686	
-0.390625	
-0.390991	
-0.389893	
-0.389771	
-0.389771	
-0.389832	
-0.39093	
-0.389648	
-0.389648	
-0.390259	
-0.391052	
-0.391907	
-0.391296	
-0.391479	
-0.390808	
-0.390381	
-0.391235	
-0.390503	
-0.390564	
-0.389465	
-0.391113	
-0.391968	
-0.392151	
-0.390503	
-0.389282	
-0.390259	
-0.388733	
-0.388184	
-0.389282	
-0.388428	
-0.389099	
-0.388489	
-0.389282	
-0.388794	
-0.388977	
-0.388672	
-0.388245	
-0.389099	
-0.388367	
-0.386597	
-0.387512	
-0.385437	
-0.386902	
-0.387207	
-0.386475	
-0.387756	
-0.388123	
-0.38855	
-0.388062	
-0.388977	
-0.388306	
-0.388	
-0.388977	
-0.38739	
-0.388245	
-0.387817	
-0.387329	
-0.388428	
-0.387878	
-0.388672	
-0.38855	
-0.388977	
-0.388794	
-0.387817	
-0.388428	
-0.388367	
-0.388611	
-0.388489	
-0.387634	
-0.389221	
-0.388977	
-0.389648	
-0.388855	
-0.389709	
-0.389954	
-0.389099	
-0.389038	
-0.389465	
-0.389282	
-0.388916	
-0.38855	
-0.390076	
-0.389404	
-0.389771	
-0.390442	
-0.390198	
-0.391357	
-0.389221	
-0.388733	
-0.390259	
-0.388672	
-0.388672	
-0.387939	
-0.388428	
-0.388245	
-0.387878	
-0.389099	
-0.387878	
-0.388733	
-0.387573	
-0.387207	
-0.387817	
-0.386292	
-0.387329	
-0.38623	
-0.384583	
-0.386719	
-0.385681	
-0.38623	
-0.385193	
-0.386475	
-0.385071	
-0.38501	
-0.385742	
-0.384155	
-0.38562	
-0.385559	
-0.383728	
-0.385559	
-0.385376	
-0.385376	
-0.385437	
-0.386353	
-0.38562	
-0.385315	
-0.387207	
-0.385986	
-0.387451	
-0.387939	
-0.38739	
-0.388306	
-0.388611	
-0.389404	
-0.389282	
-0.390137	
-0.389771	
-0.388977	
-0.390381	
-0.389954	
-0.390808	
-0.390991	
-0.390015	
-0.391663	
-0.391357	
-0.391602	
-0.390747	
-0.391357	
-0.391541	
-0.389404	
-0.390503	
-0.390198	
-0.389771	
-0.39032	
-0.388489	
-0.389648	
-0.389099	
-0.389343	
-0.38916	
-0.388855	
-0.389221	
-0.388	
-0.388184	
-0.387451	
-0.387817	
-0.388	
-0.386292	
-0.385559	
-0.386841	
-0.387512	
-0.387939	
-0.387146	
-0.387878	
-0.38623	
-0.386108	
-0.386597	
-0.386292	
-0.385681	
-0.385559	
-0.385254	
-0.385559	
-0.384888	
-0.385559	
-0.385376	
-0.386536	
-0.384888	
-0.38501	
-0.38501	
-0.385803	
-0.386353	
-0.386169	
-0.386353	
-0.385742	
-0.384949	
-0.385254	
-0.384216	
-0.385925	
-0.384827	
-0.38446	
-0.384827	
-0.384888	
-0.38562	
-0.385681	
-0.385803	
-0.385681	
-0.38623	
-0.386475	
-0.385925	
-0.388	
-0.386414	
-0.385132	
-0.38562	
-0.385925	
-0.385742	
-0.385559	
-0.385681	
-0.385315	
-0.386108	
-0.386108	
-0.385986	
-0.387024	
-0.386414	
-0.385864	
-0.386597	
-0.384949	
-0.386292	
-0.386353	
-0.386047	
-0.385559	
-0.386414	
-0.387085	
-0.387268	
-0.387695	
-0.386963	
-0.386597	
-0.387207	
-0.386414	
-0.387634	
-0.38739	
-0.388184	
-0.387878	
-0.387695	
-0.387695	
-0.388062	
-0.388428	
-0.386841	
-0.387085	
-0.38739	
-0.386292	
-0.387451	
-0.386841	
-0.386902	
-0.386475	
-0.387207	
-0.387573	
-0.388123	
-0.387756	
-0.387573	
-0.386963	
-0.387451	
-0.386597	
-0.387451	
-0.386719	
-0.38739	
-0.387146	
-0.387329	
-0.388062	
-0.388489	
-0.388184	
-0.388489	
-0.387817	
-0.387634	
-0.387024	
-0.388184	
-0.387512	
-0.387756	
-0.386963	
-0.386292	
-0.387024	
-0.387878	
-0.387878	
-0.388367	
-0.388	
-0.387756	
-0.386658	
-0.388367	
-0.388367	
-0.388062	
-0.387817	
-0.387817	
-0.388306	
-0.388428	
-0.388672	
-0.38916	
-0.388855	
-0.388855	
-0.387878	
-0.388489	
-0.390137	
-0.389221	
-0.389648	
-0.390381	
-0.389648	
-0.390015	
-0.389709	
-0.390076	
-0.389282	
-0.389282	
-0.388489	
-0.388428	
-0.389893	
-0.387939	
-0.389526	
-0.389587	
-0.388611	
-0.389709	
-0.389954	
-0.389404	
-0.389038	
-0.389038	
-0.38855	
-0.388428	
-0.389221	
-0.388367	
-0.389648	
-0.389954	
-0.38916	
-0.389954	
-0.389954	
-0.389587	
-0.390381	
-0.389954	
-0.38916	
-0.388611	
-0.389832	
-0.389221	
-0.389648	
-0.389099	
-0.388733	
-0.389099	
-0.390137	
-0.389526	
-0.389038	
-0.388672	
-0.388916	
-0.388123	
-0.388245	
-0.388855	
-0.388428	
-0.388	
-0.387634	
-0.388123	
-0.389832	
-0.387695	
-0.38678	
-0.386719	
-0.387817	
-0.387268	
-0.388062	
-0.389954	
-0.390015	
-0.390442	
-0.390564	
-0.389954	
-0.391052	
-0.391113	
-0.390869	
-0.389709	
-0.390442	
-0.389587	
-0.390442	
-0.390564	
-0.390137	
-0.390442	
-0.390137	
-0.390381	
-0.3927	
-0.393188	
-0.392334	
-0.390991	
-0.391174	
-0.39032	
-0.390625	
-0.390198	
-0.390686	
-0.389771	
-0.390076	
-0.390015	
-0.390808	
-0.391418	
-0.391418	
-0.390076	
-0.389771	
-0.389587	
-0.390076	
-0.390442	
-0.391174	
-0.390259	
-0.389771	
-0.390259	
-0.390686	
-0.39032	
-0.390076	
-0.389954	
-0.389709	
-0.387939	
-0.388245	
-0.389709	
-0.390259	
-0.389465	
-0.389709	
-0.389465	
-0.389954	
-0.390381	
-0.390259	
-0.389709	
-0.389587	
-0.388367	
-0.388794	
-0.389465	
-0.389709	
-0.389832	
-0.389404	
-0.389832	
-0.389038	
-0.390625	
-0.390869	
-0.390747	
-0.390747	
-0.390564	
-0.390808	
-0.390869	
-0.390991	
-0.391602	
-0.391541	
-0.392273	
-0.390869	
-0.393188	
-0.392944	
-0.393616	
-0.392639	
-0.393066	
-0.393494	
-0.393677	
-0.393127	
-0.39386	
-0.393677	
-0.393188	
-0.39325	
-0.394226	
-0.39386	
-0.393799	
-0.393372	
-0.393311	
-0.393433	
-0.393799	
-0.392883	
-0.393799	
-0.39325	
-0.392883	
-0.392029	
-0.3927	
-0.392273	
-0.390686	
-0.390381	
-0.388916	
-0.388916	
-0.388489	
-0.389099	
-0.390259	
-0.389465	
-0.389221	
-0.388611	
-0.388855	
-0.389038	
-0.388	
-0.388062	
-0.38739	
-0.38678	
-0.387146	
-0.387817	
-0.388733	
-0.388367	
-0.388672	
-0.388489	
-0.388611	
-0.389465	
-0.389771	
-0.389771	
-0.38916	
-0.388916	
-0.389832	
-0.39032	
-0.390808	
-0.390503	
-0.39093	
-0.391541	
-0.390869	
-0.391663	
-0.3927	
-0.392578	
-0.393005	
-0.393005	
-0.392212	
-0.392578	
-0.392639	
-0.393799	
-0.39325	
-0.393555	
-0.393799	
-0.39447	
-0.394348	
-0.394836	
-0.394653	
-0.394531	
-0.394409	
-0.394531	
-0.394104	
-0.395691	
-0.39447	
-0.393982	
-0.393005	
-0.394104	
-0.394287	
-0.394836	
-0.39386	
-0.394165	
-0.39386	
-0.395325	
-0.395081	
-0.396484	
-0.394714	
-0.394348	
-0.39386	
-0.394775	
-0.394409	
-0.394592	
-0.393677	
-0.394531	
-0.393372	
-0.392334	
-0.392639	
-0.39386	
-0.392883	
-0.392883	
-0.393311	
-0.393127	
-0.393372	
-0.394592	
-0.393555	
-0.394104	
-0.3927	
-0.392944	
-0.393555	
-0.392639	
-0.392456	
-0.393311	
-0.393433	
-0.392761	
-0.393127	
-0.393982	
-0.392822	
-0.391663	
-0.3927	
-0.39209	
-0.392822	
-0.391907	
-0.392883	
-0.392395	
-0.391968	
-0.392273	
-0.392273	
-0.392761	
-0.392395	
-0.391357	
-0.391846	
-0.391418	
-0.392029	
-0.391418	
-0.393433	
-0.3927	
-0.3927	
-0.392944	
-0.393433	
-0.393127	
-0.393494	
-0.392212	
-0.391907	
-0.391602	
-0.393494	
-0.392273	
-0.393982	
-0.392883	
-0.392822	
-0.392517	
-0.392212	
-0.392822	
-0.393066	
-0.392273	
-0.392517	
-0.391418	
-0.391541	
-0.391785	
-0.392761	
-0.391968	
-0.392273	
-0.391907	
-0.391846	
-0.392273	
-0.393311	
-0.392273	
-0.393188	
-0.391968	
-0.391418	
-0.392517	
-0.392334	
-0.391907	
-0.391541	
-0.391724	
-0.39209	
-0.39209	
-0.392578	
-0.391907	
-0.392395	
-0.391235	
-0.390869	
-0.390808	
-0.39093	
-0.391418	
-0.390381	
-0.390991	
-0.390991	
-0.390747	
-0.390686	
-0.390808	
-0.390808	
	
