C:\DOCUMENTS AND SETTINGS\JASON\DESKTOP\UFRJ\UFRJ EPHYS\RSCI-BM 12 WK SERIES\070803-RSCI-BM-11\RSCI-BM-11-LEMG\070803-RSCI-BM-11-LEMG-0019.ACQ
0.025000 msec/sample
1 channel
Analog input
Volts
CH1	
2000	
-0.391663	
-0.392273	
-0.392761	
-0.392639	
-0.392639	
-0.392944	
-0.392639	
-0.392639	
-0.394287	
-0.393555	
-0.393738	
-0.393677	
-0.39447	
-0.394592	
-0.395996	
-0.395569	
-0.395386	
-0.394836	
-0.395203	
-0.396423	
-0.398315	
-0.397705	
-0.397766	
-0.396606	
-0.396729	
-0.395996	
-0.397278	
-0.396667	
-0.396118	
-0.395386	
-0.395691	
-0.395752	
-0.395874	
-0.394592	
-0.394836	
-0.393433	
-0.393616	
-0.392883	
-0.393921	
-0.393005	
-0.392517	
-0.392029	
-0.391113	
-0.391418	
-0.391846	
-0.391357	
-0.391296	
-0.390198	
-0.389954	
-0.389343	
-0.39093	
-0.39032	
-0.390015	
-0.389343	
-0.389954	
-0.390503	
-0.390808	
-0.390137	
-0.390625	
-0.389099	
-0.389709	
-0.38916	
-0.390869	
-0.390991	
-0.390381	
-0.390503	
-0.390869	
-0.391296	
-0.391785	
-0.391785	
-0.391724	
-0.390198	
-0.392273	
-0.391663	
-0.393005	
-0.394653	
-0.393494	
-0.393799	
-0.394409	
-0.395142	
-0.394775	
-0.395325	
-0.395569	
-0.394287	
-0.395813	
-0.395386	
-0.396423	
-0.397461	
-0.396606	
-0.39624	
-0.396606	
-0.397156	
-0.397156	
-0.397034	
-0.395935	
-0.39624	
-0.396179	
-0.394592	
-0.395569	
-0.395691	
-0.394409	
-0.393555	
-0.393921	
-0.394409	
-0.39325	
-0.393005	
-0.391174	
-0.391296	
-0.390137	
-0.388733	
-0.389221	
-0.390015	
-0.388977	
-0.387329	
-0.388	
-0.388977	
-0.38739	
-0.387878	
-0.386353	
-0.386414	
-0.386169	
-0.385559	
-0.386169	
-0.386963	
-0.385559	
-0.384583	
-0.385437	
-0.386841	
-0.385681	
-0.385376	
-0.384949	
-0.385498	
-0.385742	
-0.385498	
-0.385986	
-0.386475	
-0.385742	
-0.385254	
-0.385864	
-0.387756	
-0.385864	
-0.386475	
-0.385376	
-0.385071	
-0.387573	
-0.387512	
-0.388306	
-0.388245	
-0.388062	
-0.388	
-0.38916	
-0.390381	
-0.389343	
-0.390686	
-0.389648	
-0.389465	
-0.391235	
-0.391846	
-0.391663	
-0.391663	
-0.391663	
-0.390991	
-0.391907	
-0.39325	
-0.392456	
-0.393433	
-0.392456	
-0.392212	
-0.394165	
-0.395386	
-0.394714	
-0.394897	
-0.393494	
-0.392578	
-0.393799	
-0.394165	
-0.393372	
-0.393311	
-0.392273	
-0.391174	
-0.392456	
-0.392822	
-0.392578	
-0.392395	
-0.392151	
-0.391235	
-0.391663	
-0.392883	
-0.391113	
-0.391541	
-0.390747	
-0.389893	
-0.390869	
-0.390747	
-0.390198	
-0.390198	
-0.389709	
-0.364136	
-0.358704	
-0.364502	
-0.364075	
-0.364258	
-0.364746	
-0.395874	
-0.394165	
-0.391602	
-0.389832	
-0.387756	
-0.387207	
-0.387146	
-0.387085	
-0.387085	
-0.387634	
-0.387573	
-0.385925	
-0.387451	
-0.387573	
-0.388916	
-0.388611	
-0.388733	
-0.389038	
-0.389038	
-0.389954	
-0.389771	
-0.390259	
-0.389832	
-0.389526	
-0.390991	
-0.391113	
-0.393127	
-0.392517	
-0.393066	
-0.393005	
-0.393311	
-0.394104	
-0.394226	
-0.394287	
-0.367615	
-0.36377	
-0.368408	
-0.368774	
-0.370483	
-0.36969	
-0.402283	
-0.398987	
-0.394714	
-0.39563	
-0.394531	
-0.395447	
-0.395569	
-0.397339	
-0.399292	
-0.400757	
-0.403564	
-0.404358	
-0.406372	
-0.408752	
-0.411804	
-0.413696	
-0.418335	
-0.422485	
-0.42572	
-0.430664	
-0.436279	
-0.442566	
-0.447693	
-0.452637	
-0.457581	
-0.461121	
-0.468262	
-0.472351	
-0.477112	
-0.479614	
-0.483765	
-0.486511	
-0.488403	
-0.491455	
-0.493408	
-0.494019	
-0.495728	
-0.497742	
-0.500244	
-0.501038	
-0.504333	
-0.504456	
-0.506592	
-0.507813	
-0.509766	
-0.512695	
-0.514038	
-0.515747	
-0.517212	
-0.520142	
-0.521851	
-0.523193	
-0.525024	
-0.524231	
-0.526306	
-0.525635	
-0.526978	
-0.527283	
-0.527161	
-0.526184	
-0.525452	
-0.525757	
-0.524719	
-0.524719	
-0.523254	
-0.52124	
-0.522949	
-0.5224	
-0.522766	
-0.522827	
-0.522827	
-0.522461	
-0.521484	
-0.521606	
-0.520203	
-0.51947	
-0.517273	
-0.51709	
-0.515686	
-0.513306	
-0.510803	
-0.507263	
-0.503723	
-0.500793	
-0.496399	
-0.495056	
-0.490417	
-0.487122	
-0.482849	
-0.479919	
-0.476135	
-0.473755	
-0.469849	
-0.466003	
-0.460754	
-0.45636	
-0.449951	
-0.447571	
-0.440552	
-0.434143	
-0.427185	
-0.421265	
-0.412781	
-0.405579	
-0.3974	
-0.389587	
-0.379822	
-0.370972	
-0.360046	
-0.35321	
-0.344788	
-0.336914	
-0.329102	
-0.32135	
-0.314453	
-0.309631	
-0.304504	
-0.299561	
-0.294373	
-0.290955	
-0.287231	
-0.287842	
-0.285156	
-0.283081	
-0.281921	
-0.281494	
-0.28186	
-0.28241	
-0.283691	
-0.285278	
-0.286499	
-0.288269	
-0.292297	
-0.295044	
-0.297913	
-0.30127	
-0.305176	
-0.309387	
-0.313904	
-0.318848	
-0.323608	
-0.326538	
-0.330139	
-0.333435	
-0.339172	
-0.34259	
-0.345642	
-0.348755	
-0.353271	
-0.357666	
-0.362427	
-0.367432	
-0.371399	
-0.37561	
-0.378357	
-0.382019	
-0.38678	
-0.388245	
-0.389832	
-0.39325	
-0.39563	
-0.397095	
-0.39917	
-0.399048	
-0.398682	
-0.398438	
-0.39856	
-0.397888	
-0.395813	
-0.394592	
-0.393433	
-0.389893	
-0.389587	
-0.38739	
-0.386963	
-0.38324	
-0.381287	
-0.379211	
-0.377686	
-0.376709	
-0.373535	
-0.371399	
-0.369446	
-0.369202	
-0.367676	
-0.366394	
-0.364929	
-0.362854	
-0.361938	
-0.360168	
-0.361267	
-0.359131	
-0.358215	
-0.358643	
-0.358337	
-0.359497	
-0.36084	
-0.363281	
-0.363342	
-0.365356	
-0.366638	
-0.367737	
-0.371033	
-0.371094	
-0.373047	
-0.374023	
-0.377197	
-0.378296	
-0.3797	
-0.381775	
-0.381897	
-0.383179	
-0.383179	
-0.385498	
-0.384949	
-0.383911	
-0.384644	
-0.384094	
-0.385681	
-0.385681	
-0.385925	
-0.385132	
-0.385193	
-0.38562	
-0.384705	
-0.385376	
-0.384399	
-0.383423	
-0.383423	
-0.383118	
-0.383911	
-0.385437	
-0.387817	
-0.386719	
-0.387207	
-0.387451	
-0.387634	
-0.387817	
-0.387756	
-0.388062	
-0.387695	
-0.388123	
-0.388367	
-0.389343	
-0.38855	
-0.388489	
-0.388611	
-0.387024	
-0.388367	
-0.387817	
-0.386414	
-0.386597	
-0.386108	
-0.386108	
-0.384888	
-0.386292	
-0.384094	
-0.383057	
-0.381836	
-0.38031	
-0.380798	
-0.3797	
-0.378174	
-0.378662	
-0.37738	
-0.377075	
-0.377136	
-0.376343	
-0.375916	
-0.375732	
-0.373718	
-0.374695	
-0.373962	
-0.372559	
-0.37384	
-0.373291	
-0.373047	
-0.373535	
-0.373901	
-0.373047	
-0.373291	
-0.373352	
-0.371826	
-0.373474	
-0.372925	
-0.372681	
-0.373047	
-0.372498	
-0.373657	
-0.373291	
-0.374634	
-0.37384	
-0.373901	
-0.375488	
-0.374573	
-0.375366	
-0.374207	
-0.37439	
-0.374512	
-0.375977	
-0.377258	
-0.377258	
-0.378052	
-0.376648	
-0.376038	
-0.376221	
-0.376465	
-0.376953	
-0.375183	
-0.374329	
-0.375916	
-0.375305	
-0.375549	
-0.375488	
-0.376038	
-0.375793	
-0.375244	
-0.375305	
-0.375305	
-0.374023	
-0.372559	
-0.373474	
-0.372437	
-0.373352	
-0.372986	
-0.37323	
-0.372803	
-0.372864	
-0.372742	
-0.371155	
-0.373108	
-0.372192	
-0.370972	
-0.372925	
-0.372742	
-0.373535	
-0.374084	
-0.374756	
-0.374695	
-0.375427	
-0.376831	
-0.375732	
-0.377502	
-0.377747	
-0.378113	
-0.3797	
-0.381042	
-0.382141	
-0.382996	
-0.384888	
-0.383911	
-0.384644	
-0.386719	
-0.385193	
-0.385986	
-0.386292	
-0.387695	
-0.387024	
-0.388428	
-0.388916	
-0.389099	
-0.391663	
-0.389526	
-0.390015	
-0.390808	
-0.390747	
-0.390381	
-0.389282	
-0.390381	
-0.389343	
-0.390625	
-0.390747	
-0.390747	
-0.39093	
-0.390137	
-0.390686	
-0.389038	
-0.390625	
-0.389954	
-0.388306	
-0.389221	
-0.388916	
-0.38916	
-0.38855	
-0.388489	
-0.387573	
-0.387024	
-0.388123	
-0.38446	
-0.385864	
-0.385071	
-0.385071	
-0.384521	
-0.384644	
-0.384216	
-0.383423	
-0.385071	
-0.382996	
-0.382874	
-0.381958	
-0.382568	
-0.381348	
-0.380188	
-0.381531	
-0.381836	
-0.381958	
-0.382446	
-0.382568	
-0.382996	
-0.381348	
-0.382446	
-0.380371	
-0.382568	
-0.38208	
-0.383423	
-0.382507	
-0.384399	
-0.384399	
-0.384827	
-0.385559	
-0.385681	
-0.386597	
-0.387146	
-0.38501	
-0.386414	
-0.385681	
-0.386719	
-0.387329	
-0.386963	
-0.387573	
-0.387695	
-0.389282	
-0.388306	
-0.388611	
-0.388367	
-0.38916	
-0.388977	
-0.387756	
-0.389038	
-0.389954	
-0.389893	
-0.39032	
-0.390259	
-0.392639	
-0.3927	
-0.393311	
-0.391663	
-0.392029	
-0.391479	
-0.390869	
-0.390137	
-0.391479	
-0.391541	
-0.390808	
-0.390991	
-0.391418	
-0.390686	
-0.390808	
-0.388123	
-0.389099	
-0.388367	
-0.387207	
-0.387878	
-0.38855	
-0.387207	
-0.387146	
-0.387756	
-0.387268	
-0.386963	
-0.386475	
-0.386047	
-0.386047	
-0.384644	
-0.385132	
-0.385742	
-0.386353	
-0.38562	
-0.385803	
-0.387451	
-0.385864	
-0.386353	
-0.38562	
-0.385681	
-0.386475	
-0.385132	
-0.384949	
-0.386414	
-0.38623	
-0.386353	
-0.387573	
-0.387329	
-0.387146	
-0.387939	
-0.387939	
-0.387573	
-0.387817	
-0.387817	
-0.388977	
-0.389282	
-0.389526	
-0.390503	
-0.390991	
-0.390442	
-0.391296	
-0.391479	
-0.390381	
-0.391968	
-0.390808	
-0.390747	
-0.392578	
-0.393066	
-0.392639	
-0.393127	
-0.394409	
-0.393066	
-0.393372	
-0.393188	
-0.393127	
-0.392273	
-0.391602	
-0.390808	
-0.39209	
-0.391663	
-0.391968	
-0.391907	
-0.391418	
-0.390503	
-0.39032	
-0.389832	
-0.387878	
-0.387512	
-0.386475	
-0.386292	
-0.385864	
-0.384827	
-0.385193	
-0.385193	
-0.384399	
-0.384094	
-0.384338	
-0.383606	
-0.383057	
-0.382446	
-0.381714	
-0.383301	
-0.382446	
-0.382385	
-0.382324	
-0.383301	
-0.382385	
-0.382813	
-0.383118	
-0.38092	
-0.38208	
-0.381165	
-0.381226	
-0.382996	
-0.382446	
-0.382813	
-0.383362	
-0.384949	
-0.383728	
-0.384216	
-0.38446	
-0.381653	
-0.381714	
-0.382568	
-0.383545	
-0.384583	
-0.384888	
-0.38501	
-0.38562	
-0.387695	
-0.386047	
-0.387939	
-0.387146	
-0.387024	
-0.386536	
-0.385986	
-0.387756	
-0.388062	
-0.388611	
-0.38855	
-0.388977	
-0.390137	
-0.389526	
-0.391235	
-0.388489	
-0.389709	
-0.389404	
-0.388794	
-0.389832	
-0.391113	
-0.391907	
-0.392273	
-0.392151	
-0.392029	
-0.391602	
-0.391052	
-0.388977	
-0.389709	
-0.388611	
-0.38855	
-0.389282	
-0.389343	
-0.389038	
-0.389771	
-0.389771	
-0.390381	
-0.390686	
-0.389587	
-0.38855	
-0.388123	
-0.387939	
-0.387939	
-0.387634	
-0.387756	
-0.388306	
-0.387634	
-0.387634	
-0.387695	
-0.387878	
-0.386963	
-0.385742	
-0.386047	
-0.385925	
-0.385925	
-0.386108	
-0.385559	
-0.386108	
-0.385986	
-0.385193	
-0.384521	
-0.38501	
-0.384033	
-0.383728	
-0.383179	
-0.384216	
-0.384521	
-0.384827	
-0.385742	
-0.385742	
-0.386353	
-0.386597	
-0.386963	
-0.386902	
-0.385681	
-0.385925	
-0.386658	
-0.386719	
-0.388367	
-0.38855	
-0.388977	
-0.389526	
-0.390198	
-0.391113	
-0.391846	
-0.390686	
-0.390808	
-0.389771	
-0.391479	
-0.390686	
-0.39209	
-0.392212	
-0.3927	
-0.392395	
-0.393738	
-0.393738	
-0.393433	
-0.392517	
-0.392212	
-0.391174	
-0.391541	
-0.390686	
-0.391663	
-0.390991	
-0.390015	
-0.389771	
-0.389893	
-0.389709	
-0.388184	
-0.387268	
-0.385193	
-0.384399	
-0.384644	
-0.384583	
-0.384583	
-0.384094	
-0.38385	
-0.384583	
-0.383301	
-0.384094	
-0.38269	
-0.38147	
-0.381653	
-0.380981	
-0.381348	
-0.381165	
-0.380676	
-0.381104	
-0.381165	
-0.381897	
-0.381287	
-0.382629	
-0.380676	
-0.381531	
-0.380371	
-0.379822	
-0.38092	
-0.381714	
-0.381897	
-0.382813	
-0.38324	
-0.383545	
-0.383057	
-0.384399	
-0.384521	
-0.38446	
-0.384338	
-0.384216	
-0.384216	
-0.385864	
-0.386841	
-0.387207	
-0.388	
-0.38855	
-0.389099	
-0.390625	
-0.389404	
-0.389893	
-0.388489	
-0.390625	
-0.390564	
-0.391724	
-0.391968	
-0.391907	
-0.392456	
-0.392151	
-0.392822	
-0.393494	
-0.39209	
-0.392029	
-0.390259	
-0.390991	
-0.392029	
-0.393311	
-0.392883	
-0.391907	
-0.391724	
-0.390991	
-0.391357	
-0.39032	
-0.389221	
-0.389709	
-0.387512	
-0.388245	
-0.388245	
-0.38855	
-0.387878	
-0.387573	
-0.388306	
-0.388367	
-0.388489	
-0.387573	
-0.387451	
-0.386108	
-0.385132	
-0.385559	
-0.38562	
-0.385315	
-0.385193	
-0.385376	
-0.386353	
-0.385132	
-0.385132	
-0.383362	
-0.383057	
-0.381897	
-0.382629	
-0.383606	
-0.383423	
-0.382996	
-0.383789	
-0.384094	
-0.384521	
-0.385132	
-0.385437	
-0.384033	
-0.38446	
-0.38385	
-0.384033	
-0.384583	
-0.386108	
-0.386353	
-0.386658	
-0.386597	
-0.387146	
-0.38855	
-0.38855	
-0.387756	
-0.388489	
-0.388184	
-0.387634	
-0.387573	
-0.389038	
-0.389648	
-0.389893	
-0.389526	
-0.389954	
-0.391357	
-0.390564	
-0.389465	
-0.38916	
-0.389282	
-0.389038	
-0.389221	
-0.389526	
-0.389648	
-0.389709	
-0.389648	
-0.389587	
-0.389709	
-0.389954	
-0.388611	
-0.388245	
-0.387878	
-0.387878	
-0.388794	
-0.387756	
-0.387085	
-0.386841	
-0.386658	
-0.38623	
-0.387085	
-0.385925	
-0.385254	
-0.384888	
-0.383484	
-0.38446	
-0.384277	
-0.384399	
-0.384583	
-0.383057	
-0.384399	
-0.383484	
-0.383667	
-0.383057	
-0.38269	
-0.381775	
-0.381897	
-0.382813	
-0.382813	
-0.383484	
-0.383728	
-0.383545	
-0.384644	
-0.384888	
-0.385254	
-0.385315	
-0.38501	
-0.384094	
-0.38501	
-0.386414	
-0.387634	
-0.387695	
-0.388428	
-0.389526	
-0.390686	
-0.390686	
-0.391296	
-0.391479	
-0.391785	
-0.39093	
-0.391663	
-0.391602	
-0.3927	
-0.393188	
-0.393372	
-0.393494	
-0.393921	
-0.394592	
-0.394653	
-0.394409	
-0.394226	
-0.39325	
-0.393005	
-0.392761	
-0.394348	
-0.39386	
-0.393982	
-0.394348	
-0.394104	
-0.395203	
-0.39502	
-0.393372	
-0.392822	
-0.392578	
-0.391663	
-0.392395	
-0.393433	
-0.39386	
-0.393188	
-0.392578	
-0.390991	
-0.3927	
-0.391907	
-0.389832	
-0.389771	
-0.389587	
-0.38916	
-0.390015	
-0.388794	
-0.388733	
-0.388428	
-0.389099	
-0.388062	
-0.388733	
-0.38855	
-0.387817	
-0.387146	
-0.386353	
-0.386475	
-0.38739	
-0.386475	
-0.385437	
-0.384521	
-0.38623	
-0.385254	
-0.387329	
-0.386719	
-0.387146	
-0.385315	
-0.387207	
-0.38678	
-0.387268	
-0.38739	
-0.387817	
-0.387451	
-0.387817	
-0.388123	
-0.388672	
-0.388672	
-0.388123	
-0.387024	
-0.387878	
-0.387573	
-0.388794	
-0.388611	
-0.388977	
-0.389282	
-0.390808	
-0.390137	
-0.390198	
-0.390747	
-0.390381	
-0.389099	
-0.390503	
-0.38916	
-0.390564	
-0.391113	
-0.391479	
-0.391113	
-0.391724	
-0.393005	
-0.391541	
-0.392395	
-0.392334	
-0.392395	
-0.392944	
-0.392029	
-0.3927	
-0.392456	
-0.392151	
-0.392456	
-0.392029	
-0.392944	
-0.391357	
-0.390991	
-0.390259	
-0.389221	
-0.389526	
-0.390015	
-0.389771	
-0.389526	
-0.389465	
-0.388916	
-0.388306	
-0.388977	
-0.38678	
-0.386841	
-0.386292	
-0.385559	
-0.385193	
-0.386597	
-0.38562	
-0.385498	
-0.385071	
-0.385986	
-0.385193	
-0.385559	
-0.385254	
-0.384888	
-0.384155	
-0.384216	
-0.384094	
-0.385681	
-0.385437	
-0.385681	
-0.386108	
-0.387939	
-0.387817	
-0.388977	
-0.389648	
-0.389832	
-0.389282	
-0.390869	
-0.390991	
-0.392273	
-0.391907	
-0.392761	
-0.393066	
-0.393982	
-0.394104	
-0.394531	
-0.395081	
-0.394653	
-0.394531	
-0.395508	
-0.395996	
-0.396057	
-0.395752	
-0.396057	
-0.396179	
-0.397583	
-0.397278	
-0.396362	
-0.396667	
-0.396057	
-0.395752	
-0.396118	
-0.395081	
-0.396057	
-0.396057	
-0.395203	
-0.395386	
-0.395752	
-0.395752	
-0.394836	
-0.39502	
-0.393311	
-0.393127	
-0.392456	
-0.391541	
-0.391602	
-0.391357	
-0.390808	
-0.390259	
-0.390869	
-0.390625	
-0.389526	
-0.389954	
-0.387939	
-0.387085	
-0.386841	
-0.385193	
-0.386292	
-0.386597	
-0.385986	
-0.385742	
-0.386658	
-0.385864	
-0.385559	
-0.385986	
-0.384644	
-0.384521	
-0.384827	
-0.383606	
-0.384399	
-0.384888	
-0.385437	
-0.386292	
-0.387085	
-0.387512	
-0.387512	
-0.387756	
-0.386597	
-0.387695	
-0.387085	
-0.388367	
-0.38916	
-0.389771	
-0.389282	
-0.389648	
-0.391296	
-0.391113	
-0.390259	
-0.390625	
-0.389893	
-0.391174	
-0.390137	
-0.391479	
-0.391357	
-0.391113	
-0.391541	
-0.392395	
-0.394897	
-0.393005	
-0.392883	
-0.393188	
-0.393066	
-0.394531	
-0.394653	
-0.394836	
-0.394653	
-0.394165	
-0.394104	
-0.394226	
-0.395813	
-0.393921	
-0.394775	
-0.39386	
-0.39209	
-0.392334	
-0.392395	
-0.392395	
-0.39209	
-0.390869	
-0.390991	
-0.39093	
-0.391235	
-0.389587	
-0.390259	
-0.389465	
-0.388184	
-0.389038	
-0.388123	
-0.388672	
-0.387817	
-0.388306	
-0.388184	
-0.388123	
-0.388855	
-0.388245	
-0.387817	
-0.386963	
-0.387024	
-0.387451	
-0.387268	
-0.387512	
-0.387512	
-0.387817	
-0.387878	
-0.388	
-0.388428	
-0.388306	
-0.388245	
-0.387146	
-0.389099	
-0.388733	
-0.388916	
-0.389099	
-0.389709	
-0.389526	
-0.39032	
-0.392151	
-0.391907	
-0.391785	
-0.391602	
-0.390625	
-0.391724	
-0.391235	
-0.392639	
-0.3927	
-0.393005	
-0.394043	
-0.394287	
-0.395325	
-0.395325	
-0.394775	
-0.393799	
-0.393188	
-0.394287	
-0.392883	
-0.394043	
-0.393677	
-0.393311	
-0.393677	
-0.39386	
-0.39502	
-0.394043	
-0.393372	
-0.392151	
-0.391785	
-0.391541	
-0.390747	
-0.389648	
-0.389587	
-0.389832	
-0.388367	
-0.388123	
-0.388733	
-0.387146	
-0.386902	
-0.386353	
-0.385193	
-0.385315	
-0.385498	
-0.384094	
-0.38501	
-0.384766	
-0.384399	
-0.384155	
-0.384399	
-0.383423	
-0.383667	
-0.38385	
-0.382629	
-0.382813	
-0.382385	
-0.383179	
-0.383606	
-0.383118	
-0.38324	
-0.383972	
-0.384521	
-0.383728	
-0.384216	
-0.384094	
-0.383423	
-0.38446	
-0.382996	
-0.383179	
-0.384094	
-0.383423	
-0.384338	
-0.385559	
-0.386475	
-0.386597	
-0.387207	
-0.385681	
-0.386047	
-0.387024	
-0.388062	
-0.387817	
-0.388	
-0.38855	
-0.388245	
-0.390198	
-0.389526	
-0.389832	
-0.389343	
-0.388367	
-0.389526	
-0.389099	
-0.389893	
-0.390564	
-0.390869	
-0.391052	
-0.390808	
-0.393127	
-0.393555	
-0.392395	
-0.391968	
-0.389771	
-0.391052	
-0.390076	
-0.390198	
-0.390686	
-0.390869	
-0.390076	
-0.390991	
-0.390625	
-0.390686	
-0.390015	
-0.390137	
-0.388123	
-0.389893	
-0.388367	
-0.388977	
-0.38855	
-0.388733	
-0.38855	
-0.388855	
-0.388794	
-0.38916	
-0.388245	
-0.387878	
-0.385803	
-0.387756	
-0.386292	
-0.386963	
-0.386719	
-0.386169	
-0.386597	
-0.38678	
-0.386658	
-0.386475	
-0.386963	
-0.384766	
-0.383118	
-0.384155	
-0.384277	
-0.384766	
-0.384827	
-0.385315	
-0.385681	
-0.386169	
-0.387024	
-0.385925	
-0.387268	
-0.38562	
-0.385559	
-0.386597	
-0.386536	
-0.387695	
-0.38855	
-0.388428	
-0.388245	
-0.389709	
-0.391296	
-0.390137	
-0.390503	
-0.390076	
-0.390442	
-0.390442	
-0.390991	
-0.391602	
-0.391602	
-0.392273	
-0.392395	
-0.393127	
-0.394775	
-0.393433	
-0.393982	
-0.393005	
-0.392944	
-0.392151	
-0.39209	
-0.392334	
-0.391968	
-0.391968	
-0.391602	
-0.391968	
-0.392273	
-0.389648	
-0.389648	
-0.387756	
-0.387695	
-0.386536	
-0.385498	
-0.385681	
-0.385925	
-0.385742	
-0.384949	
-0.385315	
-0.385925	
-0.383545	
-0.383301	
-0.38269	
-0.382751	
-0.381348	
-0.381104	
-0.381653	
-0.38208	
-0.381714	
-0.38208	
-0.38208	
-0.382874	
-0.381409	
-0.381531	
-0.380615	
-0.381897	
-0.381104	
-0.381104	
-0.38208	
-0.382568	
-0.38269	
-0.383606	
-0.383057	
-0.383728	
-0.383301	
-0.384705	
-0.382568	
-0.384888	
-0.385132	
-0.385498	
-0.386292	
-0.386292	
-0.386536	
-0.388794	
-0.38916	
-0.388062	
-0.388306	
-0.390198	
-0.388245	
-0.390198	
-0.390076	
-0.391296	
-0.391724	
-0.391785	
-0.392151	
-0.393799	
-0.393555	
-0.392273	
-0.392273	
-0.392944	
-0.391846	
-0.392517	
-0.391907	
-0.391968	
-0.392761	
-0.393188	
-0.393311	
-0.393005	
-0.393433	
-0.391357	
-0.391174	
-0.390686	
-0.388916	
-0.389954	
-0.388733	
-0.388733	
-0.389099	
-0.388855	
-0.389038	
-0.388184	
-0.389465	
-0.388	
-0.387512	
-0.387512	
-0.386841	
-0.387146	
-0.385132	
-0.386475	
-0.386475	
-0.386719	
-0.386536	
-0.385559	
-0.38623	
-0.385132	
-0.385376	
-0.383606	
-0.382507	
-0.383179	
-0.381226	
-0.383911	
-0.384277	
-0.384338	
-0.385376	
-0.384338	
-0.385254	
-0.384399	
-0.38562	
-0.383606	
-0.384644	
-0.385132	
-0.383667	
-0.386169	
-0.386353	
-0.386963	
-0.388	
-0.387329	
-0.38916	
-0.388245	
-0.389038	
-0.387268	
-0.388367	
-0.388733	
-0.388123	
-0.389038	
-0.389709	
-0.390747	
-0.391052	
-0.390503	
-0.391235	
-0.389648	
-0.391296	
-0.389709	
-0.389587	
-0.390198	
-0.389526	
-0.390869	
-0.390137	
-0.390381	
-0.391174	
-0.391174	
-0.390625	
-0.389832	
-0.390747	
-0.389099	
-0.388916	
-0.388977	
-0.388794	
-0.388916	
-0.388855	
-0.388489	
-0.388367	
-0.388855	
-0.388062	
-0.386963	
-0.387146	
-0.386475	
-0.385681	
-0.384705	
-0.385498	
-0.385315	
-0.384949	
-0.385254	
-0.385254	
-0.385498	
-0.384277	
-0.383667	
-0.384583	
-0.383789	
-0.383423	
-0.382813	
-0.383484	
-0.383972	
-0.383911	
-0.384338	
-0.384399	
-0.385681	
-0.384827	
-0.385254	
-0.386108	
-0.385742	
-0.386292	
-0.385437	
-0.387024	
-0.387939	
-0.389038	
-0.389343	
-0.390015	
-0.391113	
-0.390869	
-0.390747	
-0.391418	
-0.391052	
-0.392639	
-0.391846	
-0.393311	
-0.393921	
-0.393982	
-0.393982	
-0.394592	
-0.394897	
-0.394531	
-0.393494	
-0.394409	
-0.393982	
-0.394836	
-0.39386	
-0.39502	
-0.395386	
-0.394897	
-0.395325	
-0.394897	
-0.395386	
-0.395203	
-0.394775	
-0.393311	
-0.393005	
-0.394287	
-0.393127	
-0.393555	
-0.394531	
-0.394836	
-0.394958	
-0.393982	
-0.393433	
-0.392273	
-0.393005	
-0.391541	
-0.390442	
-0.39093	
-0.389465	
-0.390564	
-0.390381	
-0.390686	
-0.390808	
-0.391113	
-0.389954	
-0.389038	
-0.389404	
-0.388123	
-0.388123	
-0.387878	
-0.388	
-0.388428	
-0.387878	
-0.387573	
-0.387146	
-0.387146	
-0.386841	
-0.386841	
-0.387939	
-0.387024	
-0.387146	
-0.386841	
-0.387634	
-0.388611	
-0.388184	
-0.38855	
-0.389648	
-0.389587	
-0.388489	
-0.387878	
-0.389038	
-0.388062	
-0.388977	
-0.388977	
-0.388367	
-0.389404	
-0.389709	
-0.390198	
-0.391174	
-0.390625	
-0.390137	
-0.390686	
-0.391296	
-0.390503	
-0.391113	
-0.390869	
-0.390625	
-0.392151	
-0.391174	
-0.392273	
-0.393127	
-0.392761	
-0.391907	
-0.392334	
-0.392334	
-0.391846	
-0.393921	
-0.393616	
-0.393188	
-0.394165	
-0.393494	
-0.393982	
-0.394287	
-0.393494	
-0.3927	
-0.392334	
-0.391296	
-0.390991	
-0.391968	
-0.39032	
-0.389771	
-0.390747	
-0.391174	
-0.390442	
-0.389954	
-0.389832	
-0.38916	
-0.387756	
-0.38739	
-0.387512	
-0.38739	
-0.386658	
-0.386108	
-0.386658	
-0.386719	
-0.387329	
-0.386719	
-0.386292	
-0.385864	
-0.385437	
-0.385193	
-0.385742	
-0.385864	
-0.385681	
-0.38623	
-0.386353	
-0.387329	
-0.387512	
-0.387939	
-0.388489	
-0.388367	
-0.389954	
-0.389282	
-0.390747	
-0.391541	
-0.391785	
-0.392029	
-0.393066	
-0.394104	
-0.394531	
-0.394714	
-0.394958	
-0.394775	
-0.395813	
-0.394836	
-0.395996	
-0.396423	
-0.396423	
-0.396912	
-0.397339	
-0.397461	
-0.398315	
-0.397949	
-0.397766	
-0.397095	
-0.397583	
-0.396118	
-0.397583	
-0.39679	
-0.396667	
-0.396729	
-0.396851	
-0.396729	
-0.3974	
-0.397461	
-0.395935	
-0.395691	
-0.396545	
-0.394531	
-0.39447	
-0.393921	
-0.393738	
-0.393982	
-0.392944	
-0.392456	
-0.392822	
-0.392151	
-0.390686	
-0.389648	
-0.39093	
-0.390503	
-0.38916	
-0.388184	
-0.388184	
-0.387939	
-0.387329	
-0.387146	
-0.387695	
-0.388611	
-0.38678	
-0.385986	
-0.387207	
-0.386536	
-0.386658	
-0.386292	
-0.38501	
-0.385803	
-0.385925	
-0.386414	
-0.386414	
-0.388123	
-0.387634	
-0.38739	
-0.389038	
-0.388245	
-0.388489	
-0.388916	
-0.388489	
-0.389526	
-0.389526	
	
