C:\DOCUMENTS AND SETTINGS\JASON\DESKTOP\UFRJ\UFRJ EPHYS\RSCI-BM 12 WK SERIES\070803-RSCI-BM-11\RSCI-BM-11-LEMG\070803-RSCI-BM-11-LEMG-0014.ACQ
0.025000 msec/sample
1 channel
Analog input
Volts
CH1	
2000	
-0.390686	
-0.389893	
-0.390137	
-0.39032	
-0.391724	
-0.390808	
-0.390625	
-0.391296	
-0.390442	
-0.391785	
-0.392151	
-0.391602	
-0.392456	
-0.391663	
-0.392578	
-0.392761	
-0.393433	
-0.392578	
-0.392395	
-0.392151	
-0.391846	
-0.393188	
-0.394226	
-0.393372	
-0.394287	
-0.393494	
-0.394287	
-0.395813	
-0.395752	
-0.394714	
-0.393799	
-0.392944	
-0.392456	
-0.393616	
-0.393738	
-0.392334	
-0.393677	
-0.391846	
-0.391541	
-0.392334	
-0.392456	
-0.391357	
-0.390137	
-0.390686	
-0.389221	
-0.390625	
-0.391541	
-0.390259	
-0.391357	
-0.390015	
-0.390808	
-0.391602	
-0.392212	
-0.391052	
-0.391113	
-0.391602	
-0.390991	
-0.392151	
-0.393555	
-0.393066	
-0.392944	
-0.392639	
-0.393677	
-0.394653	
-0.393921	
-0.394226	
-0.394836	
-0.39447	
-0.393982	
-0.395081	
-0.396423	
-0.395203	
-0.394775	
-0.394653	
-0.394836	
-0.394958	
-0.39502	
-0.394531	
-0.394531	
-0.392761	
-0.392456	
-0.393494	
-0.394287	
-0.393494	
-0.393188	
-0.392822	
-0.392822	
-0.392883	
-0.393127	
-0.392212	
-0.391785	
-0.390015	
-0.388367	
-0.390137	
-0.391235	
-0.390137	
-0.390686	
-0.391052	
-0.390442	
-0.390442	
-0.390747	
-0.390442	
-0.389954	
-0.389221	
-0.388306	
-0.389282	
-0.389954	
-0.38916	
-0.38916	
-0.389893	
-0.388062	
-0.388367	
-0.388	
-0.387878	
-0.387207	
-0.385864	
-0.385315	
-0.387451	
-0.386475	
-0.386597	
-0.386841	
-0.387451	
-0.385315	
-0.386536	
-0.387085	
-0.386047	
-0.386353	
-0.385864	
-0.385315	
-0.386536	
-0.386902	
-0.387024	
-0.386841	
-0.387817	
-0.386169	
-0.387451	
-0.387939	
-0.387451	
-0.387451	
-0.387573	
-0.387268	
-0.387817	
-0.388489	
-0.388184	
-0.388672	
-0.38916	
-0.387756	
-0.389099	
-0.389587	
-0.390015	
-0.389465	
-0.389526	
-0.389038	
-0.390259	
-0.390625	
-0.390991	
-0.390869	
-0.391724	
-0.390869	
-0.391174	
-0.392151	
-0.392639	
-0.391663	
-0.391663	
-0.391357	
-0.392212	
-0.39325	
-0.394714	
-0.394287	
-0.394836	
-0.393982	
-0.393738	
-0.394104	
-0.394531	
-0.393677	
-0.393005	
-0.392334	
-0.393494	
-0.39325	
-0.39386	
-0.393799	
-0.394592	
-0.393433	
-0.394348	
-0.394897	
-0.394958	
-0.393738	
-0.393311	
-0.392944	
-0.393921	
-0.394714	
-0.395447	
-0.394226	
-0.39502	
-0.39386	
-0.394592	
-0.394409	
-0.370544	
-0.363892	
-0.367859	
-0.368652	
-0.369812	
-0.369934	
-0.401611	
-0.399475	
-0.397095	
-0.394836	
-0.392517	
-0.392517	
-0.391846	
-0.390808	
-0.390137	
-0.389832	
-0.391418	
-0.39093	
-0.391541	
-0.391541	
-0.392334	
-0.390991	
-0.39032	
-0.391907	
-0.390198	
-0.390381	
-0.390015	
-0.389099	
-0.390259	
-0.39032	
-0.390747	
-0.39032	
-0.390808	
-0.390991	
-0.390625	
-0.391479	
-0.390442	
-0.391052	
-0.390381	
-0.389587	
-0.391052	
-0.391541	
-0.390808	
-0.390442	
-0.390503	
-0.389404	
-0.388977	
-0.389893	
-0.387512	
-0.388367	
-0.389221	
-0.389648	
-0.392639	
-0.394714	
-0.396301	
-0.398987	
-0.400635	
-0.401733	
-0.403748	
-0.408997	
-0.409912	
-0.413147	
-0.41626	
-0.418579	
-0.424744	
-0.429138	
-0.434143	
-0.438965	
-0.444946	
-0.449402	
-0.454712	
-0.461304	
-0.465332	
-0.470886	
-0.473816	
-0.478638	
-0.483337	
-0.485596	
-0.489136	
-0.490479	
-0.492798	
-0.493896	
-0.496521	
-0.497925	
-0.499573	
-0.501465	
-0.50177	
-0.50531	
-0.506592	
-0.508362	
-0.510071	
-0.511902	
-0.513916	
-0.515259	
-0.519104	
-0.519226	
-0.521912	
-0.523376	
-0.524414	
-0.528381	
-0.528687	
-0.529602	
-0.530823	
-0.532104	
-0.531006	
-0.530029	
-0.531677	
-0.52887	
-0.529419	
-0.528198	
-0.527588	
-0.528137	
-0.528198	
-0.527954	
-0.527527	
-0.528015	
-0.526611	
-0.525513	
-0.526367	
-0.52417	
-0.501221	
-0.490051	
-0.493286	
-0.492676	
-0.491577	
-0.489746	
-0.517395	
-0.513733	
-0.506409	
-0.501221	
-0.498718	
-0.493103	
-0.488586	
-0.48407	
-0.480835	
-0.476379	
-0.472717	
-0.469299	
-0.464844	
-0.460571	
-0.455322	
-0.44989	
-0.446228	
-0.439697	
-0.434753	
-0.427429	
-0.421936	
-0.414734	
-0.407166	
-0.399719	
-0.390808	
-0.382874	
-0.373352	
-0.363892	
-0.357056	
-0.345581	
-0.337769	
-0.32782	
-0.320007	
-0.31189	
-0.304871	
-0.296631	
-0.289795	
-0.284607	
-0.279297	
-0.274414	
-0.272583	
-0.266602	
-0.265259	
-0.263245	
-0.262756	
-0.262146	
-0.262817	
-0.264343	
-0.26532	
-0.268921	
-0.271851	
-0.276855	
-0.281067	
-0.287292	
-0.293152	
-0.299316	
-0.30719	
-0.313782	
-0.32019	
-0.326477	
-0.333618	
-0.339478	
-0.344788	
-0.351868	
-0.357666	
-0.364685	
-0.369812	
-0.378052	
-0.384521	
-0.391602	
-0.397644	
-0.403259	
-0.408997	
-0.413635	
-0.4198	
-0.422607	
-0.427795	
-0.430359	
-0.433777	
-0.438477	
-0.441833	
-0.445007	
-0.446716	
-0.449829	
-0.450806	
-0.454773	
-0.455322	
-0.456421	
-0.457458	
-0.458191	
-0.459778	
-0.460571	
-0.460754	
-0.460938	
-0.460388	
-0.460205	
-0.457886	
-0.459534	
-0.457336	
-0.457275	
-0.455811	
-0.456299	
-0.457825	
-0.460571	
-0.462585	
-0.463318	
-0.464661	
-0.46582	
-0.466492	
-0.468811	
-0.467957	
-0.469116	
-0.468201	
-0.468872	
-0.468689	
-0.468018	
-0.467102	
-0.465332	
-0.464172	
-0.461304	
-0.460571	
-0.45813	
-0.456055	
-0.454224	
-0.450989	
-0.449768	
-0.446777	
-0.443604	
-0.439758	
-0.434326	
-0.430054	
-0.424377	
-0.419922	
-0.413086	
-0.407715	
-0.401001	
-0.393738	
-0.388794	
-0.381958	
-0.374756	
-0.367493	
-0.358276	
-0.349609	
-0.339417	
-0.33075	
-0.320007	
-0.310852	
-0.303467	
-0.294739	
-0.288757	
-0.282776	
-0.277161	
-0.273804	
-0.268433	
-0.266968	
-0.263672	
-0.264099	
-0.261353	
-0.261292	
-0.260864	
-0.260376	
-0.262634	
-0.263123	
-0.26532	
-0.2677	
-0.270142	
-0.272522	
-0.275085	
-0.278687	
-0.279297	
-0.283508	
-0.285767	
-0.289673	
-0.293701	
-0.29657	
-0.300171	
-0.302246	
-0.306519	
-0.309021	
-0.31543	
-0.3172	
-0.320618	
-0.32428	
-0.328369	
-0.331848	
-0.334229	
-0.338684	
-0.341187	
-0.343506	
-0.345825	
-0.34967	
-0.350403	
-0.351196	
-0.354309	
-0.355225	
-0.358337	
-0.35907	
-0.360962	
-0.362549	
-0.36322	
-0.364685	
-0.364502	
-0.366394	
-0.365845	
-0.366516	
-0.364746	
-0.367065	
-0.367554	
-0.368408	
-0.369446	
-0.368286	
-0.369385	
-0.369385	
-0.371033	
-0.370117	
-0.369385	
-0.369751	
-0.370728	
-0.371399	
-0.372375	
-0.373596	
-0.375061	
-0.374207	
-0.375	
-0.374451	
-0.375854	
-0.374023	
-0.373657	
-0.37323	
-0.374207	
-0.374329	
-0.373779	
-0.374451	
-0.374512	
-0.374268	
-0.374634	
-0.373291	
-0.372986	
-0.371399	
-0.372131	
-0.371765	
-0.371582	
-0.370544	
-0.37085	
-0.371826	
-0.370178	
-0.370728	
-0.370117	
-0.369934	
-0.368469	
-0.367249	
-0.367615	
-0.368774	
-0.368103	
-0.367493	
-0.367859	
-0.368347	
-0.368042	
-0.369385	
-0.368591	
-0.36792	
-0.366821	
-0.367432	
-0.367188	
-0.368896	
-0.368652	
-0.369812	
-0.370911	
-0.370972	
-0.372253	
-0.374023	
-0.372986	
-0.373474	
-0.373413	
-0.376099	
-0.376038	
-0.377075	
-0.377258	
-0.378357	
-0.378784	
-0.378723	
-0.381104	
-0.37915	
-0.379333	
-0.378967	
-0.378906	
-0.379639	
-0.379883	
-0.3797	
-0.380005	
-0.380859	
-0.38092	
-0.38147	
-0.380371	
-0.381348	
-0.3797	
-0.378052	
-0.379822	
-0.380188	
-0.380005	
-0.379639	
-0.380066	
-0.379211	
-0.379578	
-0.379883	
-0.378296	
-0.377563	
-0.37616	
-0.376404	
-0.375488	
-0.375488	
-0.375061	
-0.37561	
-0.377075	
-0.375916	
-0.377014	
-0.375793	
-0.375488	
-0.373962	
-0.374878	
-0.374146	
-0.375549	
-0.375183	
-0.375183	
-0.375732	
-0.37616	
-0.378052	
-0.376221	
-0.375977	
-0.37616	
-0.375488	
-0.37677	
-0.376709	
-0.378113	
-0.378479	
-0.379272	
-0.379395	
-0.379517	
-0.38092	
-0.380005	
-0.379395	
-0.379028	
-0.380127	
-0.38031	
-0.380859	
-0.381348	
-0.381165	
-0.382385	
-0.382996	
-0.382935	
-0.383057	
-0.383179	
-0.38324	
-0.38147	
-0.383179	
-0.38385	
-0.384155	
-0.38385	
-0.383728	
-0.38446	
-0.384521	
-0.38501	
-0.385498	
-0.385681	
-0.384277	
-0.383545	
-0.385071	
-0.385071	
-0.384644	
-0.385803	
-0.387695	
-0.387268	
-0.38739	
-0.387756	
-0.387085	
-0.386353	
-0.385559	
-0.385254	
-0.384766	
-0.384705	
-0.384338	
-0.38446	
-0.384338	
-0.383667	
-0.384277	
-0.384827	
-0.384888	
-0.383423	
-0.382874	
-0.382507	
-0.382813	
-0.383179	
-0.382568	
-0.382935	
-0.382751	
-0.384094	
-0.384644	
-0.384888	
-0.385559	
-0.383728	
-0.384216	
-0.384155	
-0.385254	
-0.38562	
-0.386108	
-0.386292	
-0.386963	
-0.388489	
-0.388916	
-0.389282	
-0.38855	
-0.388428	
-0.388428	
-0.387939	
-0.388794	
-0.388672	
-0.389282	
-0.388855	
-0.389648	
-0.388855	
-0.389832	
-0.390259	
-0.387634	
-0.387268	
-0.387146	
-0.388245	
-0.388672	
-0.387878	
-0.387695	
-0.387634	
-0.388245	
-0.388306	
-0.389038	
-0.387024	
-0.387207	
-0.385803	
-0.383362	
-0.385254	
-0.385071	
-0.38623	
-0.385864	
-0.385925	
-0.386353	
-0.386475	
-0.387268	
-0.384705	
-0.383972	
-0.384766	
-0.385498	
-0.385254	
-0.384827	
-0.385193	
-0.385193	
-0.385315	
-0.385193	
-0.385254	
-0.383118	
-0.383057	
-0.382446	
-0.380981	
-0.382568	
-0.382751	
-0.382568	
-0.382202	
-0.382263	
-0.383606	
-0.383301	
-0.383728	
-0.381958	
-0.381714	
-0.380737	
-0.381714	
-0.382751	
-0.382935	
-0.382996	
-0.383362	
-0.383057	
-0.383606	
-0.384277	
-0.384705	
-0.383057	
-0.382751	
-0.384216	
-0.384338	
-0.384277	
-0.384399	
-0.383728	
-0.384155	
-0.384399	
-0.385071	
-0.385376	
-0.38623	
-0.384094	
-0.384521	
-0.384766	
-0.385315	
-0.385132	
-0.385681	
-0.385681	
-0.386169	
-0.38678	
-0.386902	
-0.387146	
-0.388245	
-0.385681	
-0.386841	
-0.387878	
-0.388428	
-0.38855	
-0.388123	
-0.389648	
-0.389771	
-0.391235	
-0.391113	
-0.390625	
-0.390747	
-0.389709	
-0.389709	
-0.38916	
-0.390381	
-0.389709	
-0.389526	
-0.390381	
-0.390381	
-0.391724	
-0.390991	
-0.391541	
-0.391052	
-0.390137	
-0.389832	
-0.390869	
-0.391479	
-0.390747	
-0.390503	
-0.391479	
-0.391541	
-0.391907	
-0.391785	
-0.392151	
-0.390869	
-0.390625	
-0.390747	
-0.389526	
-0.39032	
-0.390564	
-0.390747	
-0.390381	
-0.390503	
-0.391174	
-0.391541	
-0.391174	
-0.388123	
-0.387512	
-0.387634	
-0.387207	
-0.38739	
-0.387817	
-0.388184	
-0.388733	
-0.388916	
-0.388794	
-0.388855	
-0.389709	
-0.387512	
-0.386963	
-0.387573	
-0.387634	
-0.388123	
-0.387939	
-0.387878	
-0.387756	
-0.38855	
-0.38916	
-0.388	
-0.387451	
-0.387207	
-0.38678	
-0.386902	
-0.387695	
-0.388123	
-0.388	
-0.388184	
-0.388428	
-0.38916	
-0.388916	
-0.388123	
-0.387878	
-0.388123	
-0.387573	
-0.386414	
-0.388428	
-0.388794	
-0.388672	
-0.388611	
-0.389343	
-0.388855	
-0.388611	
-0.388	
-0.387024	
-0.387329	
-0.386902	
-0.384216	
-0.385498	
-0.385376	
-0.385132	
-0.38501	
-0.385803	
-0.384399	
-0.38446	
-0.38501	
-0.38324	
-0.383057	
-0.38269	
-0.381165	
-0.383606	
-0.383118	
-0.382996	
-0.383362	
-0.383362	
-0.383362	
-0.383728	
-0.384094	
-0.382874	
-0.383057	
-0.383301	
-0.383362	
-0.383728	
-0.384277	
-0.384827	
-0.385498	
-0.386047	
-0.38623	
-0.387085	
-0.387207	
-0.385803	
-0.386841	
-0.387146	
-0.387512	
-0.388672	
-0.389099	
-0.389465	
-0.389954	
-0.390564	
-0.391846	
-0.393616	
-0.393127	
-0.39209	
-0.392151	
-0.392883	
-0.392639	
-0.393127	
-0.393616	
-0.393982	
-0.394775	
-0.394653	
-0.39447	
-0.394653	
-0.395203	
-0.393982	
-0.39447	
-0.394043	
-0.393677	
-0.393921	
-0.393188	
-0.393494	
-0.392944	
-0.393494	
-0.392517	
-0.392517	
-0.392029	
-0.391602	
-0.391418	
-0.389954	
-0.390747	
-0.390625	
-0.390869	
-0.390564	
-0.390625	
-0.390808	
-0.390076	
-0.390137	
-0.389648	
-0.389648	
-0.388672	
-0.38739	
-0.389038	
-0.388855	
-0.388367	
-0.388611	
-0.388672	
-0.388245	
-0.387939	
-0.387573	
-0.387756	
-0.38739	
-0.387085	
-0.386475	
-0.387878	
-0.387939	
-0.387817	
-0.388062	
-0.387207	
-0.385925	
-0.386353	
-0.38562	
-0.385193	
-0.386963	
-0.386108	
-0.385498	
-0.387207	
-0.387573	
-0.387207	
-0.38855	
-0.388611	
-0.388428	
-0.388245	
-0.389832	
-0.387878	
-0.38916	
-0.388733	
-0.388855	
-0.389221	
-0.389526	
-0.389832	
-0.390381	
-0.39032	
-0.389832	
-0.389343	
-0.390991	
-0.388672	
-0.388733	
-0.387756	
-0.388611	
-0.388245	
-0.387634	
-0.387695	
-0.387451	
-0.387878	
-0.386658	
-0.386292	
-0.387634	
-0.385437	
-0.385681	
-0.384338	
-0.38501	
-0.385071	
-0.384521	
-0.385254	
-0.385132	
-0.385864	
-0.384644	
-0.383972	
-0.385742	
-0.384521	
-0.384888	
-0.384094	
-0.385437	
-0.386047	
-0.386292	
-0.386719	
-0.386597	
-0.387573	
-0.386597	
-0.387085	
-0.388123	
-0.387634	
-0.386658	
-0.385193	
-0.387695	
-0.387634	
-0.388977	
-0.390259	
-0.390137	
-0.390198	
-0.389343	
-0.389954	
-0.389221	
-0.389282	
-0.389648	
-0.387207	
-0.390198	
-0.390015	
-0.390686	
-0.391235	
-0.390808	
-0.391663	
-0.391479	
-0.392273	
-0.391785	
-0.392334	
-0.392944	
-0.391052	
-0.394043	
-0.393799	
-0.393738	
-0.39502	
-0.393799	
-0.394897	
-0.393677	
-0.395142	
-0.393555	
-0.393311	
-0.393372	
-0.391418	
-0.394287	
-0.394165	
-0.393616	
-0.394714	
-0.393921	
-0.39386	
-0.392517	
-0.394287	
-0.391968	
-0.392517	
-0.392029	
-0.391052	
-0.392273	
-0.392273	
-0.392639	
-0.392151	
-0.391541	
-0.392212	
-0.391357	
-0.392944	
-0.39093	
-0.391052	
-0.390076	
-0.38916	
-0.390015	
-0.39032	
-0.389404	
-0.389465	
-0.389709	
-0.390259	
-0.388184	
-0.390442	
-0.387939	
-0.387817	
-0.38739	
-0.387634	
-0.387817	
-0.387512	
-0.385864	
-0.386292	
-0.386108	
-0.386719	
-0.386169	
-0.387817	
-0.386292	
-0.386353	
-0.385986	
-0.386963	
-0.387695	
-0.387634	
-0.388184	
-0.387695	
-0.387146	
-0.386902	
-0.386353	
-0.388489	
-0.38562	
-0.386536	
-0.385803	
-0.386353	
-0.386597	
-0.38678	
-0.387085	
-0.386658	
-0.386536	
-0.386475	
-0.385559	
-0.387634	
-0.384949	
-0.385986	
-0.384705	
-0.385803	
-0.386047	
-0.386414	
-0.386108	
-0.386414	
-0.386353	
-0.385925	
-0.385559	
-0.38855	
-0.385803	
-0.387329	
-0.387695	
-0.389465	
-0.389221	
-0.389404	
-0.389465	
-0.389221	
-0.389465	
-0.389099	
-0.38855	
-0.390442	
-0.388062	
-0.389221	
-0.387451	
-0.389771	
-0.389832	
-0.389709	
-0.389954	
-0.389709	
-0.390991	
-0.390015	
-0.38855	
-0.391357	
-0.388855	
-0.389343	
-0.387817	
-0.389709	
-0.390076	
-0.388672	
-0.389709	
-0.389771	
-0.390503	
-0.389465	
-0.388916	
-0.390137	
-0.388855	
-0.389099	
-0.388611	
-0.389587	
-0.389709	
-0.38855	
-0.389648	
-0.389404	
-0.390015	
-0.389709	
-0.39032	
-0.390503	
-0.390564	
-0.390442	
-0.39032	
-0.391968	
-0.392334	
-0.392578	
-0.393799	
-0.393311	
-0.394409	
-0.394653	
-0.395325	
-0.394226	
-0.394287	
-0.394104	
-0.393372	
-0.394531	
-0.394775	
-0.394897	
-0.394409	
-0.39386	
-0.394836	
-0.394287	
-0.394348	
-0.393982	
-0.393127	
-0.392639	
-0.391418	
-0.392029	
-0.392883	
-0.393372	
-0.393494	
-0.39209	
-0.392334	
-0.391907	
-0.39209	
-0.390991	
-0.39032	
-0.390137	
-0.388794	
-0.389709	
-0.389343	
-0.389038	
-0.388794	
-0.387085	
-0.386475	
-0.385315	
-0.386841	
-0.385559	
-0.385193	
-0.384888	
-0.38446	
-0.384949	
-0.384705	
-0.384644	
-0.384216	
-0.384338	
-0.384705	
-0.38385	
-0.385254	
-0.38385	
-0.383911	
-0.383972	
-0.384155	
-0.384583	
-0.384094	
-0.384827	
-0.385986	
-0.385193	
-0.385376	
-0.386108	
-0.387878	
-0.385925	
-0.386414	
-0.386414	
-0.387085	
-0.387207	
-0.387268	
-0.387512	
-0.38855	
-0.388245	
-0.388184	
-0.387573	
-0.389771	
-0.389038	
-0.388672	
-0.388245	
-0.389282	
-0.389099	
-0.389587	
-0.389832	
-0.390869	
-0.389893	
-0.389465	
-0.389648	
-0.390991	
-0.390259	
-0.390137	
-0.389099	
-0.390564	
-0.390869	
-0.391479	
-0.391113	
-0.391907	
-0.390503	
-0.392273	
-0.393127	
-0.392822	
-0.392517	
-0.392334	
-0.390198	
-0.39093	
-0.391174	
-0.390686	
-0.390991	
-0.391174	
-0.390259	
-0.390442	
-0.390259	
-0.389526	
-0.389038	
-0.388855	
-0.387268	
-0.388733	
-0.389343	
-0.388611	
-0.388916	
-0.389099	
-0.38916	
-0.388062	
-0.388733	
-0.389221	
-0.389099	
-0.388794	
-0.388184	
-0.390015	
-0.39032	
-0.390686	
-0.391296	
-0.390808	
-0.391235	
-0.391296	
-0.391846	
-0.391724	
-0.392273	
-0.392639	
-0.391846	
-0.392883	
-0.393921	
-0.393921	
-0.393616	
-0.393555	
-0.393738	
-0.392822	
-0.392761	
-0.392883	
-0.393066	
-0.392639	
-0.392029	
-0.391541	
-0.392029	
-0.391968	
-0.392273	
-0.391724	
-0.391541	
-0.391296	
-0.39093	
-0.39093	
-0.39032	
-0.390869	
-0.389832	
-0.389282	
-0.388794	
-0.388611	
-0.38916	
-0.388855	
-0.389832	
-0.388428	
-0.388611	
-0.388855	
-0.388611	
-0.388855	
-0.387817	
-0.387695	
-0.387939	
-0.388	
-0.388245	
-0.387634	
-0.388184	
-0.387024	
-0.386353	
-0.386536	
-0.386536	
-0.385315	
-0.384033	
-0.384399	
-0.38446	
-0.38501	
-0.385315	
-0.384949	
-0.385559	
-0.385132	
-0.385742	
-0.384644	
-0.384216	
-0.384033	
-0.383911	
-0.38385	
-0.384644	
-0.385376	
-0.385681	
-0.384583	
-0.385681	
-0.385681	
-0.386475	
-0.385803	
-0.385986	
-0.385742	
-0.38623	
-0.385803	
-0.386353	
-0.386292	
-0.387573	
-0.386414	
-0.387268	
-0.387085	
-0.387573	
-0.387634	
-0.387329	
-0.386597	
-0.387695	
-0.387268	
-0.388184	
-0.388367	
-0.38916	
-0.388733	
-0.389648	
-0.388916	
-0.389832	
-0.388977	
-0.389465	
-0.389038	
-0.389465	
-0.389221	
-0.390198	
-0.390991	
-0.392822	
-0.392822	
-0.392761	
-0.391907	
-0.392273	
-0.391235	
-0.391357	
-0.390564	
-0.391541	
-0.390381	
-0.391296	
-0.391418	
-0.392334	
-0.391846	
-0.392517	
-0.392151	
-0.392822	
-0.392029	
-0.391846	
-0.390686	
-0.391907	
-0.391418	
-0.391968	
-0.39209	
-0.393066	
-0.392883	
-0.391663	
-0.392639	
-0.393616	
-0.392517	
-0.391968	
-0.391663	
-0.392578	
-0.392395	
-0.39209	
-0.392212	
-0.392761	
-0.392273	
-0.391357	
-0.391663	
-0.392334	
-0.390076	
-0.389038	
-0.388428	
-0.389099	
-0.389709	
-0.389343	
-0.389343	
-0.389526	
-0.389709	
-0.389282	
-0.389099	
-0.390198	
-0.388794	
-0.389221	
-0.388306	
-0.388062	
-0.388672	
-0.388733	
-0.388855	
-0.388794	
-0.389099	
-0.38855	
-0.388245	
-0.389709	
-0.389099	
-0.388123	
-0.388	
-0.388184	
-0.388367	
-0.388428	
-0.388916	
-0.388916	
-0.38855	
-0.38855	
-0.38855	
-0.389648	
-0.389648	
-0.388672	
-0.388672	
-0.388733	
-0.389282	
-0.389404	
-0.389587	
-0.389221	
-0.389221	
-0.388733	
-0.389038	
-0.388062	
-0.387207	
-0.38678	
-0.386414	
-0.385376	
-0.386597	
-0.386353	
-0.386353	
-0.384338	
-0.384766	
-0.384094	
-0.384338	
-0.384888	
-0.384033	
-0.384033	
-0.383301	
-0.382568	
-0.383972	
-0.384155	
-0.384399	
-0.383972	
-0.384094	
-0.383911	
-0.384888	
-0.38446	
-0.384155	
-0.383972	
-0.38446	
-0.383667	
-0.384949	
-0.385986	
-0.386658	
-0.386353	
-0.387451	
-0.386902	
-0.388123	
-0.388184	
-0.388	
-0.388123	
-0.388367	
-0.388306	
-0.389648	
-0.390442	
-0.391052	
-0.390991	
-0.393616	
-0.393372	
-0.393982	
-0.393433	
-0.394043	
-0.393311	
-0.39386	
-0.392944	
-0.394531	
-0.395142	
-0.395691	
-0.394958	
-0.395386	
-0.394775	
-0.395081	
-0.395081	
-0.395264	
-0.394592	
-0.393433	
-0.392822	
-0.393799	
-0.394043	
-0.39386	
-0.392761	
-0.393555	
-0.392456	
-0.392639	
-0.391785	
-0.39209	
-0.391479	
-0.390564	
-0.389954	
-0.390869	
-0.391418	
-0.391357	
-0.390625	
-0.390381	
-0.389771	
-0.390808	
-0.389648	
-0.390198	
-0.389709	
-0.388489	
-0.387817	
-0.388916	
-0.38916	
-0.388367	
-0.388672	
-0.388855	
-0.388184	
-0.389282	
-0.388367	
-0.388672	
-0.388367	
-0.387939	
-0.386414	
-0.387939	
-0.388245	
-0.386536	
-0.386108	
-0.386353	
-0.385742	
-0.388	
-0.387512	
-0.387024	
-0.386902	
-0.387268	
-0.386108	
-0.388672	
-0.388611	
-0.388794	
-0.388977	
-0.389343	
-0.388367	
-0.390076	
-0.389771	
-0.38916	
-0.389709	
-0.389771	
-0.38855	
-0.390015	
-0.390625	
-0.390747	
-0.390076	
-0.390076	
-0.388916	
-0.390198	
-0.389832	
-0.388306	
-0.388306	
-0.387939	
-0.387085	
-0.388367	
-0.388184	
-0.387695	
-0.387878	
-0.387939	
-0.385559	
-0.387329	
-0.38678	
-0.385681	
-0.385254	
-0.385498	
-0.383423	
-0.38501	
-0.385437	
-0.385193	
-0.385925	
-0.385925	
-0.384338	
-0.386902	
-0.386353	
-0.385132	
-0.385559	
-0.38623	
-0.384705	
-0.387085	
-0.388184	
-0.387512	
-0.387329	
-0.388367	
-0.388184	
-0.388733	
-0.388916	
-0.387817	
-0.388489	
-0.388611	
-0.387756	
-0.390564	
-0.391602	
-0.390808	
-0.39032	
-0.39093	
-0.390137	
-0.391296	
-0.391296	
-0.390015	
-0.390686	
-0.390503	
-0.389648	
-0.391602	
-0.392334	
-0.391907	
-0.391907	
-0.392517	
-0.392639	
-0.394165	
-0.394592	
-0.392822	
-0.394104	
-0.394287	
-0.392761	
-0.394531	
-0.395996	
-0.394531	
-0.394531	
-0.395081	
-0.394653	
-0.394653	
-0.395203	
-0.394104	
-0.393982	
-0.394104	
-0.391724	
-0.394043	
-0.394775	
-0.393799	
-0.393433	
-0.393738	
-0.393372	
-0.393188	
-0.393188	
-0.392517	
-0.392761	
-0.392456	
-0.391174	
-0.392761	
-0.393127	
-0.392456	
-0.391724	
-0.391907	
-0.391907	
-0.392029	
-0.391785	
-0.390625	
-0.39032	
-0.390503	
-0.388489	
-0.390381	
-0.390198	
-0.39093	
-0.390076	
-0.390381	
-0.390015	
-0.390076	
-0.389038	
-0.388306	
-0.388672	
-0.388062	
-0.384949	
-0.386414	
-0.387573	
-0.386841	
-0.387695	
-0.388123	
-0.387878	
-0.387573	
-0.388062	
-0.386597	
-0.387817	
-0.388062	
-0.38678	
-0.388306	
-0.388611	
-0.387878	
-0.388245	
-0.387939	
-0.387695	
-0.388	
-0.387878	
-0.386108	
-0.387024	
-0.387085	
-0.386169	
-0.387207	
-0.388	
-0.386841	
-0.387207	
-0.38678	
-0.387207	
-0.386902	
-0.387878	
-0.385681	
-0.38623	
-0.386414	
-0.385498	
-0.387512	
-0.387939	
-0.387268	
-0.387451	
-0.388245	
-0.388428	
-0.388245	
-0.390503	
-0.390076	
-0.390198	
-0.389587	
-0.388855	
-0.390686	
-0.391418	
-0.389587	
-0.390076	
-0.389893	
-0.390259	
-0.390686	
-0.391357	
-0.389648	
-0.389038	
-0.390076	
-0.389771	
-0.390503	
-0.392029	
-0.390747	
-0.39093	
-0.391357	
-0.391174	
-0.391296	
-0.391479	
-0.390137	
-0.390076	
-0.390381	
-0.389832	
-0.390686	
-0.391663	
-0.39093	
-0.391296	
-0.391479	
-0.391113	
-0.390869	
-0.39209	
-0.389343	
-0.389648	
-0.389954	
-0.390625	
-0.39093	
-0.391357	
-0.390381	
-0.391052	
-0.392456	
-0.392517	
-0.392883	
-0.394104	
-0.392761	
-0.392761	
-0.393066	
-0.393921	
-0.394104	
-0.395508	
-0.395081	
-0.39563	
-0.396118	
-0.39624	
-0.395874	
-0.396912	
-0.394775	
-0.395508	
-0.39502	
-0.395264	
-0.396301	
-0.39679	
-0.395691	
-0.395447	
-0.395691	
-0.395386	
-0.395569	
-0.395813	
-0.393311	
-0.393188	
-0.393616	
-0.393921	
-0.393311	
-0.393616	
-0.3927	
-0.392029	
-0.392456	
-0.392151	
-0.391785	
-0.39209	
-0.390137	
-0.388855	
-0.388611	
-0.389099	
-0.387573	
-0.38739	
-0.38623	
-0.385864	
-0.386597	
-0.386414	
-0.386292	
-0.386719	
-0.385437	
-0.38446	
-0.38446	
-0.385193	
-0.38562	
-0.386108	
-0.385681	
-0.38501	
-0.38562	
-0.385254	
-0.385925	
-0.386719	
-0.384888	
-0.385681	
-0.38562	
-0.386536	
-0.386353	
-0.387817	
-0.387756	
-0.388062	
-0.388062	
-0.388184	
-0.388184	
-0.388977	
-0.387573	
-0.388489	
-0.388489	
	
