C:\DOCUMENTS AND SETTINGS\JASON\DESKTOP\UFRJ\UFRJ EPHYS\RSCI-BM 12 WK SERIES\070803-RSCI-BM-11\RSCI-BM-11-LEMG\070803-RSCI-BM-11-LEMG-0018.ACQ
0.025000 msec/sample
1 channel
Analog input
Volts
CH1	
2000	
-0.394043	
-0.393433	
-0.393799	
-0.393555	
-0.393188	
-0.395325	
-0.394897	
-0.39502	
-0.395874	
-0.395264	
-0.395569	
-0.395935	
-0.396484	
-0.395386	
-0.395264	
-0.394348	
-0.393494	
-0.394592	
-0.394348	
-0.393616	
-0.393555	
-0.393738	
-0.393799	
-0.393921	
-0.394104	
-0.392761	
-0.392395	
-0.39093	
-0.39032	
-0.392456	
-0.391968	
-0.389893	
-0.390564	
-0.390808	
-0.390869	
-0.391907	
-0.392517	
-0.391296	
-0.391174	
-0.390625	
-0.390076	
-0.39209	
-0.391724	
-0.390503	
-0.391663	
-0.391541	
-0.391235	
-0.391907	
-0.392395	
-0.391174	
-0.390808	
-0.390015	
-0.389648	
-0.390869	
-0.390381	
-0.389587	
-0.390564	
-0.390625	
-0.390808	
-0.390381	
-0.391479	
-0.390991	
-0.39032	
-0.389832	
-0.390503	
-0.391052	
-0.390625	
-0.389465	
-0.390869	
-0.390076	
-0.390259	
-0.390259	
-0.390991	
-0.390442	
-0.389648	
-0.38916	
-0.389099	
-0.389099	
-0.388794	
-0.387817	
-0.388611	
-0.387695	
-0.388	
-0.388306	
-0.388916	
-0.388489	
-0.388245	
-0.387329	
-0.38739	
-0.388428	
-0.388916	
-0.387329	
-0.388123	
-0.388794	
-0.38916	
-0.389465	
-0.390381	
-0.389648	
-0.389526	
-0.389221	
-0.388916	
-0.390808	
-0.391113	
-0.390808	
-0.391541	
-0.391663	
-0.392029	
-0.392578	
-0.393311	
-0.392944	
-0.3927	
-0.392151	
-0.391479	
-0.394653	
-0.395142	
-0.394165	
-0.39447	
-0.39502	
-0.395264	
-0.39624	
-0.396973	
-0.396118	
-0.396179	
-0.395569	
-0.394897	
-0.397339	
-0.397461	
-0.397034	
-0.397644	
-0.398193	
-0.39856	
-0.399048	
-0.400024	
-0.398743	
-0.399048	
-0.398438	
-0.397156	
-0.398315	
-0.397522	
-0.396729	
-0.397766	
-0.397583	
-0.396851	
-0.397095	
-0.397705	
-0.396667	
-0.395325	
-0.394043	
-0.393799	
-0.39502	
-0.395081	
-0.393494	
-0.394287	
-0.393188	
-0.391541	
-0.391846	
-0.392578	
-0.392761	
-0.3927	
-0.39093	
-0.390808	
-0.392883	
-0.393372	
-0.391479	
-0.392578	
-0.392761	
-0.393127	
-0.393005	
-0.393738	
-0.393372	
-0.39209	
-0.391174	
-0.391418	
-0.393005	
-0.3927	
-0.391541	
-0.392456	
-0.391907	
-0.392395	
-0.392883	
-0.394165	
-0.392334	
-0.392578	
-0.392029	
-0.392029	
-0.392822	
-0.393005	
-0.392273	
-0.393616	
-0.39386	
-0.393555	
-0.394226	
-0.395813	
-0.394348	
-0.394714	
-0.393555	
-0.39447	
-0.367249	
-0.363586	
-0.36615	
-0.368164	
-0.368408	
-0.367798	
-0.400696	
-0.39917	
-0.394653	
-0.392883	
-0.39093	
-0.389099	
-0.390015	
-0.389709	
-0.387939	
-0.389404	
-0.388489	
-0.388855	
-0.388611	
-0.389832	
-0.387939	
-0.387756	
-0.387146	
-0.385498	
-0.387573	
-0.388123	
-0.387329	
-0.388245	
-0.388733	
-0.389465	
-0.389954	
-0.391724	
-0.390503	
-0.390747	
-0.390747	
-0.389282	
-0.391052	
-0.391602	
-0.391113	
-0.391541	
-0.391907	
-0.392029	
-0.392517	
-0.394165	
-0.393494	
-0.393616	
-0.393738	
-0.39093	
-0.394043	
-0.394165	
-0.394348	
-0.396301	
-0.398132	
-0.400269	
-0.402649	
-0.407227	
-0.408203	
-0.410217	
-0.413818	
-0.416626	
-0.421082	
-0.423584	
-0.427856	
-0.432495	
-0.437439	
-0.441772	
-0.447876	
-0.453491	
-0.458008	
-0.463196	
-0.465515	
-0.473511	
-0.478455	
-0.482971	
-0.487549	
-0.491516	
-0.494507	
-0.496216	
-0.500061	
-0.499939	
-0.501404	
-0.503113	
-0.501648	
-0.506287	
-0.507324	
-0.508179	
-0.510986	
-0.511719	
-0.512695	
-0.514587	
-0.518066	
-0.517151	
-0.519897	
-0.520874	
-0.522034	
-0.523987	
-0.525452	
-0.526123	
-0.527893	
-0.527588	
-0.528015	
-0.528625	
-0.529663	
-0.527344	
-0.527039	
-0.526245	
-0.525696	
-0.52478	
-0.524475	
-0.52356	
-0.522156	
-0.522095	
-0.521973	
-0.522644	
-0.522034	
-0.520813	
-0.519897	
-0.516602	
-0.519226	
-0.518799	
-0.517883	
-0.516663	
-0.515198	
-0.513489	
-0.511414	
-0.510681	
-0.506287	
-0.502625	
-0.498962	
-0.493713	
-0.491821	
-0.487854	
-0.483521	
-0.479309	
-0.475037	
-0.47168	
-0.468323	
-0.46698	
-0.459229	
-0.454224	
-0.448425	
-0.443115	
-0.437988	
-0.432007	
-0.425293	
-0.419006	
-0.412415	
-0.405212	
-0.397644	
-0.391663	
-0.380554	
-0.371643	
-0.362183	
-0.350708	
-0.34491	
-0.335999	
-0.326477	
-0.318298	
-0.310181	
-0.303345	
-0.296448	
-0.292664	
-0.285217	
-0.280579	
-0.277039	
-0.270996	
-0.271118	
-0.269043	
-0.268066	
-0.268616	
-0.267334	
-0.266296	
-0.266235	
-0.269226	
-0.267517	
-0.269043	
-0.270081	
-0.273621	
-0.277283	
-0.281555	
-0.285156	
-0.2901	
-0.294495	
-0.298767	
-0.304749	
-0.307373	
-0.312439	
-0.317383	
-0.320984	
-0.326172	
-0.33075	
-0.334106	
-0.339661	
-0.34314	
-0.346741	
-0.351624	
-0.354004	
-0.356506	
-0.358948	
-0.360107	
-0.364319	
-0.36731	
-0.368958	
-0.371887	
-0.374023	
-0.375977	
-0.377319	
-0.381226	
-0.381226	
-0.382324	
-0.382141	
-0.384277	
-0.385254	
-0.38623	
-0.387085	
-0.388245	
-0.388733	
-0.389709	
-0.391602	
-0.389832	
-0.390503	
-0.389282	
-0.38855	
-0.391235	
-0.391174	
-0.390259	
-0.391052	
-0.390747	
-0.391357	
-0.39209	
-0.393372	
-0.391296	
-0.391479	
-0.389893	
-0.390991	
-0.391113	
-0.391296	
-0.390381	
-0.389893	
-0.389771	
-0.390015	
-0.390747	
-0.388855	
-0.388123	
-0.386902	
-0.385193	
-0.385986	
-0.384949	
-0.382935	
-0.380676	
-0.3797	
-0.378662	
-0.378479	
-0.377808	
-0.374817	
-0.372742	
-0.369873	
-0.368042	
-0.367676	
-0.365906	
-0.363831	
-0.362732	
-0.360657	
-0.359192	
-0.358704	
-0.356873	
-0.353394	
-0.350708	
-0.348389	
-0.34729	
-0.346558	
-0.343933	
-0.342224	
-0.342468	
-0.342224	
-0.341919	
-0.342651	
-0.342224	
-0.341675	
-0.341064	
-0.342102	
-0.342529	
-0.343262	
-0.34375	
-0.34436	
-0.346252	
-0.347778	
-0.34845	
-0.349243	
-0.350159	
-0.351746	
-0.351746	
-0.353333	
-0.356323	
-0.356567	
-0.355713	
-0.357971	
-0.358704	
-0.359314	
-0.360779	
-0.361206	
-0.361145	
-0.361084	
-0.361572	
-0.361572	
-0.363586	
-0.363403	
-0.364258	
-0.365356	
-0.365906	
-0.366272	
-0.367859	
-0.369202	
-0.36853	
-0.368774	
-0.368896	
-0.3703	
-0.370422	
-0.3703	
-0.371399	
-0.371643	
-0.372192	
-0.37323	
-0.373474	
-0.372803	
-0.372742	
-0.37384	
-0.371704	
-0.373169	
-0.373413	
-0.373779	
-0.373901	
-0.373474	
-0.374573	
-0.37616	
-0.377075	
-0.376221	
-0.376404	
-0.377197	
-0.377502	
-0.378601	
-0.378845	
-0.37854	
-0.379456	
-0.380493	
-0.38031	
-0.381653	
-0.383423	
-0.382507	
-0.382141	
-0.381775	
-0.382568	
-0.383362	
-0.382446	
-0.383362	
-0.38385	
-0.384644	
-0.384399	
-0.384155	
-0.385376	
-0.383728	
-0.382751	
-0.382568	
-0.382324	
-0.382568	
-0.382324	
-0.382629	
-0.381897	
-0.382019	
-0.38208	
-0.382141	
-0.382507	
-0.381287	
-0.381897	
-0.380676	
-0.380432	
-0.380371	
-0.379822	
-0.379211	
-0.378967	
-0.378845	
-0.379211	
-0.378601	
-0.37854	
-0.378174	
-0.377869	
-0.377014	
-0.375977	
-0.376648	
-0.376648	
-0.376587	
-0.376404	
-0.376404	
-0.376526	
-0.376709	
-0.376953	
-0.376526	
-0.376038	
-0.374634	
-0.376404	
-0.373474	
-0.349243	
-0.353271	
-0.355164	
-0.35614	
-0.35675	
-0.372131	
-0.385925	
-0.381958	
-0.3797	
-0.378906	
-0.380371	
-0.380859	
-0.38147	
-0.381409	
-0.381165	
-0.381348	
-0.383728	
-0.383362	
-0.38208	
-0.382751	
-0.381592	
-0.381714	
-0.382263	
-0.383728	
-0.38324	
-0.383179	
-0.383362	
-0.383728	
-0.385193	
-0.384033	
-0.384521	
-0.382507	
-0.38385	
-0.385071	
-0.385132	
-0.385498	
-0.385193	
-0.385681	
-0.385498	
-0.386963	
-0.386719	
-0.385559	
-0.385803	
-0.382751	
-0.384216	
-0.383484	
-0.38385	
-0.383362	
-0.383911	
-0.38623	
-0.389343	
-0.39209	
-0.391602	
-0.393005	
-0.394165	
-0.398193	
-0.401978	
-0.404236	
-0.408691	
-0.412292	
-0.415955	
-0.419922	
-0.426147	
-0.429565	
-0.433044	
-0.438354	
-0.442322	
-0.448425	
-0.451538	
-0.457458	
-0.463135	
-0.469055	
-0.474304	
-0.479065	
-0.485229	
-0.48761	
-0.490051	
-0.491211	
-0.492859	
-0.495789	
-0.497742	
-0.500854	
-0.503235	
-0.504395	
-0.506592	
-0.508057	
-0.509827	
-0.509705	
-0.511292	
-0.510071	
-0.514526	
-0.516174	
-0.516479	
-0.518372	
-0.52002	
-0.520874	
-0.520691	
-0.522034	
-0.520264	
-0.519104	
-0.517578	
-0.516479	
-0.517212	
-0.517456	
-0.516418	
-0.517395	
-0.518433	
-0.519043	
-0.520264	
-0.52301	
-0.521973	
-0.52301	
-0.523376	
-0.521912	
-0.522644	
-0.522278	
-0.522339	
-0.521057	
-0.519531	
-0.51709	
-0.515259	
-0.513245	
-0.509216	
-0.504456	
-0.499023	
-0.496643	
-0.492676	
-0.488525	
-0.484253	
-0.479797	
-0.475159	
-0.469971	
-0.46582	
-0.460388	
-0.453369	
-0.446472	
-0.438171	
-0.433044	
-0.425964	
-0.417297	
-0.40863	
-0.399841	
-0.391174	
-0.380554	
-0.371216	
-0.360779	
-0.347961	
-0.33606	
-0.32373	
-0.314697	
-0.304443	
-0.294739	
-0.286377	
-0.27948	
-0.2724	
-0.266296	
-0.262268	
-0.257385	
-0.252808	
-0.24939	
-0.245972	
-0.244812	
-0.242249	
-0.240295	
-0.23938	
-0.239136	
-0.23938	
-0.241028	
-0.245544	
-0.246277	
-0.251221	
-0.255127	
-0.26123	
-0.267151	
-0.272278	
-0.277222	
-0.284241	
-0.289551	
-0.295349	
-0.302856	
-0.30542	
-0.310364	
-0.315857	
-0.321411	
-0.326843	
-0.330994	
-0.333984	
-0.339233	
-0.34314	
-0.347107	
-0.352478	
-0.35437	
-0.356567	
-0.358826	
-0.362488	
-0.365479	
-0.367371	
-0.369629	
-0.371948	
-0.374207	
-0.375549	
-0.376587	
-0.377319	
-0.377747	
-0.378296	
-0.378113	
-0.379211	
-0.379395	
-0.3797	
-0.380188	
-0.380493	
-0.380432	
-0.381042	
-0.38208	
-0.38092	
-0.380493	
-0.379089	
-0.381409	
-0.380615	
-0.380493	
-0.380493	
-0.381165	
-0.379883	
-0.380249	
-0.381897	
-0.379761	
-0.380371	
-0.380371	
-0.381104	
-0.381165	
-0.381714	
-0.382019	
-0.382874	
-0.38269	
-0.382813	
-0.384094	
-0.383728	
-0.383179	
-0.382935	
-0.381104	
-0.382935	
-0.383484	
-0.382813	
-0.382263	
-0.382874	
-0.382202	
-0.382141	
-0.382813	
-0.381042	
-0.380676	
-0.379456	
-0.379211	
-0.379639	
-0.379211	
-0.378235	
-0.37793	
-0.377808	
-0.377808	
-0.377991	
-0.37854	
-0.375488	
-0.374817	
-0.37323	
-0.373474	
-0.373779	
-0.373108	
-0.371887	
-0.3703	
-0.369629	
-0.368713	
-0.368164	
-0.367493	
-0.365479	
-0.36377	
-0.361694	
-0.363281	
-0.362976	
-0.362061	
-0.362	
-0.361938	
-0.362	
-0.362244	
-0.363647	
-0.361633	
-0.362732	
-0.362	
-0.361755	
-0.363708	
-0.363586	
-0.36322	
-0.364624	
-0.365051	
-0.365906	
-0.367371	
-0.367981	
-0.368225	
-0.36792	
-0.368103	
-0.370361	
-0.370605	
-0.370544	
-0.371643	
-0.372253	
-0.372864	
-0.374695	
-0.374878	
-0.374023	
-0.374329	
-0.373901	
-0.376099	
-0.377747	
-0.37915	
-0.379822	
-0.380676	
-0.380981	
-0.382385	
-0.383911	
-0.382629	
-0.38208	
-0.381836	
-0.383545	
-0.384399	
-0.385132	
-0.384644	
-0.385925	
-0.385986	
-0.38678	
-0.388611	
-0.387146	
-0.387024	
-0.386536	
-0.385803	
-0.387146	
-0.387085	
-0.387085	
-0.386963	
-0.386658	
-0.386597	
-0.386414	
-0.388977	
-0.386597	
-0.385986	
-0.384705	
-0.384521	
-0.385681	
-0.385254	
-0.383545	
-0.384521	
-0.384644	
-0.384949	
-0.384583	
-0.386169	
-0.38446	
-0.383545	
-0.382996	
-0.384216	
-0.384033	
-0.384277	
-0.383301	
-0.384827	
-0.384827	
-0.384521	
-0.385986	
-0.386414	
-0.38446	
-0.384338	
-0.383728	
-0.384155	
-0.384399	
-0.384094	
-0.384216	
-0.384583	
-0.384827	
-0.385376	
-0.385437	
-0.384399	
-0.384583	
-0.384216	
-0.382874	
-0.384521	
-0.384521	
-0.383667	
-0.383179	
-0.383606	
-0.383972	
-0.385376	
-0.386353	
-0.38562	
-0.385315	
-0.385315	
-0.385559	
-0.385681	
-0.385925	
-0.385864	
-0.385681	
-0.385742	
-0.38562	
-0.385986	
-0.386719	
-0.384583	
-0.383972	
-0.382751	
-0.383789	
-0.384521	
-0.38385	
-0.383179	
-0.38385	
-0.383484	
-0.383301	
-0.384094	
-0.383179	
-0.382263	
-0.381714	
-0.382141	
-0.382446	
-0.382751	
-0.382019	
-0.383057	
-0.383484	
-0.38324	
-0.38446	
-0.384705	
-0.384644	
-0.383179	
-0.384644	
-0.385498	
-0.385925	
-0.385437	
-0.385498	
-0.386108	
-0.386475	
-0.387512	
-0.387024	
-0.385864	
-0.386597	
-0.386353	
-0.387939	
-0.387939	
-0.387634	
-0.386902	
-0.387146	
-0.387695	
-0.388428	
-0.389282	
-0.387146	
-0.386841	
-0.386841	
-0.387756	
-0.388489	
-0.387878	
-0.388184	
-0.388184	
-0.388123	
-0.388184	
-0.390442	
-0.389832	
-0.388855	
-0.388245	
-0.387878	
-0.390259	
-0.38855	
-0.38855	
-0.388855	
-0.388733	
-0.389038	
-0.389526	
-0.390869	
-0.388916	
-0.388855	
-0.387756	
-0.388977	
-0.389648	
-0.389221	
-0.389404	
-0.389465	
-0.389648	
-0.389893	
-0.390564	
-0.391602	
-0.390869	
-0.390259	
-0.389221	
-0.391785	
-0.391724	
-0.391663	
-0.391663	
-0.391968	
-0.391907	
-0.391907	
-0.393982	
-0.391968	
-0.391479	
-0.391235	
-0.390015	
-0.39209	
-0.390991	
-0.391541	
-0.390503	
-0.391174	
-0.391174	
-0.390198	
-0.391724	
-0.389954	
-0.389038	
-0.388306	
-0.38678	
-0.389648	
-0.388489	
-0.388245	
-0.388062	
-0.388062	
-0.387939	
-0.388245	
-0.388916	
-0.386841	
-0.385742	
-0.384155	
-0.384949	
-0.386414	
-0.386169	
-0.385803	
-0.385193	
-0.384827	
-0.384216	
-0.385437	
-0.386108	
-0.384216	
-0.382751	
-0.38208	
-0.383606	
-0.383179	
-0.383301	
-0.382629	
-0.380615	
-0.381714	
-0.382385	
-0.383667	
-0.381653	
-0.381714	
-0.381287	
-0.380676	
-0.382751	
-0.382263	
-0.382446	
-0.382446	
-0.383118	
-0.38385	
-0.383972	
-0.38501	
-0.383911	
-0.383423	
-0.382568	
-0.38446	
-0.384827	
-0.385315	
-0.385315	
-0.384644	
-0.386658	
-0.388489	
-0.389771	
-0.388428	
-0.387085	
-0.386719	
-0.38623	
-0.387268	
-0.387085	
-0.387146	
-0.387512	
-0.38623	
-0.388123	
-0.388977	
-0.388977	
-0.38855	
-0.388	
-0.386841	
-0.38739	
-0.388977	
-0.388489	
-0.388245	
-0.388733	
-0.388672	
-0.389526	
-0.390076	
-0.389648	
-0.388489	
-0.388611	
-0.387329	
-0.387268	
-0.388672	
-0.388306	
-0.387451	
-0.386963	
-0.387634	
-0.388062	
-0.388184	
-0.387878	
-0.386597	
-0.386353	
-0.38562	
-0.386536	
-0.387817	
-0.387634	
-0.388123	
-0.386963	
-0.389038	
-0.389893	
-0.391174	
-0.390747	
-0.389893	
-0.388977	
-0.389587	
-0.391541	
-0.391602	
-0.391724	
-0.392029	
-0.391785	
-0.392944	
-0.394043	
-0.394287	
-0.393433	
-0.393372	
-0.392029	
-0.392944	
-0.393555	
-0.393188	
-0.393188	
-0.392578	
-0.391357	
-0.391846	
-0.393127	
-0.392639	
-0.391846	
-0.390747	
-0.389526	
-0.389404	
-0.391052	
-0.389893	
-0.389648	
-0.389526	
-0.388977	
-0.389587	
-0.391174	
-0.389221	
-0.387146	
-0.385864	
-0.385498	
-0.38562	
-0.386719	
-0.385925	
-0.384766	
-0.384827	
-0.38446	
-0.385437	
-0.385742	
-0.384216	
-0.383789	
-0.38208	
-0.382507	
-0.381897	
-0.384033	
-0.382874	
-0.382385	
-0.382324	
-0.382813	
-0.383789	
-0.383484	
-0.383484	
-0.382874	
-0.382568	
-0.383118	
-0.383728	
-0.385437	
-0.384155	
-0.38385	
-0.384277	
-0.385803	
-0.386841	
-0.386963	
-0.387146	
-0.386047	
-0.386597	
-0.387024	
-0.387268	
-0.388123	
-0.387634	
-0.387817	
-0.387756	
-0.389099	
-0.389343	
-0.388306	
-0.388916	
-0.387146	
-0.387207	
-0.387695	
-0.388977	
-0.388184	
-0.388489	
-0.388489	
-0.387817	
-0.389709	
-0.389526	
-0.389343	
-0.389587	
-0.388977	
-0.388794	
-0.388245	
-0.389526	
-0.389709	
-0.390259	
-0.390015	
-0.389526	
-0.391663	
-0.390747	
-0.390869	
-0.389526	
-0.388977	
-0.390686	
-0.390808	
-0.391541	
-0.390686	
-0.389648	
-0.389587	
-0.388977	
-0.39032	
-0.390137	
-0.389893	
-0.388428	
-0.389221	
-0.389832	
-0.390503	
-0.39093	
-0.390808	
-0.390381	
-0.390991	
-0.391174	
-0.39209	
-0.392151	
-0.392212	
-0.390808	
-0.391235	
-0.392395	
-0.393127	
-0.393616	
-0.393311	
-0.393799	
-0.393433	
-0.394043	
-0.393921	
-0.393372	
-0.393188	
-0.391907	
-0.391968	
-0.3927	
-0.392761	
-0.392822	
-0.391907	
-0.391602	
-0.391357	
-0.392151	
-0.391846	
-0.39093	
-0.390076	
-0.388977	
-0.390137	
-0.389587	
-0.390381	
-0.390442	
-0.388855	
-0.389038	
-0.389038	
-0.389709	
-0.39032	
-0.389709	
-0.388367	
-0.389526	
-0.389343	
-0.389099	
-0.389954	
-0.390686	
-0.389221	
-0.388916	
-0.389221	
-0.390686	
-0.390198	
-0.389709	
-0.388306	
-0.388855	
-0.388794	
-0.388245	
-0.388611	
-0.389771	
-0.388367	
-0.388489	
-0.389404	
-0.389526	
-0.388977	
-0.389221	
-0.388672	
-0.388184	
-0.388611	
-0.389343	
-0.389221	
-0.389343	
-0.388855	
-0.388062	
-0.389404	
-0.389099	
-0.38855	
-0.387878	
-0.387329	
-0.387207	
-0.38678	
-0.387146	
-0.387512	
-0.386841	
-0.387146	
-0.386719	
-0.386841	
-0.386902	
-0.386475	
-0.385803	
-0.38501	
-0.384949	
-0.38501	
-0.386047	
-0.387207	
-0.386108	
-0.38678	
-0.387329	
-0.386719	
-0.387939	
-0.387634	
-0.385864	
-0.38739	
-0.387451	
-0.388184	
-0.388184	
-0.389404	
-0.389282	
-0.389526	
-0.390259	
-0.389526	
-0.391113	
-0.391052	
-0.38916	
-0.390503	
-0.39032	
-0.391479	
-0.391541	
-0.39325	
-0.393188	
-0.392883	
-0.393555	
-0.392517	
-0.394104	
-0.393677	
-0.39325	
-0.394287	
-0.393738	
-0.39502	
-0.395447	
-0.396118	
-0.395264	
-0.395813	
-0.397217	
-0.396057	
-0.39801	
-0.396667	
-0.396729	
-0.396362	
-0.396118	
-0.396729	
-0.396912	
-0.397156	
-0.396057	
-0.396301	
-0.396729	
-0.395813	
-0.395874	
-0.394104	
-0.393799	
-0.39325	
-0.394104	
-0.393555	
-0.393555	
-0.394165	
-0.392761	
-0.392578	
-0.392639	
-0.391357	
-0.391174	
-0.389526	
-0.389587	
-0.389954	
-0.391113	
-0.39093	
-0.390869	
-0.391113	
-0.391907	
-0.391357	
-0.391296	
-0.391846	
-0.390747	
-0.390015	
-0.390076	
-0.39032	
-0.391418	
-0.391479	
-0.391418	
-0.390991	
-0.391052	
-0.391357	
-0.391418	
-0.392456	
-0.390869	
-0.390137	
-0.390137	
-0.390869	
-0.391113	
-0.391174	
-0.391418	
-0.391663	
-0.391663	
-0.392517	
-0.391296	
-0.393982	
-0.391968	
-0.390686	
-0.391785	
-0.391968	
-0.392639	
-0.392029	
-0.392212	
-0.392334	
-0.391724	
-0.392273	
-0.390137	
-0.391785	
-0.389771	
-0.388306	
-0.388672	
-0.388733	
-0.389404	
-0.388855	
-0.38916	
-0.387939	
-0.387878	
-0.387878	
-0.386353	
-0.387024	
-0.384949	
-0.385559	
-0.384949	
-0.385925	
-0.386658	
-0.386719	
-0.38678	
-0.386169	
-0.38678	
-0.387329	
-0.387329	
-0.38739	
-0.386841	
-0.387878	
-0.387512	
-0.388245	
-0.388428	
-0.389465	
-0.390686	
-0.389465	
-0.390686	
-0.390686	
-0.391174	
-0.389771	
-0.390076	
-0.39032	
-0.390076	
-0.3927	
-0.393738	
-0.394287	
-0.394958	
-0.394714	
-0.39447	
-0.394653	
-0.395874	
-0.394348	
-0.394653	
-0.395142	
-0.394958	
-0.396545	
-0.396851	
-0.39679	
-0.39801	
-0.396912	
-0.397949	
-0.397339	
-0.397034	
-0.396606	
-0.395691	
-0.395508	
-0.396484	
-0.396912	
-0.396179	
-0.396179	
-0.396179	
-0.395142	
-0.395996	
-0.395264	
-0.39563	
-0.393005	
-0.392883	
-0.392639	
-0.392639	
-0.392944	
-0.392334	
-0.392395	
-0.392456	
-0.392395	
-0.392395	
-0.392212	
-0.392029	
-0.388916	
-0.391113	
-0.391541	
-0.391785	
-0.391541	
-0.391296	
-0.391235	
-0.391235	
-0.391846	
-0.391968	
-0.390869	
-0.390747	
-0.389465	
-0.39093	
-0.39032	
-0.390442	
-0.390442	
-0.390747	
-0.390869	
-0.391785	
-0.391235	
-0.39032	
-0.388855	
-0.389709	
-0.388428	
-0.388916	
-0.389526	
-0.388916	
-0.388062	
-0.388855	
-0.388977	
-0.389587	
-0.391235	
-0.39032	
-0.389648	
-0.390686	
-0.389404	
-0.390442	
-0.389954	
-0.39032	
-0.390076	
-0.39032	
-0.390381	
-0.389832	
-0.390625	
-0.389954	
-0.388611	
-0.387878	
-0.387451	
-0.388611	
-0.386719	
-0.387634	
-0.387329	
-0.387207	
-0.387573	
-0.386658	
-0.387634	
-0.387207	
-0.38623	
-0.385315	
-0.386108	
-0.386536	
-0.385315	
-0.38678	
-0.386841	
-0.386902	
-0.387512	
-0.387878	
-0.38916	
-0.388855	
-0.389099	
-0.387695	
-0.387756	
-0.388916	
-0.388855	
-0.388916	
-0.389221	
-0.389526	
-0.389343	
-0.390503	
-0.391846	
-0.390442	
-0.392151	
-0.389282	
-0.389893	
-0.390198	
-0.390198	
-0.390442	
-0.390747	
-0.390442	
-0.390442	
-0.390625	
-0.391174	
-0.389954	
-0.391174	
-0.389221	
-0.390564	
-0.390625	
-0.391174	
-0.391235	
-0.392029	
-0.392578	
-0.391846	
-0.392395	
-0.392395	
-0.391846	
-0.391785	
-0.390686	
-0.391724	
-0.390808	
-0.390686	
-0.391235	
-0.391418	
-0.391907	
-0.391418	
-0.3927	
-0.392334	
-0.391602	
-0.391785	
-0.390259	
-0.392029	
-0.391418	
-0.391113	
-0.392578	
-0.392578	
-0.393005	
-0.392944	
-0.393921	
-0.393433	
-0.393616	
-0.393677	
-0.392578	
-0.393372	
-0.392578	
-0.39386	
-0.39386	
-0.393616	
-0.393738	
-0.393066	
-0.39386	
-0.392517	
-0.393066	
-0.392334	
-0.391357	
-0.392456	
-0.391296	
-0.392151	
-0.391846	
-0.391541	
-0.391052	
-0.391235	
-0.39093	
-0.389709	
-0.390198	
-0.388855	
-0.387451	
-0.389038	
-0.389221	
-0.389282	
-0.389282	
-0.387878	
-0.387451	
-0.388	
-0.387878	
-0.386841	
-0.387512	
-0.386719	
-0.384766	
-0.385986	
-0.385925	
-0.386047	
-0.385925	
-0.384949	
-0.384766	
-0.386047	
-0.385437	
-0.383362	
-0.384705	
-0.38324	
-0.38208	
-0.383606	
-0.383423	
-0.38385	
-0.382874	
-0.38324	
-0.384155	
-0.384521	
-0.384827	
-0.383118	
-0.384827	
-0.384338	
-0.384216	
-0.384399	
-0.385132	
-0.385986	
-0.385864	
-0.38739	
-0.386841	
-0.387268	
-0.388672	
-0.387146	
-0.387024	
-0.38739	
-0.388672	
-0.388916	
-0.390015	
-0.389465	
-0.389404	
-0.390625	
-0.389282	
-0.389282	
-0.390747	
-0.389282	
-0.388062	
-0.388489	
-0.389099	
-0.388184	
-0.389404	
-0.388916	
-0.389832	
-0.390076	
-0.390015	
-0.389771	
-0.390625	
-0.389954	
-0.389221	
-0.389038	
-0.389526	
-0.388855	
-0.390076	
-0.389893	
-0.389709	
-0.389832	
-0.390259	
-0.388672	
-0.389893	
-0.389221	
-0.388489	
-0.386902	
-0.387573	
-0.387634	
-0.388306	
-0.388184	
-0.387939	
-0.388367	
-0.389038	
-0.388855	
-0.389771	
-0.389709	
-0.389465	
-0.388733	
-0.390015	
-0.390259	
-0.390747	
-0.391052	
-0.391235	
-0.392395	
-0.392578	
-0.392822	
-0.393311	
-0.393616	
-0.392944	
-0.393799	
-0.394104	
-0.393982	
-0.394592	
-0.394226	
-0.393982	
-0.394409	
-0.394287	
-0.394775	
-0.393677	
-0.394287	
-0.393921	
-0.392883	
-0.392517	
-0.392639	
-0.391968	
-0.391663	
-0.391724	
-0.391479	
-0.390869	
-0.391663	
-0.390564	
-0.39032	
-0.390381	
-0.390198	
-0.389893	
-0.389282	
-0.387756	
-0.387207	
-0.387817	
-0.387451	
-0.386658	
-0.38739	
-0.386658	
-0.385864	
-0.385559	
-0.385437	
-0.38562	
-0.385315	
-0.384521	
-0.384888	
-0.384644	
-0.384766	
-0.383972	
-0.384644	
-0.382751	
-0.384338	
-0.38385	
-0.382813	
-0.383484	
-0.383728	
-0.38385	
-0.384094	
-0.38501	
-0.386108	
-0.385559	
-0.385925	
-0.38446	
-0.385498	
-0.385986	
-0.385986	
-0.38562	
-0.387146	
-0.388062	
-0.387573	
-0.388672	
-0.388916	
-0.389038	
-0.389526	
-0.387573	
-0.388489	
-0.389221	
-0.389954	
-0.388428	
-0.388733	
-0.389099	
-0.389099	
-0.389832	
-0.389893	
-0.390564	
-0.390503	
-0.388123	
-0.389648	
-0.39032	
-0.390015	
-0.390381	
-0.390564	
-0.390442	
-0.390625	
-0.391724	
-0.390503	
-0.391663	
-0.391296	
-0.390503	
-0.39093	
-0.391174	
-0.391052	
-0.390991	
-0.391357	
-0.391113	
-0.391846	
-0.393738	
-0.391968	
-0.391541	
-0.390869	
-0.391479	
-0.390442	
-0.390015	
-0.389771	
-0.390198	
-0.390259	
-0.391174	
-0.391479	
-0.393005	
-0.391724	
-0.39209	
-0.391541	
-0.392395	
-0.391357	
	
