C:\DOCUMENTS AND SETTINGS\JASON\DESKTOP\UFRJ\UFRJ EPHYS\RSCI-BM 12 WK SERIES\070803-RSCI-BM-11\RSCI-BM-11-LEMG\070803-RSCI-BM-11-LEMG-0001.ACQ
0.025000 msec/sample
1 channel
Analog input
Volts
CH1	
2000	
-0.392639	
-0.391357	
-0.392212	
-0.39209	
-0.390991	
-0.3927	
-0.392578	
-0.391541	
-0.392334	
-0.392883	
-0.391785	
-0.392883	
-0.393188	
-0.393799	
-0.39325	
-0.394043	
-0.394897	
-0.393616	
-0.393799	
-0.395325	
-0.393433	
-0.394714	
-0.394958	
-0.394287	
-0.394775	
-0.394897	
-0.395264	
-0.394836	
-0.395386	
-0.395752	
-0.394165	
-0.394165	
-0.395142	
-0.392822	
-0.393433	
-0.393494	
-0.393677	
-0.392578	
-0.392822	
-0.394409	
-0.393005	
-0.392578	
-0.393372	
-0.391174	
-0.391541	
-0.39093	
-0.389587	
-0.389587	
-0.389771	
-0.389832	
-0.389221	
-0.389221	
-0.389832	
-0.389221	
-0.389099	
-0.389832	
-0.389832	
-0.388916	
-0.38916	
-0.388916	
-0.389404	
-0.389221	
-0.389709	
-0.389587	
-0.390503	
-0.390076	
-0.390686	
-0.39032	
-0.390625	
-0.390076	
-0.390076	
-0.390015	
-0.389893	
-0.390503	
-0.390198	
-0.390686	
-0.390991	
-0.391602	
-0.391541	
-0.391174	
-0.391296	
-0.391296	
-0.391541	
-0.391174	
-0.390503	
-0.390869	
-0.390686	
-0.389832	
-0.390869	
-0.390991	
-0.391602	
-0.391907	
-0.392639	
-0.39325	
-0.393005	
-0.392883	
-0.39325	
-0.392273	
-0.392029	
-0.392639	
-0.392822	
-0.393372	
-0.393066	
-0.394226	
-0.394653	
-0.395142	
-0.394714	
-0.393616	
-0.393372	
-0.392334	
-0.391846	
-0.391907	
-0.392761	
-0.391724	
-0.392395	
-0.392517	
-0.392517	
-0.392212	
-0.393066	
-0.393311	
-0.391418	
-0.391907	
-0.391724	
-0.390442	
-0.389832	
-0.389954	
-0.390076	
-0.391296	
-0.390991	
-0.391541	
-0.391052	
-0.392334	
-0.392334	
-0.391235	
-0.391235	
-0.390503	
-0.389954	
-0.390381	
-0.389954	
-0.390686	
-0.390503	
-0.390137	
-0.391052	
-0.390869	
-0.39093	
-0.390503	
-0.389221	
-0.39032	
-0.389282	
-0.389404	
-0.389771	
-0.390381	
-0.390381	
-0.390503	
-0.390808	
-0.391541	
-0.390869	
-0.391785	
-0.392273	
-0.39032	
-0.392029	
-0.392212	
-0.391113	
-0.391785	
-0.391479	
-0.392334	
-0.392639	
-0.393005	
-0.39386	
-0.393188	
-0.393433	
-0.39386	
-0.392212	
-0.3927	
-0.392822	
-0.392822	
-0.393311	
-0.392822	
-0.393616	
-0.393066	
-0.393738	
-0.393372	
-0.393677	
-0.393982	
-0.394104	
-0.392334	
-0.39386	
-0.393127	
-0.392639	
-0.392822	
-0.391846	
-0.392395	
-0.392273	
-0.39209	
-0.391907	
-0.391846	
-0.39093	
-0.367432	
-0.365417	
-0.369141	
-0.3703	
-0.368835	
-0.369629	
-0.398743	
-0.394043	
-0.389099	
-0.388245	
-0.388	
-0.388428	
-0.388245	
-0.388	
-0.387512	
-0.387451	
-0.387024	
-0.388367	
-0.387634	
-0.388306	
-0.388855	
-0.389587	
-0.389465	
-0.39032	
-0.391174	
-0.391968	
-0.390747	
-0.391235	
-0.391235	
-0.390381	
-0.391602	
-0.391785	
-0.392578	
-0.393616	
-0.393127	
-0.393494	
-0.392944	
-0.393188	
-0.393738	
-0.392212	
-0.392273	
-0.39209	
-0.391602	
-0.392029	
-0.391541	
-0.391174	
-0.390808	
-0.389709	
-0.390381	
-0.391174	
-0.391785	
-0.393433	
-0.393433	
-0.395569	
-0.397949	
-0.400574	
-0.403381	
-0.406006	
-0.409302	
-0.413147	
-0.416504	
-0.421021	
-0.424316	
-0.429321	
-0.434387	
-0.437927	
-0.443176	
-0.446472	
-0.453674	
-0.458496	
-0.463318	
-0.467651	
-0.471619	
-0.47467	
-0.477539	
-0.478394	
-0.479736	
-0.478516	
-0.479736	
-0.480408	
-0.47876	
-0.4776	
-0.477356	
-0.477966	
-0.478638	
-0.480408	
-0.48175	
-0.482544	
-0.482544	
-0.482727	
-0.483887	
-0.486511	
-0.487732	
-0.490234	
-0.493042	
-0.493835	
-0.496765	
-0.497986	
-0.500305	
-0.50177	
-0.502319	
-0.504028	
-0.503967	
-0.50415	
-0.505798	
-0.505188	
-0.505188	
-0.505981	
-0.506653	
-0.507629	
-0.508179	
-0.51001	
-0.510376	
-0.510498	
-0.510437	
-0.510559	
-0.510681	
-0.510681	
-0.510559	
-0.510132	
-0.509277	
-0.508545	
-0.506714	
-0.505127	
-0.502441	
-0.500061	
-0.497192	
-0.492371	
-0.487793	
-0.485352	
-0.478882	
-0.474854	
-0.470581	
-0.464844	
-0.461243	
-0.456848	
-0.453125	
-0.447876	
-0.442932	
-0.438782	
-0.433655	
-0.42749	
-0.423889	
-0.417969	
-0.410889	
-0.406128	
-0.399231	
-0.393311	
-0.385315	
-0.379272	
-0.370422	
-0.361694	
-0.353882	
-0.344666	
-0.3349	
-0.327576	
-0.316895	
-0.306885	
-0.298523	
-0.289368	
-0.281616	
-0.274353	
-0.268555	
-0.263245	
-0.258301	
-0.254578	
-0.25238	
-0.249207	
-0.249939	
-0.249146	
-0.248901	
-0.249329	
-0.25061	
-0.252075	
-0.254333	
-0.255798	
-0.257263	
-0.261169	
-0.265259	
-0.267761	
-0.272888	
-0.276611	
-0.282166	
-0.28717	
-0.29187	
-0.296753	
-0.302124	
-0.306641	
-0.310242	
-0.31604	
-0.320557	
-0.324768	
-0.330017	
-0.333069	
-0.337585	
-0.340759	
-0.344482	
-0.347412	
-0.351257	
-0.354309	
-0.357544	
-0.360962	
-0.363647	
-0.364929	
-0.368896	
-0.370422	
-0.373718	
-0.375305	
-0.377808	
-0.379639	
-0.382446	
-0.383545	
-0.384155	
-0.38562	
-0.38678	
-0.38623	
-0.388489	
-0.387939	
-0.389038	
-0.388916	
-0.389221	
-0.390259	
-0.390808	
-0.389099	
-0.389648	
-0.391357	
-0.391418	
-0.389954	
-0.390991	
-0.389099	
-0.389832	
-0.38916	
-0.388794	
-0.388916	
-0.389221	
-0.388733	
-0.389221	
-0.388306	
-0.388489	
-0.387329	
-0.38623	
-0.384888	
-0.383606	
-0.38385	
-0.383484	
-0.382813	
-0.382324	
-0.382019	
-0.381226	
-0.379578	
-0.379272	
-0.376526	
-0.37439	
-0.374084	
-0.371521	
-0.371582	
-0.369751	
-0.367188	
-0.367126	
-0.366272	
-0.364807	
-0.36322	
-0.362305	
-0.362	
-0.357788	
-0.356506	
-0.353577	
-0.35199	
-0.350647	
-0.34845	
-0.346863	
-0.345825	
-0.344238	
-0.344238	
-0.342163	
-0.342896	
-0.340637	
-0.339905	
-0.34082	
-0.339172	
-0.340393	
-0.340881	
-0.340942	
-0.341919	
-0.342407	
-0.344543	
-0.344604	
-0.346619	
-0.346436	
-0.346558	
-0.349976	
-0.348877	
-0.350952	
-0.352295	
-0.353027	
-0.354431	
-0.355591	
-0.357056	
-0.357727	
-0.35791	
-0.359192	
-0.358398	
-0.35968	
-0.35968	
-0.359802	
-0.361572	
-0.361389	
-0.362549	
-0.363159	
-0.364075	
-0.365295	
-0.364929	
-0.36676	
-0.367065	
-0.365906	
-0.367737	
-0.36792	
-0.368835	
-0.36853	
-0.369873	
-0.370178	
-0.370422	
-0.371887	
-0.37146	
-0.372986	
-0.371704	
-0.371338	
-0.374084	
-0.372437	
-0.373779	
-0.375122	
-0.375671	
-0.37616	
-0.376465	
-0.37738	
-0.378418	
-0.379089	
-0.379395	
-0.380188	
-0.379883	
-0.381042	
-0.38092	
-0.380188	
-0.381592	
-0.382813	
-0.382568	
-0.382385	
-0.382629	
-0.383118	
-0.381836	
-0.381836	
-0.381714	
-0.381287	
-0.381042	
-0.381409	
-0.381104	
-0.380737	
-0.380371	
-0.381287	
-0.380981	
-0.381287	
-0.381592	
-0.380554	
-0.380188	
-0.379333	
-0.379272	
-0.379272	
-0.37915	
-0.38031	
-0.379333	
-0.380676	
-0.380981	
-0.381531	
-0.382324	
-0.38208	
-0.381653	
-0.381775	
-0.381165	
-0.382751	
-0.381836	
-0.38147	
-0.381775	
-0.381592	
-0.381897	
-0.382507	
-0.382813	
-0.382813	
-0.381592	
-0.382263	
-0.382324	
-0.381653	
-0.381775	
-0.381104	
-0.382385	
-0.381897	
-0.382629	
-0.382629	
-0.38324	
-0.384827	
-0.384277	
-0.384827	
-0.38501	
-0.382629	
-0.384399	
-0.384094	
-0.384827	
-0.385498	
-0.386414	
-0.386597	
-0.387085	
-0.387268	
-0.387695	
-0.387634	
-0.388489	
-0.38739	
-0.389709	
-0.389404	
-0.387329	
-0.388733	
-0.38855	
-0.387756	
-0.388	
-0.388123	
-0.388977	
-0.387085	
-0.387573	
-0.387207	
-0.388367	
-0.387634	
-0.386292	
-0.387146	
-0.386536	
-0.387451	
-0.387512	
-0.388367	
-0.390259	
-0.388489	
-0.388855	
-0.38855	
-0.388367	
-0.388611	
-0.388123	
-0.388611	
-0.387634	
-0.38855	
-0.388062	
-0.388428	
-0.389343	
-0.388	
-0.387817	
-0.388184	
-0.387024	
-0.387756	
-0.386841	
-0.385986	
-0.38623	
-0.386047	
-0.385925	
-0.386047	
-0.386475	
-0.387024	
-0.38623	
-0.387268	
-0.384888	
-0.386353	
-0.385559	
-0.386169	
-0.386475	
-0.385742	
-0.386841	
-0.387268	
-0.387817	
-0.387268	
-0.387878	
-0.388306	
-0.387817	
-0.388367	
-0.388855	
-0.387756	
-0.388062	
-0.388855	
-0.388672	
-0.388672	
-0.389465	
-0.390381	
-0.389709	
-0.390259	
-0.391052	
-0.390198	
-0.389832	
-0.391113	
-0.390747	
-0.390747	
-0.390869	
-0.391418	
-0.391052	
-0.391785	
-0.392273	
-0.392212	
-0.391907	
-0.3927	
-0.391846	
-0.390991	
-0.390991	
-0.390442	
-0.390259	
-0.389099	
-0.389954	
-0.389526	
-0.390503	
-0.389282	
-0.389282	
-0.390076	
-0.388428	
-0.388306	
-0.388428	
-0.386353	
-0.386658	
-0.387085	
-0.387024	
-0.386963	
-0.386841	
-0.387573	
-0.386963	
-0.386047	
-0.387695	
-0.387573	
-0.386414	
-0.387085	
-0.38678	
-0.386963	
-0.386841	
-0.387939	
-0.387939	
-0.388916	
-0.38855	
-0.388916	
-0.388916	
-0.388062	
-0.388733	
-0.388916	
-0.387634	
-0.388306	
-0.38855	
-0.388794	
-0.38916	
-0.389404	
-0.390564	
-0.39032	
-0.389893	
-0.389954	
-0.390991	
-0.389099	
-0.389099	
-0.389404	
-0.389282	
-0.389404	
-0.388855	
-0.389343	
-0.390198	
-0.390503	
-0.391846	
-0.392151	
-0.390808	
-0.392029	
-0.391418	
-0.391479	
-0.391296	
-0.390869	
-0.392151	
-0.39209	
-0.391479	
-0.392273	
-0.392456	
-0.393127	
-0.39325	
-0.394104	
-0.391968	
-0.391846	
-0.391846	
-0.391052	
-0.391296	
-0.391296	
-0.391724	
-0.392212	
-0.391357	
-0.391907	
-0.39209	
-0.39093	
-0.391541	
-0.390198	
-0.390564	
-0.390381	
-0.390015	
-0.389771	
-0.389832	
-0.389587	
-0.390747	
-0.390564	
-0.391113	
-0.390747	
-0.390686	
-0.390869	
-0.390259	
-0.39032	
-0.389221	
-0.390564	
-0.39032	
-0.389771	
-0.390442	
-0.390198	
-0.390076	
-0.390198	
-0.389282	
-0.390259	
-0.38855	
-0.388184	
-0.389343	
-0.38916	
-0.389404	
-0.389709	
-0.389709	
-0.390381	
-0.390625	
-0.391541	
-0.391052	
-0.390625	
-0.391541	
-0.389832	
-0.390869	
-0.390015	
-0.390686	
-0.391907	
-0.392334	
-0.392395	
-0.392517	
-0.392883	
-0.393311	
-0.392456	
-0.393127	
-0.392639	
-0.392029	
-0.392578	
-0.392395	
-0.392944	
-0.393066	
-0.392761	
-0.393127	
-0.394287	
-0.39386	
-0.39386	
-0.393066	
-0.3927	
-0.391479	
-0.391907	
-0.392883	
-0.392944	
-0.393494	
-0.393005	
-0.392639	
-0.392822	
-0.391968	
-0.392212	
-0.391541	
-0.391174	
-0.391174	
-0.390198	
-0.389832	
-0.388672	
-0.388489	
-0.389038	
-0.388916	
-0.388428	
-0.388245	
-0.387756	
-0.388	
-0.386902	
-0.386414	
-0.386047	
-0.385559	
-0.387451	
-0.387024	
-0.388184	
-0.388733	
-0.388428	
-0.388	
-0.389343	
-0.389893	
-0.389221	
-0.389221	
-0.389648	
-0.389709	
-0.390869	
-0.389832	
-0.390198	
-0.391296	
-0.391479	
-0.391663	
-0.392334	
-0.392639	
-0.39209	
-0.391907	
-0.392456	
-0.391724	
-0.391113	
-0.391846	
-0.391174	
-0.390259	
-0.391846	
-0.391357	
-0.391235	
-0.392334	
-0.392273	
-0.392212	
-0.391296	
-0.390076	
-0.391174	
-0.391418	
-0.391846	
-0.391418	
-0.391724	
-0.391296	
-0.392151	
-0.391968	
-0.392578	
-0.39209	
-0.391724	
-0.391785	
-0.391174	
-0.390747	
-0.390381	
-0.389709	
-0.389526	
-0.389709	
-0.389465	
-0.39032	
-0.391052	
-0.390564	
-0.390625	
-0.389099	
-0.389404	
-0.388245	
-0.387573	
-0.388184	
-0.386963	
-0.387451	
-0.387085	
-0.386536	
-0.386414	
-0.387451	
-0.387146	
-0.387695	
-0.387573	
-0.387817	
-0.387878	
-0.388245	
-0.388428	
-0.388245	
-0.387451	
-0.388428	
-0.388489	
-0.388916	
-0.389526	
-0.389709	
-0.389038	
-0.38916	
-0.388977	
-0.388184	
-0.388	
-0.388306	
-0.388672	
-0.387024	
-0.388306	
-0.388367	
-0.388794	
-0.388733	
-0.38916	
-0.388855	
-0.388672	
-0.387878	
-0.389221	
-0.389587	
-0.389221	
-0.389465	
-0.389221	
-0.390076	
-0.390625	
-0.392029	
-0.391663	
-0.391052	
-0.391052	
-0.391235	
-0.391541	
-0.39209	
-0.391357	
-0.391174	
-0.391357	
-0.391785	
-0.391479	
-0.391663	
-0.391846	
-0.391479	
-0.390686	
-0.390503	
-0.391418	
-0.389893	
-0.389893	
-0.389832	
-0.388611	
-0.389221	
-0.389343	
-0.38916	
-0.388672	
-0.389771	
-0.389465	
-0.388306	
-0.388062	
-0.388428	
-0.387512	
-0.387634	
-0.388062	
-0.387573	
-0.38678	
-0.387268	
-0.387024	
-0.387451	
-0.386963	
-0.387878	
-0.386963	
-0.38623	
-0.386719	
-0.387207	
-0.386414	
-0.386353	
-0.38739	
-0.386963	
-0.388	
-0.387939	
-0.388672	
-0.388855	
-0.388855	
-0.387756	
-0.387756	
-0.387939	
-0.389465	
-0.389465	
-0.388733	
-0.390259	
-0.391174	
-0.39093	
-0.392029	
-0.392639	
-0.392029	
-0.391602	
-0.390442	
-0.392151	
-0.391663	
-0.392578	
-0.392456	
-0.392395	
-0.392273	
-0.392273	
-0.392151	
-0.392273	
-0.391541	
-0.391968	
-0.391235	
-0.390015	
-0.391052	
-0.389954	
-0.390869	
-0.390564	
-0.390991	
-0.390442	
-0.390808	
-0.391235	
-0.391663	
-0.391052	
-0.391418	
-0.389832	
-0.388794	
-0.390198	
-0.390137	
-0.390991	
-0.389832	
-0.390076	
-0.388794	
-0.390442	
-0.39032	
-0.391113	
-0.389709	
-0.39093	
-0.390503	
-0.390442	
-0.389221	
-0.390259	
-0.389343	
-0.38855	
-0.388794	
-0.388062	
-0.388611	
-0.389221	
-0.388245	
-0.388306	
-0.388	
-0.387573	
-0.388672	
-0.387085	
-0.387024	
-0.387451	
-0.387085	
-0.388062	
-0.388123	
-0.388367	
-0.389282	
-0.38855	
-0.388611	
-0.389038	
-0.388916	
-0.389282	
-0.388977	
-0.389954	
-0.389648	
-0.389282	
-0.388428	
-0.389343	
-0.389648	
-0.390259	
-0.390259	
-0.391418	
-0.390198	
-0.390198	
-0.390198	
-0.390076	
-0.389648	
-0.389465	
-0.390076	
-0.388794	
-0.390198	
-0.390686	
-0.391663	
-0.390442	
-0.391602	
-0.389771	
-0.391907	
-0.391174	
-0.39093	
-0.391418	
-0.391357	
-0.391296	
-0.391541	
-0.391602	
-0.39209	
-0.391296	
-0.390991	
-0.390991	
-0.390442	
-0.390381	
-0.390564	
-0.389587	
-0.389893	
-0.389587	
-0.390015	
-0.389709	
-0.389954	
-0.390381	
-0.389465	
-0.389893	
-0.389343	
-0.387695	
-0.389221	
-0.389038	
-0.388489	
-0.388	
-0.388062	
-0.388245	
-0.38916	
-0.388367	
-0.389404	
-0.388306	
-0.388	
-0.387817	
-0.38855	
-0.388123	
-0.388672	
-0.388672	
-0.387146	
-0.388	
-0.389221	
-0.388367	
-0.388672	
-0.389282	
-0.389465	
-0.389465	
-0.388184	
-0.390076	
-0.390137	
-0.389221	
-0.390381	
-0.390381	
-0.390015	
-0.391724	
-0.392151	
-0.39325	
-0.393127	
-0.393738	
-0.394409	
-0.393127	
-0.394653	
-0.394714	
-0.394043	
-0.394043	
-0.393738	
-0.394287	
-0.394409	
-0.393738	
-0.39447	
-0.393188	
-0.393921	
-0.393555	
-0.391541	
-0.392944	
-0.392456	
-0.391846	
-0.391113	
-0.391174	
-0.391174	
-0.390869	
-0.390625	
-0.392029	
-0.390503	
-0.39032	
-0.389343	
-0.388245	
-0.389771	
-0.389343	
-0.389832	
-0.389526	
-0.389038	
-0.390442	
-0.390808	
-0.391296	
-0.391541	
-0.39093	
-0.391113	
-0.389587	
-0.390808	
-0.391052	
-0.389465	
-0.390869	
-0.389038	
-0.390198	
-0.390564	
-0.391235	
-0.391174	
-0.39032	
-0.390015	
-0.391724	
-0.389709	
-0.391907	
-0.39032	
-0.391174	
-0.390991	
-0.390137	
-0.391235	
-0.391846	
-0.39209	
-0.392578	
-0.391541	
-0.391968	
-0.392273	
-0.392395	
-0.393799	
-0.393005	
-0.392822	
-0.393677	
-0.392883	
-0.39447	
-0.394043	
-0.393921	
-0.394287	
-0.395203	
-0.396545	
-0.395752	
-0.394226	
-0.395752	
-0.393494	
-0.393738	
-0.393494	
-0.392822	
-0.393921	
-0.393494	
-0.393555	
-0.39325	
-0.392944	
-0.393616	
-0.392212	
-0.391663	
-0.394043	
-0.392578	
-0.393372	
-0.392578	
-0.392822	
-0.393555	
-0.394287	
-0.394531	
-0.394226	
-0.393677	
-0.393738	
-0.392151	
-0.393738	
-0.393738	
-0.393494	
-0.392639	
-0.392151	
-0.392517	
-0.392273	
-0.392029	
-0.392944	
-0.392395	
-0.391724	
-0.39093	
-0.390991	
-0.392029	
-0.390137	
-0.390076	
-0.390259	
-0.388855	
-0.391174	
-0.390137	
-0.390625	
-0.391052	
-0.390381	
-0.390991	
-0.390503	
-0.390442	
-0.392395	
-0.39032	
-0.392029	
-0.391663	
-0.390869	
-0.391846	
-0.393005	
-0.392883	
-0.394043	
-0.393372	
-0.393494	
-0.392944	
-0.392639	
-0.394165	
-0.393738	
-0.393982	
-0.39386	
-0.39386	
-0.395203	
-0.395203	
-0.395874	
-0.395813	
-0.395447	
-0.395203	
-0.393982	
-0.395325	
-0.395874	
-0.395691	
-0.395508	
-0.395569	
-0.394409	
-0.395508	
-0.395203	
-0.39563	
-0.394897	
-0.394592	
-0.393982	
-0.393005	
-0.393799	
-0.394104	
-0.393433	
-0.393311	
-0.392517	
-0.392639	
-0.391785	
-0.392273	
-0.392151	
-0.390747	
-0.390808	
-0.39032	
-0.389404	
-0.390991	
-0.389099	
-0.390381	
-0.389832	
-0.387878	
-0.389465	
-0.390137	
-0.389709	
-0.391663	
-0.390564	
-0.391357	
-0.39032	
-0.390076	
-0.392273	
-0.390503	
-0.390869	
-0.390991	
-0.390198	
-0.390625	
-0.391541	
-0.39209	
-0.392273	
-0.391968	
-0.392151	
-0.391418	
-0.391785	
-0.392944	
-0.392151	
-0.392029	
-0.391663	
-0.391235	
-0.392151	
-0.392029	
-0.392883	
-0.392395	
-0.392944	
-0.391418	
-0.390076	
-0.391663	
-0.392822	
-0.392822	
-0.3927	
-0.392944	
-0.393066	
-0.393921	
-0.394104	
-0.395264	
-0.393982	
-0.394775	
-0.394348	
-0.39209	
-0.394104	
-0.393188	
-0.393677	
-0.394836	
-0.393799	
-0.394836	
-0.395081	
-0.394836	
-0.395325	
-0.393982	
-0.394348	
-0.392944	
-0.391235	
-0.393799	
-0.392273	
-0.393005	
-0.392761	
-0.391296	
-0.392822	
-0.3927	
-0.393005	
-0.393982	
-0.391785	
-0.391907	
-0.390564	
-0.390747	
-0.392883	
-0.391846	
-0.391663	
-0.391846	
-0.39093	
-0.391907	
-0.392334	
-0.392212	
-0.392395	
-0.391357	
-0.391663	
-0.39093	
-0.391418	
-0.391724	
-0.390686	
-0.390808	
-0.390747	
-0.390564	
-0.390564	
-0.391113	
-0.391418	
-0.390808	
-0.391357	
-0.390564	
-0.389954	
-0.391968	
-0.391296	
-0.391357	
-0.391174	
-0.391663	
-0.391785	
-0.391663	
-0.392395	
-0.393677	
-0.392395	
-0.39325	
-0.392944	
-0.391235	
-0.394348	
-0.392456	
-0.393555	
-0.394409	
-0.392212	
-0.393188	
-0.393555	
-0.394104	
-0.394836	
-0.394043	
-0.394836	
-0.393799	
-0.393066	
-0.395508	
-0.393555	
-0.39386	
-0.393433	
-0.391541	
-0.393738	
-0.394043	
-0.394836	
-0.395264	
-0.393982	
-0.393982	
-0.393555	
-0.39325	
-0.394348	
-0.392395	
-0.391357	
-0.391113	
-0.389709	
-0.391052	
-0.389893	
-0.391052	
-0.390015	
-0.389954	
-0.388428	
-0.387573	
-0.388367	
-0.387939	
-0.387573	
-0.38739	
-0.387024	
-0.386902	
-0.387024	
-0.388123	
-0.389709	
-0.388733	
-0.388855	
-0.388794	
-0.386963	
-0.389648	
-0.388611	
-0.390259	
-0.389893	
-0.389404	
-0.390503	
-0.390747	
-0.391418	
-0.392395	
-0.39209	
-0.392822	
-0.391357	
-0.392212	
-0.393799	
-0.392578	
-0.391663	
-0.392761	
-0.39032	
-0.392456	
-0.392029	
-0.391541	
-0.392944	
-0.392639	
-0.3927	
-0.391174	
-0.391968	
-0.392578	
-0.391296	
-0.391479	
-0.391357	
-0.389709	
-0.39209	
-0.391907	
-0.392639	
-0.392273	
-0.392395	
-0.392395	
-0.391907	
-0.391418	
-0.392944	
-0.391785	
-0.391907	
-0.390442	
-0.389771	
-0.390747	
-0.390686	
-0.390686	
-0.389771	
-0.389832	
-0.390198	
-0.388672	
-0.390869	
-0.390442	
-0.389282	
-0.388123	
-0.388367	
-0.388672	
-0.38916	
-0.388672	
-0.390442	
-0.386963	
-0.386902	
-0.386108	
-0.385986	
-0.387512	
-0.387207	
-0.388123	
-0.388733	
-0.388	
-0.388794	
-0.388611	
-0.389282	
-0.390198	
-0.388977	
-0.389893	
-0.388733	
-0.388855	
-0.390015	
-0.388123	
-0.389343	
-0.38855	
-0.387451	
-0.388611	
-0.389221	
-0.389404	
-0.388855	
-0.388855	
-0.388977	
-0.388	
-0.388428	
-0.389893	
-0.388855	
-0.388916	
-0.388855	
-0.387817	
-0.389648	
-0.390015	
-0.39093	
-0.390137	
-0.390381	
-0.390381	
-0.38916	
-0.391235	
-0.391785	
-0.391602	
-0.391785	
-0.391785	
-0.390076	
-0.392029	
-0.3927	
-0.39386	
-0.391052	
-0.39209	
-0.391541	
-0.389893	
-0.391235	
-0.391785	
-0.390198	
-0.391235	
-0.390137	
-0.389465	
-0.389465	
-0.390137	
-0.390503	
-0.388916	
-0.389526	
-0.388611	
-0.387878	
-0.389404	
-0.388184	
-0.388428	
-0.388123	
-0.388	
-0.387756	
-0.387939	
-0.388123	
-0.387878	
-0.386902	
-0.388184	
-0.386353	
-0.386963	
-0.387024	
-0.38678	
-0.387085	
-0.387085	
-0.385742	
-0.386902	
-0.387146	
-0.387268	
-0.387329	
-0.387817	
-0.388	
-0.387268	
-0.388367	
-0.389587	
-0.387878	
-0.388062	
-0.388184	
-0.387634	
-0.390198	
-0.390015	
-0.392151	
-0.391113	
-0.391602	
-0.390564	
-0.389221	
-0.392639	
-0.393433	
-0.391541	
-0.391479	
-0.391724	
-0.391479	
-0.392761	
-0.392456	
-0.393677	
-0.391663	
-0.391663	
-0.391235	
-0.390503	
-0.392212	
-0.391968	
-0.391357	
-0.391235	
-0.390625	
-0.390076	
-0.39032	
-0.390991	
-0.392456	
-0.39032	
-0.390625	
-0.390198	
-0.390503	
-0.391418	
-0.390564	
-0.390259	
-0.390381	
-0.389587	
-0.390198	
-0.390991	
-0.391235	
-0.390259	
-0.390442	
-0.390686	
-0.38916	
-0.389465	
-0.392029	
-0.390015	
-0.390442	
-0.389954	
-0.388672	
-0.388855	
-0.388977	
-0.389404	
-0.388611	
-0.388672	
-0.388733	
-0.386597	
-0.388672	
-0.389587	
-0.387512	
-0.387573	
-0.386108	
-0.385071	
-0.38678	
-0.387573	
-0.390015	
-0.388611	
-0.388428	
-0.389282	
-0.386475	
-0.388794	
-0.389832	
-0.388306	
-0.388611	
-0.388611	
-0.388245	
-0.388977	
-0.389404	
-0.391174	
-0.389587	
-0.389465	
-0.389221	
-0.38916	
-0.391296	
-0.391541	
-0.390015	
-0.390259	
-0.389038	
-0.38916	
-0.389893	
-0.390625	
-0.39093	
-0.39032	
-0.39032	
-0.390625	
-0.390564	
-0.391357	
-0.391663	
-0.390625	
-0.390686	
-0.390198	
-0.390869	
-0.391235	
-0.391846	
-0.391541	
-0.390869	
-0.391907	
-0.390808	
-0.390442	
-0.391479	
-0.390991	
-0.390381	
-0.389404	
-0.389343	
-0.390381	
-0.390015	
-0.390869	
-0.389648	
-0.389648	
-0.389038	
-0.387573	
-0.389832	
-0.389648	
-0.388916	
-0.388611	
-0.388367	
-0.388489	
-0.388367	
-0.388733	
-0.390259	
-0.388428	
-0.388062	
-0.388184	
-0.387024	
-0.388123	
-0.388428	
-0.387817	
-0.387817	
-0.387207	
-0.388123	
-0.388489	
-0.388977	
-0.388977	
-0.388	
-0.388916	
-0.388916	
-0.387817	
-0.389648	
-0.389465	
-0.388611	
-0.390015	
-0.389771	
-0.389954	
-0.391357	
-0.391479	
-0.392029	
-0.391968	
-0.392456	
-0.392761	
-0.392944	
-0.393799	
-0.394287	
-0.39325	
-0.394592	
-0.394104	
-0.393799	
-0.393921	
-0.394714	
-0.393677	
-0.393921	
-0.392639	
-0.391907	
-0.393005	
-0.393494	
-0.392761	
-0.392212	
-0.391907	
-0.390869	
-0.390259	
-0.39093	
-0.391296	
-0.39032	
-0.389954	
-0.389954	
-0.387939	
-0.389648	
-0.389465	
-0.389954	
-0.389709	
-0.389465	
-0.388489	
-0.388611	
-0.390137	
-0.391357	
-0.389709	
-0.390503	
-0.390869	
-0.388611	
-0.39032	
-0.391296	
-0.389771	
-0.390625	
-0.389893	
-0.388916	
-0.389099	
-0.390503	
-0.392273	
-0.390137	
-0.39032	
-0.390381	
-0.389587	
-0.390137	
-0.390625	
-0.391052	
-0.390198	
-0.390259	
-0.390442	
-0.390381	
-0.391479	
-0.391907	
-0.391785	
-0.391541	
-0.39032	
-0.390808	
-0.391541	
-0.392639	
-0.394043	
-0.392822	
-0.393005	
-0.393127	
-0.393127	
-0.394165	
-0.394043	
-0.393494	
-0.394165	
-0.394287	
-0.395935	
-0.395325	
-0.394226	
-0.394653	
-0.394043	
-0.392822	
-0.3927	
-0.392578	
-0.394348	
-0.392517	
-0.392334	
-0.393127	
-0.390869	
-0.392334	
-0.393066	
-0.391968	
-0.392639	
-0.392395	
-0.392395	
-0.3927	
-0.392761	
-0.394409	
-0.393616	
-0.393188	
-0.393982	
-0.390625	
-0.392944	
-0.393188	
-0.39209	
-0.392578	
-0.392273	
-0.39209	
-0.391907	
-0.391846	
-0.39325	
-0.391113	
-0.391235	
-0.391357	
-0.390503	
-0.390747	
-0.391235	
-0.390747	
-0.390076	
-0.389893	
-0.388733	
-0.389404	
-0.39032	
-0.390259	
-0.389648	
-0.390015	
-0.389954	
-0.390076	
-0.389954	
-0.391724	
	
