C:\DOCUMENTS AND SETTINGS\JASON\DESKTOP\UFRJ\UFRJ EPHYS\RSCI-BM 12 WK SERIES\070803-RSCI-BM-11\RSCI-BM-11-LEMG\070803-RSCI-BM-11-LEMG-0005.ACQ
0.025000 msec/sample
1 channel
Analog input
Volts
CH1	
2000	
-0.391418	
-0.390808	
-0.390808	
-0.390869	
-0.391052	
-0.391418	
-0.390381	
-0.389587	
-0.389832	
-0.390442	
-0.389832	
-0.390442	
-0.389893	
-0.39032	
-0.38916	
-0.388977	
-0.38916	
-0.389587	
-0.389221	
-0.388977	
-0.388672	
-0.389771	
-0.389771	
-0.389404	
-0.388916	
-0.388123	
-0.387695	
-0.387695	
-0.388	
-0.387146	
-0.387268	
-0.387024	
-0.387512	
-0.387756	
-0.387573	
-0.387268	
-0.387634	
-0.386292	
-0.386292	
-0.385681	
-0.386108	
-0.387512	
-0.387512	
-0.386902	
-0.388062	
-0.388	
-0.388855	
-0.388611	
-0.389282	
-0.38855	
-0.389465	
-0.388367	
-0.389648	
-0.388916	
-0.388	
-0.389465	
-0.388794	
-0.388611	
-0.389709	
-0.389832	
-0.390015	
-0.38916	
-0.388184	
-0.388855	
-0.389465	
-0.388062	
-0.388611	
-0.389038	
-0.38916	
-0.388733	
-0.389465	
-0.388794	
-0.389099	
-0.388916	
-0.388	
-0.388245	
-0.387024	
-0.38678	
-0.387329	
-0.386536	
-0.386902	
-0.386536	
-0.387024	
-0.386719	
-0.386902	
-0.386902	
-0.387817	
-0.387878	
-0.386292	
-0.385437	
-0.385925	
-0.384521	
-0.385925	
-0.386108	
-0.38678	
-0.387817	
-0.388306	
-0.388428	
-0.389099	
-0.387329	
-0.388916	
-0.388672	
-0.388489	
-0.389465	
-0.39093	
-0.392517	
-0.392456	
-0.39325	
-0.392883	
-0.393433	
-0.393738	
-0.392944	
-0.393616	
-0.392395	
-0.39325	
-0.393311	
-0.393127	
-0.394348	
-0.393738	
-0.393738	
-0.394409	
-0.394592	
-0.393616	
-0.393677	
-0.393494	
-0.393372	
-0.392944	
-0.392944	
-0.392578	
-0.392761	
-0.391907	
-0.392517	
-0.393372	
-0.392334	
-0.391174	
-0.390503	
-0.390076	
-0.390076	
-0.390503	
-0.390198	
-0.39093	
-0.390747	
-0.390808	
-0.390503	
-0.390991	
-0.390442	
-0.390503	
-0.390686	
-0.389465	
-0.389465	
-0.38855	
-0.389893	
-0.388977	
-0.388916	
-0.389587	
-0.389465	
-0.389954	
-0.389648	
-0.390625	
-0.390198	
-0.389526	
-0.389587	
-0.389404	
-0.390137	
-0.389954	
-0.390991	
-0.390503	
-0.39093	
-0.391968	
-0.392151	
-0.391113	
-0.392212	
-0.391541	
-0.391724	
-0.392273	
-0.391052	
-0.391541	
-0.392029	
-0.391785	
-0.392456	
-0.392151	
-0.3927	
-0.392334	
-0.392883	
-0.391846	
-0.390808	
-0.390869	
-0.390259	
-0.39093	
-0.390869	
-0.389648	
-0.389343	
-0.389099	
-0.389404	
-0.389648	
-0.388977	
-0.389343	
-0.364441	
-0.360291	
-0.362915	
-0.36554	
-0.365845	
-0.365479	
-0.39624	
-0.392761	
-0.389038	
-0.388855	
-0.388	
-0.38855	
-0.387939	
-0.387451	
-0.386475	
-0.38739	
-0.358582	
-0.359131	
-0.364014	
-0.365601	
-0.365479	
-0.365784	
-0.399658	
-0.396851	
-0.394104	
-0.392517	
-0.392029	
-0.390686	
-0.390686	
-0.391785	
-0.392151	
-0.392334	
-0.392273	
-0.392761	
-0.394348	
-0.394836	
-0.395569	
-0.395325	
-0.394897	
-0.395264	
-0.394043	
-0.39563	
-0.395691	
-0.395996	
-0.395386	
-0.395325	
-0.394531	
-0.394226	
-0.394958	
-0.394531	
-0.39386	
-0.395691	
-0.395752	
-0.397461	
-0.398804	
-0.402649	
-0.404419	
-0.406982	
-0.409912	
-0.413086	
-0.416504	
-0.419922	
-0.422729	
-0.426941	
-0.430542	
-0.435486	
-0.440857	
-0.446655	
-0.451599	
-0.457092	
-0.462463	
-0.467468	
-0.472656	
-0.476318	
-0.479553	
-0.482971	
-0.485535	
-0.487366	
-0.489624	
-0.491455	
-0.492371	
-0.493225	
-0.494629	
-0.494873	
-0.496399	
-0.496704	
-0.497498	
-0.498779	
-0.498962	
-0.50116	
-0.501221	
-0.503357	
-0.505432	
-0.507141	
-0.509583	
-0.511108	
-0.512695	
-0.514648	
-0.515869	
-0.5177	
-0.51709	
-0.518494	
-0.519165	
-0.519592	
-0.519592	
-0.518799	
-0.519714	
-0.518127	
-0.517883	
-0.517334	
-0.516602	
-0.517517	
-0.515869	
-0.515625	
-0.515991	
-0.51593	
-0.516541	
-0.515869	
-0.516724	
-0.515076	
-0.514038	
-0.512634	
-0.511108	
-0.509766	
-0.507141	
-0.504333	
-0.501404	
-0.497925	
-0.496582	
-0.493652	
-0.49054	
-0.487366	
-0.483826	
-0.481628	
-0.47644	
-0.472839	
-0.468567	
-0.464783	
-0.459717	
-0.456177	
-0.452698	
-0.447998	
-0.443542	
-0.438782	
-0.433533	
-0.430115	
-0.422546	
-0.415527	
-0.408081	
-0.398193	
-0.392029	
-0.383667	
-0.374512	
-0.366882	
-0.358582	
-0.349548	
-0.340027	
-0.331421	
-0.322815	
-0.313965	
-0.305725	
-0.29718	
-0.290527	
-0.283752	
-0.278442	
-0.275208	
-0.271423	
-0.268738	
-0.266724	
-0.264587	
-0.264038	
-0.262085	
-0.260986	
-0.260742	
-0.260864	
-0.260742	
-0.262573	
-0.265259	
-0.266846	
-0.270508	
-0.27301	
-0.275818	
-0.279236	
-0.283325	
-0.286682	
-0.289307	
-0.293518	
-0.297363	
-0.301819	
-0.305542	
-0.309509	
-0.314758	
-0.319153	
-0.325317	
-0.32666	
-0.329956	
-0.334045	
-0.337219	
-0.340576	
-0.344055	
-0.347168	
-0.35022	
-0.353394	
-0.357361	
-0.358643	
-0.361023	
-0.362915	
-0.365845	
-0.365967	
-0.36853	
-0.369873	
-0.372009	
-0.374084	
-0.37561	
-0.37738	
-0.378906	
-0.38092	
-0.380981	
-0.381409	
-0.382141	
-0.380127	
-0.382385	
-0.382324	
-0.382507	
-0.38324	
-0.383789	
-0.384033	
-0.38446	
-0.385925	
-0.384216	
-0.383423	
-0.383789	
-0.382019	
-0.382019	
-0.382263	
-0.381958	
-0.381653	
-0.381165	
-0.381348	
-0.380737	
-0.380676	
-0.378052	
-0.377258	
-0.376587	
-0.375977	
-0.375122	
-0.374329	
-0.373413	
-0.372925	
-0.372437	
-0.372559	
-0.370361	
-0.370789	
-0.369507	
-0.369385	
-0.368958	
-0.368164	
-0.367676	
-0.368225	
-0.368652	
-0.36908	
-0.369019	
-0.3703	
-0.370178	
-0.372192	
-0.371094	
-0.371338	
-0.371765	
-0.372131	
-0.371704	
-0.373108	
-0.37439	
-0.375916	
-0.376038	
-0.376648	
-0.375854	
-0.377747	
-0.377136	
-0.375427	
-0.376221	
-0.376282	
-0.376892	
-0.377319	
-0.377747	
-0.378601	
-0.378723	
-0.379883	
-0.380066	
-0.381531	
-0.379822	
-0.380188	
-0.379944	
-0.380188	
-0.381042	
-0.379822	
-0.380859	
-0.381287	
-0.381226	
-0.381592	
-0.381592	
-0.381775	
-0.381775	
-0.382141	
-0.378845	
-0.381287	
-0.381226	
-0.38092	
-0.38092	
-0.381165	
-0.380737	
-0.381287	
-0.382507	
-0.380432	
-0.379578	
-0.380127	
-0.379639	
-0.380371	
-0.380005	
-0.380737	
-0.381042	
-0.381348	
-0.382263	
-0.381775	
-0.38446	
-0.382874	
-0.383179	
-0.382141	
-0.383057	
-0.383179	
-0.38385	
-0.383911	
-0.384888	
-0.385071	
-0.385803	
-0.385437	
-0.386841	
-0.38501	
-0.385864	
-0.38446	
-0.385071	
-0.385437	
-0.385742	
-0.385559	
-0.386108	
-0.385742	
-0.386658	
-0.386169	
-0.387024	
-0.385132	
-0.387146	
-0.384949	
-0.384399	
-0.38501	
-0.385498	
-0.385864	
-0.384094	
-0.383606	
-0.383972	
-0.383545	
-0.38501	
-0.382751	
-0.383179	
-0.382263	
-0.382324	
-0.382141	
-0.381775	
-0.382141	
-0.382324	
-0.381592	
-0.382263	
-0.380737	
-0.381836	
-0.381165	
-0.379578	
-0.379639	
-0.377625	
-0.379028	
-0.37854	
-0.379761	
-0.379822	
-0.379272	
-0.379822	
-0.380127	
-0.380798	
-0.381348	
-0.379639	
-0.38092	
-0.379456	
-0.380127	
-0.380676	
-0.382324	
-0.382751	
-0.382507	
-0.382385	
-0.382935	
-0.383484	
-0.38446	
-0.382629	
-0.384827	
-0.383545	
-0.383728	
-0.384766	
-0.385376	
-0.384644	
-0.385254	
-0.386047	
-0.386047	
-0.386047	
-0.386292	
-0.385803	
-0.386475	
-0.38385	
-0.38385	
-0.385803	
-0.386169	
-0.386292	
-0.386536	
-0.38739	
-0.386353	
-0.386292	
-0.386658	
-0.386169	
-0.38739	
-0.384644	
-0.384888	
-0.385559	
-0.385986	
-0.38562	
-0.386414	
-0.386475	
-0.385986	
-0.385498	
-0.385803	
-0.385742	
-0.386292	
-0.383484	
-0.384033	
-0.384216	
-0.384949	
-0.385315	
-0.385986	
-0.386169	
-0.386353	
-0.386841	
-0.387024	
-0.386719	
-0.387329	
-0.384399	
-0.386963	
-0.388	
-0.387756	
-0.388489	
-0.389526	
-0.388489	
-0.388916	
-0.389893	
-0.390076	
-0.389587	
-0.390076	
-0.387695	
-0.389099	
-0.391174	
-0.390564	
-0.391907	
-0.391846	
-0.390381	
-0.390076	
-0.39032	
-0.390442	
-0.389099	
-0.389282	
-0.387207	
-0.387512	
-0.388611	
-0.387756	
-0.388977	
-0.388245	
-0.386414	
-0.386169	
-0.387085	
-0.387085	
-0.387329	
-0.386902	
-0.385803	
-0.38562	
-0.386841	
-0.386414	
-0.387268	
-0.386902	
-0.386353	
-0.385986	
-0.386963	
-0.385803	
-0.386169	
-0.385559	
-0.384644	
-0.384827	
-0.386169	
-0.384827	
-0.38446	
-0.385559	
-0.385132	
-0.384583	
-0.384949	
-0.383972	
-0.385315	
-0.38385	
-0.384033	
-0.384033	
-0.384338	
-0.384583	
-0.384338	
-0.384888	
-0.385437	
-0.385803	
-0.386108	
-0.386108	
-0.386169	
-0.386047	
-0.386169	
-0.385925	
-0.386658	
-0.387512	
-0.386536	
-0.387451	
-0.387085	
-0.385925	
-0.386719	
-0.387878	
-0.387573	
-0.386475	
-0.386292	
-0.385864	
-0.38678	
-0.38623	
-0.387207	
-0.387085	
-0.387329	
-0.387085	
-0.386658	
-0.38739	
-0.387268	
-0.38623	
-0.385864	
-0.385925	
-0.385254	
-0.384888	
-0.385193	
-0.385437	
-0.385071	
-0.384705	
-0.384583	
-0.385071	
-0.384827	
-0.384216	
-0.384338	
-0.383301	
-0.384277	
-0.384521	
-0.383484	
-0.383423	
-0.384277	
-0.384521	
-0.384399	
-0.385315	
-0.385803	
-0.385254	
-0.385193	
-0.384521	
-0.385559	
-0.386963	
-0.387024	
-0.387085	
-0.387878	
-0.388733	
-0.390137	
-0.391602	
-0.391418	
-0.390869	
-0.391113	
-0.389954	
-0.390442	
-0.391541	
-0.391785	
-0.390747	
-0.392761	
-0.391907	
-0.392151	
-0.392456	
-0.392212	
-0.392212	
-0.391541	
-0.390686	
-0.390564	
-0.392029	
-0.391113	
-0.390869	
-0.392639	
-0.390808	
-0.39093	
-0.390686	
-0.391479	
-0.390564	
-0.389404	
-0.38855	
-0.388245	
-0.388489	
-0.388977	
-0.388733	
-0.389832	
-0.389038	
-0.389404	
-0.388916	
-0.390442	
-0.388977	
-0.38855	
-0.388306	
-0.388367	
-0.388489	
-0.388123	
-0.387634	
-0.388855	
-0.388428	
-0.387695	
-0.387451	
-0.388245	
-0.388245	
-0.388245	
-0.388062	
-0.386475	
-0.38739	
-0.388062	
-0.387817	
-0.387878	
-0.388855	
-0.388855	
-0.389832	
-0.389282	
-0.390686	
-0.389954	
-0.389526	
-0.388062	
-0.390381	
-0.390564	
-0.390198	
-0.390442	
-0.391663	
-0.39093	
-0.390625	
-0.390686	
-0.393066	
-0.390991	
-0.390564	
-0.389526	
-0.390564	
-0.390198	
-0.389465	
-0.389954	
-0.390198	
-0.389221	
-0.388306	
-0.388	
-0.389771	
-0.387756	
-0.387268	
-0.386902	
-0.386292	
-0.386719	
-0.38678	
-0.386536	
-0.387268	
-0.385986	
-0.38562	
-0.385681	
-0.387146	
-0.386353	
-0.385315	
-0.385559	
-0.383057	
-0.385864	
-0.386414	
-0.386108	
-0.387024	
-0.386292	
-0.386536	
-0.386047	
-0.38678	
-0.387573	
-0.387085	
-0.387268	
-0.388123	
-0.390259	
-0.390259	
-0.39032	
-0.389404	
-0.390503	
-0.390747	
-0.39093	
-0.390564	
-0.392517	
-0.391113	
-0.391968	
-0.391724	
-0.392578	
-0.392883	
-0.393311	
-0.393555	
-0.393921	
-0.394348	
-0.393738	
-0.393494	
-0.396851	
-0.39447	
-0.394104	
-0.394104	
-0.394775	
-0.394897	
-0.394165	
-0.394226	
-0.394287	
-0.394348	
-0.393677	
-0.393127	
-0.395569	
-0.393677	
-0.392883	
-0.391968	
-0.391846	
-0.392761	
-0.392151	
-0.392761	
-0.392273	
-0.391968	
-0.391174	
-0.391174	
-0.391907	
-0.392334	
-0.390808	
-0.390503	
-0.388489	
-0.390503	
-0.390869	
-0.389832	
-0.390198	
-0.389893	
-0.390869	
-0.391113	
-0.391174	
-0.391968	
-0.390198	
-0.390381	
-0.389221	
-0.390991	
-0.390747	
-0.390442	
-0.390747	
-0.390625	
-0.390503	
-0.391296	
-0.39032	
-0.392578	
-0.390991	
-0.390564	
-0.390015	
-0.39093	
-0.391785	
-0.391663	
-0.391846	
-0.392151	
-0.391663	
-0.391724	
-0.391785	
-0.392822	
-0.392273	
-0.391235	
-0.390808	
-0.390564	
-0.390747	
-0.39032	
-0.389893	
-0.389221	
-0.389404	
-0.389526	
-0.389221	
-0.39032	
-0.389954	
-0.388733	
-0.387756	
-0.38678	
-0.388367	
-0.387512	
-0.387146	
-0.387146	
-0.385437	
-0.385559	
-0.385803	
-0.38739	
-0.388	
-0.387024	
-0.387207	
-0.386292	
-0.387878	
-0.388733	
-0.38855	
-0.388855	
-0.38916	
-0.389099	
-0.388855	
-0.388855	
-0.390381	
-0.390076	
-0.390747	
-0.390259	
-0.392517	
-0.390991	
-0.391296	
-0.39093	
-0.391296	
-0.390808	
-0.391541	
-0.391663	
-0.392395	
-0.392334	
-0.391907	
-0.391724	
-0.392395	
-0.391907	
-0.392334	
-0.392395	
-0.3927	
-0.392883	
-0.393188	
-0.392944	
-0.394531	
-0.393799	
-0.393555	
-0.393311	
-0.393738	
-0.393005	
-0.39386	
-0.393799	
-0.393494	
-0.394104	
-0.39386	
-0.393982	
-0.39386	
-0.393677	
-0.392944	
-0.392822	
-0.390503	
-0.392944	
-0.3927	
-0.391968	
-0.391052	
-0.391479	
-0.391602	
-0.391235	
-0.391602	
-0.392029	
-0.393005	
-0.391846	
-0.390869	
-0.392151	
-0.391968	
-0.391479	
-0.391296	
-0.391418	
-0.390625	
-0.391785	
-0.392761	
-0.392883	
-0.392151	
-0.391907	
-0.390869	
-0.392273	
-0.391174	
-0.391602	
-0.392273	
-0.392395	
-0.392273	
-0.393127	
-0.39386	
-0.393372	
-0.39386	
-0.394653	
-0.393127	
-0.394043	
-0.39386	
-0.394165	
-0.39386	
-0.393799	
-0.394531	
-0.394958	
-0.394836	
-0.395447	
-0.395081	
-0.394897	
-0.393372	
-0.393982	
-0.394226	
-0.393188	
-0.392761	
-0.39209	
-0.391907	
-0.391846	
-0.391663	
-0.391296	
-0.389526	
-0.389221	
-0.388184	
-0.387085	
-0.389038	
-0.388	
-0.387207	
-0.387024	
-0.386841	
-0.387573	
-0.387573	
-0.387878	
-0.38678	
-0.387695	
-0.386658	
-0.386169	
-0.386841	
-0.386841	
-0.387207	
-0.38678	
-0.387146	
-0.38739	
-0.387268	
-0.388	
-0.387756	
-0.38855	
-0.388123	
-0.386841	
-0.388489	
-0.388062	
-0.388428	
-0.389709	
-0.391052	
-0.391052	
-0.390442	
-0.390137	
-0.390564	
-0.390747	
-0.390747	
-0.389221	
-0.389954	
-0.390869	
-0.390564	
-0.390442	
-0.391052	
-0.391663	
-0.391418	
-0.391357	
-0.392151	
-0.391174	
-0.391663	
-0.390869	
-0.390564	
-0.391541	
-0.391052	
-0.391418	
-0.391113	
-0.390686	
-0.390869	
-0.390747	
-0.391479	
-0.389526	
-0.391418	
-0.389343	
-0.388977	
-0.390015	
-0.388184	
-0.388855	
-0.389282	
-0.38916	
-0.388977	
-0.388977	
-0.388977	
-0.388672	
-0.388916	
-0.388	
-0.386841	
-0.388611	
-0.388916	
-0.388428	
-0.388977	
-0.389221	
-0.389709	
-0.38916	
-0.389648	
-0.391052	
-0.390259	
-0.390869	
-0.390076	
-0.390442	
-0.39209	
-0.392334	
-0.392212	
-0.392639	
-0.392456	
-0.392334	
-0.39325	
-0.394043	
-0.392456	
-0.394714	
-0.393066	
-0.392883	
-0.393127	
-0.393005	
-0.393494	
-0.392944	
-0.393066	
-0.393494	
-0.392822	
-0.393494	
-0.3927	
-0.3927	
-0.392151	
-0.391846	
-0.392212	
-0.391052	
-0.389709	
-0.389404	
-0.389038	
-0.389893	
-0.389404	
-0.389404	
-0.388977	
-0.388489	
-0.388977	
-0.386902	
-0.387939	
-0.388428	
-0.387512	
-0.38678	
-0.386169	
-0.386414	
-0.385925	
-0.385925	
-0.386536	
-0.384277	
-0.385559	
-0.384216	
-0.384216	
-0.38501	
-0.384216	
-0.384277	
-0.383972	
-0.384216	
-0.384521	
-0.384827	
-0.386169	
-0.384705	
-0.386047	
-0.385498	
-0.385132	
-0.386047	
-0.386169	
-0.386292	
-0.386292	
-0.38678	
-0.387146	
-0.386841	
-0.388123	
-0.387756	
-0.388611	
-0.387817	
-0.386658	
-0.387939	
-0.387573	
-0.388306	
-0.388367	
-0.388672	
-0.388245	
-0.388062	
-0.388184	
-0.388855	
-0.387939	
-0.388489	
-0.388123	
-0.388733	
-0.389221	
-0.389465	
-0.389221	
-0.38916	
-0.38855	
-0.388062	
-0.388306	
-0.388977	
-0.387207	
-0.388916	
-0.387695	
-0.386963	
-0.388367	
-0.388611	
-0.387939	
-0.387756	
-0.387939	
-0.38678	
-0.386963	
-0.38739	
-0.386475	
-0.387085	
-0.386902	
-0.386169	
-0.387085	
-0.387329	
-0.388062	
-0.388428	
-0.388672	
-0.388672	
-0.389099	
-0.389526	
-0.390259	
-0.389404	
-0.389954	
-0.388916	
-0.390442	
-0.390503	
-0.391418	
-0.391235	
-0.391541	
-0.391846	
-0.391357	
-0.391541	
-0.392029	
-0.392395	
-0.393799	
-0.392029	
-0.390625	
-0.391174	
-0.391724	
-0.391235	
-0.391174	
-0.390442	
-0.388855	
-0.389954	
-0.390442	
-0.387939	
-0.389465	
-0.389038	
-0.387878	
-0.386475	
-0.386169	
-0.387268	
-0.387573	
-0.388	
-0.387207	
-0.387512	
-0.388123	
-0.387695	
-0.387329	
-0.386902	
-0.386108	
-0.386658	
-0.386536	
-0.387329	
-0.386108	
-0.386292	
-0.38623	
-0.385376	
-0.38623	
-0.386108	
-0.385071	
-0.386047	
-0.384216	
-0.384827	
-0.384399	
-0.384827	
-0.384705	
-0.384644	
-0.384949	
-0.383606	
-0.384644	
-0.385315	
-0.384644	
-0.385315	
-0.384583	
-0.384705	
-0.385315	
-0.384949	
-0.386597	
-0.386353	
-0.386841	
-0.385803	
-0.386658	
-0.388123	
-0.386292	
-0.386902	
-0.38678	
-0.386719	
-0.38623	
-0.385864	
-0.387756	
-0.386963	
-0.386719	
-0.385864	
-0.386719	
-0.387451	
-0.386963	
-0.386963	
-0.38678	
-0.386292	
-0.387085	
-0.386414	
-0.386292	
-0.386475	
-0.386414	
-0.386902	
-0.384888	
-0.385864	
-0.385376	
-0.384888	
-0.385986	
-0.383301	
-0.383301	
-0.384766	
-0.384827	
-0.384277	
-0.384033	
-0.384705	
-0.383972	
-0.384521	
-0.384949	
-0.383301	
-0.383911	
-0.382935	
-0.38269	
-0.383362	
-0.384155	
-0.385376	
-0.385437	
-0.38623	
-0.385437	
-0.38562	
-0.387512	
-0.386719	
-0.387512	
-0.387024	
-0.387939	
-0.390259	
-0.389587	
-0.391602	
-0.391052	
-0.391113	
-0.391113	
-0.390564	
-0.391724	
-0.391235	
-0.391663	
-0.390991	
-0.390503	
-0.391052	
-0.391052	
-0.391663	
-0.391479	
-0.391785	
-0.391235	
-0.390137	
-0.391479	
-0.391296	
-0.390869	
-0.390686	
-0.390259	
-0.389526	
-0.390076	
-0.390076	
-0.390259	
-0.388916	
-0.388306	
-0.387695	
-0.388367	
-0.389099	
-0.388611	
-0.389038	
-0.388611	
-0.387756	
-0.387878	
-0.38739	
-0.388977	
-0.388306	
-0.388489	
-0.387817	
-0.387512	
-0.387268	
-0.387268	
-0.387756	
-0.387329	
-0.386108	
-0.386292	
-0.385925	
-0.387512	
-0.387573	
-0.387512	
-0.387207	
-0.386597	
-0.388489	
-0.387329	
-0.387573	
-0.387817	
-0.387939	
-0.388672	
-0.388733	
-0.388489	
-0.389771	
-0.388977	
-0.388733	
-0.389099	
-0.389587	
-0.390808	
-0.389648	
-0.389709	
-0.389465	
-0.389099	
-0.389893	
-0.388733	
-0.390625	
-0.389526	
-0.390198	
-0.389587	
-0.388977	
-0.389404	
-0.388367	
-0.38855	
-0.387573	
-0.385071	
-0.386902	
-0.38623	
-0.386719	
-0.386169	
-0.387329	
-0.385803	
-0.384155	
-0.385864	
-0.384888	
-0.384888	
-0.385742	
-0.384338	
-0.384521	
-0.384583	
-0.384888	
-0.384644	
-0.385071	
-0.384766	
-0.384949	
-0.385193	
-0.385559	
-0.384827	
-0.385864	
-0.384949	
-0.38501	
-0.385681	
-0.38501	
-0.386658	
-0.386475	
-0.388489	
-0.388733	
-0.389832	
-0.390381	
-0.389465	
-0.389648	
-0.389221	
-0.389648	
-0.389587	
-0.388672	
-0.390381	
-0.391418	
-0.391968	
-0.391296	
-0.391052	
-0.393127	
-0.392456	
-0.392334	
-0.393005	
-0.390991	
-0.392883	
-0.393005	
-0.393494	
-0.394348	
-0.393738	
-0.393005	
-0.393005	
-0.393311	
-0.39325	
-0.393127	
-0.393494	
-0.392395	
-0.392395	
-0.392273	
-0.391541	
-0.39209	
-0.392273	
-0.391724	
-0.390991	
-0.389526	
-0.391846	
-0.391052	
-0.390686	
-0.389771	
-0.389954	
-0.390259	
-0.389465	
-0.389832	
-0.389893	
-0.389771	
-0.389343	
-0.389343	
-0.390076	
-0.389282	
-0.389221	
-0.390137	
-0.387878	
-0.389587	
-0.389954	
-0.389648	
-0.390564	
-0.390137	
-0.389587	
-0.389832	
-0.38916	
-0.389221	
-0.389526	
-0.389709	
-0.389404	
-0.390137	
-0.39032	
-0.39032	
-0.390747	
-0.389832	
-0.390381	
-0.390503	
-0.389771	
-0.391602	
-0.391052	
-0.391418	
-0.391174	
-0.390564	
-0.390503	
-0.389587	
-0.390808	
-0.390808	
-0.390747	
-0.389648	
-0.389404	
-0.390076	
-0.389343	
-0.388489	
-0.388306	
-0.387634	
-0.388428	
-0.38739	
-0.38739	
-0.388245	
-0.388123	
-0.386719	
-0.386292	
-0.386902	
-0.384949	
-0.384827	
-0.385315	
-0.38269	
-0.385498	
-0.385803	
-0.384827	
-0.387024	
-0.387512	
-0.387634	
-0.38739	
-0.386536	
-0.388	
-0.388489	
-0.388306	
-0.387695	
-0.388672	
-0.388733	
-0.388123	
-0.389709	
-0.39093	
-0.391113	
-0.390686	
-0.389832	
-0.391174	
-0.390076	
-0.390137	
-0.390991	
-0.390198	
-0.39032	
-0.390503	
-0.39093	
-0.392151	
-0.392273	
-0.391235	
-0.391052	
-0.392639	
-0.391052	
-0.39209	
-0.392517	
-0.390625	
-0.391968	
-0.392151	
-0.392761	
-0.393066	
-0.393005	
-0.393005	
-0.393127	
-0.392334	
-0.392151	
-0.393311	
-0.393433	
-0.391846	
-0.392395	
-0.392456	
-0.392029	
-0.392517	
-0.391907	
-0.392273	
-0.391602	
-0.390381	
-0.391541	
-0.390442	
-0.390747	
-0.39032	
-0.390808	
-0.390869	
-0.391052	
-0.390564	
-0.390991	
-0.391602	
-0.390381	
-0.39032	
-0.391724	
-0.390015	
-0.390564	
-0.390625	
-0.390198	
-0.39093	
-0.390625	
-0.390869	
-0.391968	
-0.391418	
-0.391907	
-0.391235	
-0.39209	
-0.390991	
-0.392029	
-0.391968	
-0.392151	
-0.393066	
-0.392578	
-0.393127	
-0.393921	
-0.392944	
-0.39447	
-0.393799	
-0.392639	
-0.39325	
-0.393555	
-0.394226	
-0.392944	
-0.394287	
-0.394348	
-0.394409	
-0.393311	
-0.393616	
-0.393433	
-0.392273	
-0.391907	
-0.392273	
-0.389771	
-0.391357	
-0.39032	
-0.389648	
-0.388306	
-0.388245	
-0.387146	
-0.387451	
-0.388062	
-0.387329	
-0.386902	
-0.387085	
-0.385742	
-0.386353	
-0.386475	
-0.38562	
-0.386292	
-0.386047	
-0.386047	
-0.386719	
-0.386169	
-0.387268	
-0.386047	
-0.387329	
-0.38678	
-0.386475	
-0.386658	
-0.386902	
-0.386902	
-0.38739	
-0.387024	
-0.388123	
-0.387634	
-0.388	
-0.387817	
-0.388916	
-0.390869	
-0.388733	
-0.389526	
-0.38916	
-0.389465	
-0.389526	
-0.389648	
-0.389282	
-0.390076	
-0.390137	
-0.389465	
-0.388733	
-0.39209	
-0.390503	
-0.390259	
-0.390381	
-0.39093	
-0.390625	
-0.390991	
-0.390747	
-0.390869	
-0.390564	
-0.391541	
-0.390503	
-0.391663	
-0.389893	
-0.390442	
-0.390381	
-0.388916	
-0.390259	
-0.389221	
-0.388794	
-0.388611	
-0.388489	
-0.388977	
-0.38855	
-0.389465	
-0.388672	
-0.387024	
-0.387817	
-0.387817	
-0.387878	
-0.387695	
-0.387207	
-0.386963	
-0.388	
-0.387817	
-0.38855	
-0.387634	
-0.390381	
-0.388428	
-0.388855	
-0.38916	
-0.388489	
-0.389709	
-0.389954	
-0.390564	
-0.391357	
-0.391296	
-0.392456	
-0.391357	
-0.392883	
-0.391907	
-0.392151	
-0.392212	
-0.391479	
-0.393127	
-0.392761	
-0.392273	
-0.393921	
-0.393127	
-0.393372	
-0.392761	
-0.392822	
-0.394043	
-0.391663	
-0.392395	
-0.392822	
-0.391846	
-0.392334	
-0.391846	
-0.391235	
-0.391602	
-0.390137	
-0.389343	
-0.388367	
-0.390015	
-0.388611	
-0.388794	
-0.388306	
-0.387329	
-0.388062	
-0.388306	
-0.387939	
-0.38855	
-0.38739	
-0.387817	
-0.38623	
-0.38678	
-0.385681	
-0.385376	
-0.385254	
-0.384155	
-0.384705	
-0.384338	
-0.384216	
-0.385071	
-0.384094	
-0.384338	
-0.383911	
-0.384094	
-0.384644	
-0.383179	
-0.384949	
-0.384888	
-0.384583	
-0.385071	
-0.385376	
-0.385315	
-0.385925	
-0.386597	
-0.386292	
-0.385559	
-0.387329	
-0.386108	
-0.386597	
-0.387085	
-0.385925	
-0.387573	
-0.387207	
-0.38678	
-0.388245	
-0.388062	
-0.388794	
-0.388	
-0.388977	
-0.388367	
-0.387817	
-0.387756	
-0.387146	
-0.387695	
-0.387451	
-0.388184	
-0.388733	
-0.388611	
-0.389709	
-0.388306	
-0.387756	
-0.389404	
-0.387024	
-0.388123	
-0.387939	
-0.387817	
-0.388123	
-0.387268	
-0.387451	
-0.388245	
-0.388855	
-0.387634	
-0.386841	
-0.388306	
-0.386169	
-0.387024	
-0.386597	
-0.386047	
-0.386963	
-0.386841	
-0.386597	
-0.387817	
-0.387695	
-0.388062	
-0.388	
-0.38916	
-0.389343	
-0.389038	
-0.389404	
-0.389221	
-0.389282	
-0.389587	
-0.389709	
-0.390442	
-0.390503	
-0.391541	
-0.39093	
-0.39032	
-0.391602	
-0.391052	
-0.391479	
-0.392273	
-0.392334	
-0.392639	
-0.39209	
-0.391602	
-0.391907	
-0.391418	
-0.390564	
-0.39032	
	
