C:\DOCUMENTS AND SETTINGS\JASON\DESKTOP\UFRJ\UFRJ EPHYS\RSCI-BM 12 WK SERIES\070803-RSCI-BM-11\RSCI-BM-11-LEMG\070803-RSCI-BM-11-LEMG-0012.ACQ
0.025000 msec/sample
1 channel
Analog input
Volts
CH1	
2000	
-0.388367	
-0.388062	
-0.388855	
-0.389099	
-0.388977	
-0.390564	
-0.390442	
-0.389954	
-0.39032	
-0.389587	
-0.390137	
-0.390625	
-0.390869	
-0.390686	
-0.391296	
-0.390503	
-0.389954	
-0.391846	
-0.391907	
-0.391846	
-0.391724	
-0.391785	
-0.391052	
-0.391907	
-0.392029	
-0.391846	
-0.391724	
-0.391968	
-0.39209	
-0.393555	
-0.393555	
-0.393311	
-0.3927	
-0.392578	
-0.392517	
-0.392883	
-0.392029	
-0.394043	
-0.3927	
-0.393005	
-0.392517	
-0.393738	
-0.393311	
-0.393188	
-0.391724	
-0.390259	
-0.390381	
-0.389526	
-0.390198	
-0.390747	
-0.389404	
-0.388916	
-0.388184	
-0.389465	
-0.388123	
-0.387695	
-0.387634	
-0.386414	
-0.385681	
-0.386108	
-0.38623	
-0.387329	
-0.386047	
-0.386292	
-0.385925	
-0.38678	
-0.386536	
-0.386719	
-0.386963	
-0.386292	
-0.385071	
-0.386475	
-0.387085	
-0.388367	
-0.387817	
-0.387878	
-0.387878	
-0.388794	
-0.389343	
-0.389404	
-0.389954	
-0.389771	
-0.390015	
-0.390625	
-0.391113	
-0.392578	
-0.392578	
-0.392883	
-0.393188	
-0.393005	
-0.394287	
-0.39447	
-0.395569	
-0.395386	
-0.395142	
-0.394958	
-0.395081	
-0.396423	
-0.39679	
-0.396362	
-0.396606	
-0.396606	
-0.398438	
-0.397827	
-0.397583	
-0.398376	
-0.398315	
-0.398254	
-0.396362	
-0.396423	
-0.397644	
-0.39679	
-0.397034	
-0.395142	
-0.396667	
-0.395996	
-0.395569	
-0.395142	
-0.394958	
-0.393982	
-0.393188	
-0.392944	
-0.393494	
-0.39325	
-0.393555	
-0.391968	
-0.393188	
-0.391846	
-0.391968	
-0.391785	
-0.39093	
-0.389832	
-0.391113	
-0.390869	
-0.391113	
-0.390137	
-0.390564	
-0.388611	
-0.390259	
-0.390198	
-0.39032	
-0.389954	
-0.390076	
-0.388916	
-0.388794	
-0.389709	
-0.389099	
-0.387695	
-0.387207	
-0.387024	
-0.388611	
-0.388672	
-0.389099	
-0.389954	
-0.389954	
-0.38916	
-0.390015	
-0.390381	
-0.390564	
-0.391541	
-0.391052	
-0.390869	
-0.392456	
-0.392578	
-0.391663	
-0.392517	
-0.392639	
-0.391479	
-0.392517	
-0.393372	
-0.392761	
-0.392761	
-0.394897	
-0.394531	
-0.395142	
-0.395996	
-0.394897	
-0.394836	
-0.394409	
-0.393494	
-0.393982	
-0.39386	
-0.394775	
-0.393982	
-0.394287	
-0.39386	
-0.394714	
-0.39447	
-0.394104	
-0.394287	
-0.393372	
-0.392822	
-0.3927	
-0.392273	
-0.391418	
-0.391663	
-0.390625	
-0.366028	
-0.360352	
-0.364441	
-0.365479	
-0.365479	
-0.364746	
-0.395569	
-0.394714	
-0.389587	
-0.388733	
-0.38916	
-0.387756	
-0.387085	
-0.388611	
-0.387451	
-0.387878	
-0.386902	
-0.388733	
-0.388245	
-0.387573	
-0.387512	
-0.387573	
-0.388428	
-0.389038	
-0.38916	
-0.39032	
-0.390259	
-0.391113	
-0.390747	
-0.391663	
-0.392151	
-0.392029	
-0.392761	
-0.392212	
-0.392883	
-0.393616	
-0.39386	
-0.395813	
-0.395691	
-0.39679	
-0.395935	
-0.396667	
-0.397827	
-0.396851	
-0.396545	
-0.396606	
-0.396973	
-0.396851	
-0.396057	
-0.398254	
-0.398315	
-0.400513	
-0.401123	
-0.403442	
-0.405579	
-0.407043	
-0.408691	
-0.411438	
-0.41449	
-0.41803	
-0.420166	
-0.423401	
-0.425415	
-0.429138	
-0.431946	
-0.43811	
-0.440674	
-0.446045	
-0.450867	
-0.455017	
-0.460754	
-0.465698	
-0.46991	
-0.475403	
-0.479797	
-0.482971	
-0.486328	
-0.48999	
-0.489929	
-0.492981	
-0.470093	
-0.466003	
-0.47113	
-0.474426	
-0.476074	
-0.478943	
-0.51178	
-0.511841	
-0.508728	
-0.51001	
-0.508667	
-0.510071	
-0.512024	
-0.513916	
-0.516052	
-0.518188	
-0.520508	
-0.52063	
-0.521301	
-0.523193	
-0.524353	
-0.525391	
-0.52417	
-0.524963	
-0.524841	
-0.525024	
-0.525146	
-0.52417	
-0.524902	
-0.523315	
-0.523438	
-0.522949	
-0.523804	
-0.523865	
-0.521851	
-0.522827	
-0.522705	
-0.522644	
-0.522766	
-0.521729	
-0.522522	
-0.520203	
-0.519714	
-0.517761	
-0.517273	
-0.513855	
-0.509827	
-0.507874	
-0.505005	
-0.50116	
-0.497681	
-0.493835	
-0.492065	
-0.487305	
-0.483398	
-0.479065	
-0.476135	
-0.472351	
-0.467346	
-0.464661	
-0.460999	
-0.457947	
-0.454773	
-0.450562	
-0.447144	
-0.442383	
-0.437805	
-0.431519	
-0.426453	
-0.419617	
-0.411865	
-0.404358	
-0.397095	
-0.389465	
-0.38269	
-0.374634	
-0.367493	
-0.360596	
-0.353394	
-0.346924	
-0.339478	
-0.335144	
-0.329163	
-0.324524	
-0.321289	
-0.317749	
-0.315918	
-0.31366	
-0.313599	
-0.313171	
-0.312927	
-0.314148	
-0.313293	
-0.31488	
-0.315247	
-0.317078	
-0.317139	
-0.320374	
-0.323792	
-0.327515	
-0.331604	
-0.336182	
-0.340576	
-0.345154	
-0.35144	
-0.354431	
-0.357666	
-0.363708	
-0.367859	
-0.372253	
-0.375732	
-0.381165	
-0.384705	
-0.388794	
-0.393433	
-0.395325	
-0.399902	
-0.402588	
-0.405823	
-0.409119	
-0.414063	
-0.418274	
-0.421875	
-0.427673	
-0.430786	
-0.434998	
-0.438171	
-0.443054	
-0.44397	
-0.445923	
-0.449341	
-0.451111	
-0.452759	
-0.454346	
-0.455322	
-0.457275	
-0.457336	
-0.457947	
-0.457153	
-0.45813	
-0.45575	
-0.455139	
-0.455139	
-0.454529	
-0.453491	
-0.452393	
-0.451965	
-0.451233	
-0.449646	
-0.448181	
-0.44574	
-0.44397	
-0.441467	
-0.438171	
-0.435913	
-0.433105	
-0.429443	
-0.424744	
-0.421204	
-0.41687	
-0.411316	
-0.406189	
-0.401733	
-0.397949	
-0.393066	
-0.386597	
-0.38269	
-0.37738	
-0.372803	
-0.367493	
-0.362549	
-0.358398	
-0.352722	
-0.347717	
-0.342346	
-0.337463	
-0.332214	
-0.326111	
-0.322144	
-0.315674	
-0.312012	
-0.307922	
-0.303772	
-0.299316	
-0.295898	
-0.293091	
-0.289063	
-0.286377	
-0.282959	
-0.279785	
-0.278015	
-0.276184	
-0.274841	
-0.272827	
-0.272827	
-0.272095	
-0.272583	
-0.271912	
-0.274109	
-0.274475	
-0.276062	
-0.278809	
-0.280701	
-0.283264	
-0.287354	
-0.289734	
-0.294189	
-0.29657	
-0.30011	
-0.300537	
-0.30603	
-0.307495	
-0.310913	
-0.313599	
-0.317017	
-0.320129	
-0.322815	
-0.327698	
-0.329529	
-0.332397	
-0.335327	
-0.339355	
-0.339661	
-0.342529	
-0.34491	
-0.345276	
-0.347717	
-0.348755	
-0.34967	
-0.351257	
-0.353577	
-0.355591	
-0.355896	
-0.357849	
-0.357605	
-0.359497	
-0.358582	
-0.360657	
-0.361145	
-0.361206	
-0.362061	
-0.362854	
-0.364929	
-0.364014	
-0.366089	
-0.365601	
-0.366089	
-0.368042	
-0.367126	
-0.369019	
-0.369507	
-0.37085	
-0.371277	
-0.372925	
-0.372437	
-0.373657	
-0.375122	
-0.37561	
-0.37561	
-0.376221	
-0.377075	
-0.378052	
-0.377563	
-0.377991	
-0.378296	
-0.378479	
-0.378296	
-0.379517	
-0.378601	
-0.379211	
-0.378723	
-0.377136	
-0.378723	
-0.379089	
-0.377441	
-0.378235	
-0.377991	
-0.377441	
-0.377258	
-0.377625	
-0.377258	
-0.376831	
-0.376282	
-0.375122	
-0.375244	
-0.374939	
-0.373962	
-0.374207	
-0.372925	
-0.372559	
-0.372131	
-0.372009	
-0.371033	
-0.369446	
-0.369141	
-0.368042	
-0.368286	
-0.368408	
-0.367249	
-0.367676	
-0.367188	
-0.366211	
-0.367065	
-0.367188	
-0.367126	
-0.366455	
-0.367004	
-0.36615	
-0.36792	
-0.367371	
-0.368103	
-0.36731	
-0.367798	
-0.368652	
-0.370544	
-0.370483	
-0.371216	
-0.372498	
-0.372314	
-0.373047	
-0.374512	
-0.375061	
-0.375793	
-0.375427	
-0.376648	
-0.376648	
-0.379395	
-0.378113	
-0.379272	
-0.378662	
-0.380493	
-0.380615	
-0.380066	
-0.380737	
-0.380676	
-0.380676	
-0.380615	
-0.380798	
-0.381104	
-0.381104	
-0.381042	
-0.380127	
-0.382141	
-0.381836	
-0.382324	
-0.381836	
-0.381042	
-0.382019	
-0.382629	
-0.382019	
-0.381958	
-0.382141	
-0.383301	
-0.384155	
-0.384338	
-0.383301	
-0.383728	
-0.382996	
-0.382751	
-0.382202	
-0.383118	
-0.382996	
-0.38269	
-0.381104	
-0.381348	
-0.381592	
-0.38147	
-0.381409	
-0.380737	
-0.379822	
-0.3797	
-0.381348	
-0.379944	
-0.3797	
-0.379272	
-0.379456	
-0.379211	
-0.379822	
-0.378784	
-0.380066	
-0.378662	
-0.378052	
-0.379211	
-0.379761	
-0.37793	
-0.377441	
-0.377869	
-0.378174	
-0.379211	
-0.380371	
-0.379883	
-0.380676	
-0.380493	
-0.380371	
-0.381226	
-0.382751	
-0.382019	
-0.382202	
-0.381897	
-0.382324	
-0.382507	
-0.383301	
-0.383057	
-0.384216	
-0.383728	
-0.382202	
-0.383179	
-0.385071	
-0.384155	
-0.383789	
-0.384155	
-0.384216	
-0.384033	
-0.384766	
-0.385132	
-0.384888	
-0.384888	
-0.384766	
-0.385132	
-0.385986	
-0.385559	
-0.385864	
-0.385559	
-0.386047	
-0.386719	
-0.387024	
-0.387268	
-0.386414	
-0.386475	
-0.385803	
-0.387329	
-0.386536	
-0.386169	
-0.385498	
-0.384705	
-0.384888	
-0.38501	
-0.384705	
-0.385132	
-0.383728	
-0.383179	
-0.382629	
-0.383911	
-0.38269	
-0.38208	
-0.38147	
-0.382141	
-0.381653	
-0.382019	
-0.381042	
-0.38092	
-0.38092	
-0.380676	
-0.381104	
-0.381348	
-0.380981	
-0.381592	
-0.380249	
-0.38208	
-0.381531	
-0.382019	
-0.382751	
-0.382507	
-0.382629	
-0.383911	
-0.384277	
-0.384033	
-0.384033	
-0.384644	
-0.384216	
-0.384949	
-0.385864	
-0.387024	
-0.387451	
-0.388	
-0.387573	
-0.389099	
-0.388672	
-0.389404	
-0.388916	
-0.389465	
-0.389954	
-0.390564	
-0.390808	
-0.391113	
-0.390991	
-0.391846	
-0.390747	
-0.391296	
-0.391785	
-0.392151	
-0.391846	
-0.390259	
-0.391296	
-0.391296	
-0.391968	
-0.393311	
-0.392456	
-0.391785	
-0.391968	
-0.391541	
-0.391602	
-0.390991	
-0.390259	
-0.389587	
-0.390503	
-0.389954	
-0.390747	
-0.391113	
-0.389709	
-0.389038	
-0.389526	
-0.389221	
-0.389648	
-0.388489	
-0.389526	
-0.387451	
-0.388794	
-0.388367	
-0.388	
-0.388794	
-0.387695	
-0.38739	
-0.388123	
-0.387024	
-0.387512	
-0.386841	
-0.387817	
-0.386047	
-0.387146	
-0.386597	
-0.38678	
-0.387085	
-0.386047	
-0.38501	
-0.387024	
-0.385681	
-0.384277	
-0.384583	
-0.386414	
-0.384705	
-0.386169	
-0.386902	
-0.386841	
-0.387756	
-0.387207	
-0.387146	
-0.38855	
-0.388672	
-0.388184	
-0.387512	
-0.389221	
-0.388428	
-0.388977	
-0.389587	
-0.389587	
-0.389893	
-0.390137	
-0.389954	
-0.390259	
-0.391785	
-0.391418	
-0.391602	
-0.3927	
-0.392395	
-0.392578	
-0.393127	
-0.392334	
-0.392639	
-0.392212	
-0.392822	
-0.391174	
-0.39325	
-0.391907	
-0.392761	
-0.391785	
-0.391724	
-0.391907	
-0.391357	
-0.39209	
-0.39093	
-0.39032	
-0.391541	
-0.389709	
-0.390076	
-0.388977	
-0.389832	
-0.388123	
-0.387939	
-0.388	
-0.386902	
-0.387329	
-0.38623	
-0.385925	
-0.386047	
-0.38562	
-0.385803	
-0.384888	
-0.386353	
-0.383972	
-0.385437	
-0.384949	
-0.385315	
-0.385986	
-0.385376	
-0.38562	
-0.384827	
-0.385986	
-0.386658	
-0.385864	
-0.388123	
-0.386047	
-0.388184	
-0.387695	
-0.388428	
-0.388733	
-0.388611	
-0.390381	
-0.389832	
-0.390198	
-0.39032	
-0.390991	
-0.391785	
-0.390869	
-0.392822	
-0.392883	
-0.393738	
-0.394836	
-0.393616	
-0.395325	
-0.394958	
-0.396179	
-0.395752	
-0.396484	
-0.397278	
-0.39679	
-0.397339	
-0.397522	
-0.397766	
-0.398743	
-0.397827	
-0.398193	
-0.397949	
-0.39917	
-0.398132	
-0.398071	
-0.398438	
-0.398193	
-0.396729	
-0.395874	
-0.395569	
-0.395996	
-0.393555	
-0.393982	
-0.392578	
-0.393311	
-0.391113	
-0.392334	
-0.391602	
-0.39032	
-0.390503	
-0.390198	
-0.389221	
-0.389343	
-0.388611	
-0.388794	
-0.388184	
-0.388672	
-0.386414	
-0.388672	
-0.388489	
-0.388916	
-0.38916	
-0.388	
-0.388062	
-0.388123	
-0.388245	
-0.387878	
-0.387939	
-0.388855	
-0.386841	
-0.388306	
-0.388672	
-0.388916	
-0.387939	
-0.386169	
-0.387512	
-0.387939	
-0.389099	
-0.387939	
-0.388611	
-0.388794	
-0.38855	
-0.388855	
-0.388916	
-0.389221	
-0.39032	
-0.389587	
-0.390198	
-0.391541	
-0.391724	
-0.391602	
-0.391296	
-0.391846	
-0.392029	
-0.392517	
-0.392944	
-0.392944	
-0.393921	
-0.392578	
-0.393127	
-0.394287	
-0.393921	
-0.393616	
-0.393433	
-0.394043	
-0.394409	
-0.393311	
-0.392883	
-0.393799	
-0.394592	
-0.39325	
-0.393921	
-0.393188	
-0.393799	
-0.392212	
-0.392456	
-0.391357	
-0.391541	
-0.391724	
-0.390747	
-0.391602	
-0.391663	
-0.389954	
-0.390808	
-0.390381	
-0.390442	
-0.389709	
-0.390381	
-0.389221	
-0.390442	
-0.389709	
-0.388977	
-0.391235	
-0.389587	
-0.388184	
-0.389404	
-0.390381	
-0.388855	
-0.388855	
-0.38916	
-0.38739	
-0.388672	
-0.388367	
-0.387146	
-0.389282	
-0.388	
-0.386963	
-0.388	
-0.388916	
-0.387695	
-0.387695	
-0.388672	
-0.387085	
-0.387695	
-0.38855	
-0.388489	
-0.389465	
-0.38916	
-0.389526	
-0.390076	
-0.391602	
-0.391479	
-0.391541	
-0.391785	
-0.391296	
-0.392761	
-0.393066	
-0.392517	
-0.39386	
-0.393372	
-0.393005	
-0.393738	
-0.39563	
-0.393982	
-0.394958	
-0.394836	
-0.393921	
-0.394531	
-0.394775	
-0.393982	
-0.394409	
-0.394165	
-0.394104	
-0.392822	
-0.394897	
-0.393311	
-0.393005	
-0.3927	
-0.391724	
-0.392395	
-0.392761	
-0.391235	
-0.391724	
-0.391113	
-0.390503	
-0.389587	
-0.390503	
-0.389282	
-0.389099	
-0.388123	
-0.386108	
-0.387817	
-0.388	
-0.38623	
-0.386902	
-0.38623	
-0.385315	
-0.38501	
-0.386169	
-0.384277	
-0.384521	
-0.384216	
-0.382202	
-0.383484	
-0.384094	
-0.383606	
-0.382874	
-0.382019	
-0.38208	
-0.382996	
-0.384705	
-0.382874	
-0.38385	
-0.384827	
-0.38324	
-0.38501	
-0.386169	
-0.38623	
-0.385437	
-0.385986	
-0.385803	
-0.38623	
-0.387817	
-0.387695	
-0.387329	
-0.388245	
-0.386353	
-0.388367	
-0.389343	
-0.389038	
-0.389282	
-0.38916	
-0.388794	
-0.390564	
-0.390991	
-0.390137	
-0.390503	
-0.390747	
-0.388977	
-0.391052	
-0.391846	
-0.392029	
-0.391479	
-0.391357	
-0.391113	
-0.392029	
-0.393188	
-0.392212	
-0.392517	
-0.39209	
-0.391785	
-0.394226	
-0.394226	
-0.393066	
-0.392334	
-0.392334	
-0.390991	
-0.391113	
-0.392029	
-0.391357	
-0.390564	
-0.390198	
-0.389771	
-0.390747	
-0.389709	
-0.389587	
-0.389282	
-0.388916	
-0.388977	
-0.388489	
-0.389099	
-0.388733	
-0.387146	
-0.386292	
-0.385925	
-0.386292	
-0.386963	
-0.386353	
-0.386292	
-0.386414	
-0.386597	
-0.386658	
-0.387329	
-0.386902	
-0.387329	
-0.386475	
-0.386353	
-0.386414	
-0.388306	
-0.386963	
-0.386841	
-0.386841	
-0.387939	
-0.387329	
-0.388672	
-0.388916	
-0.389587	
-0.389038	
-0.389404	
-0.390747	
-0.392212	
-0.391174	
-0.391968	
-0.391907	
-0.392212	
-0.393127	
-0.395142	
-0.393555	
-0.394409	
-0.39386	
-0.393066	
-0.393066	
-0.395508	
-0.393921	
-0.393921	
-0.393005	
-0.393799	
-0.393616	
-0.394226	
-0.393555	
-0.393555	
-0.391785	
-0.391785	
-0.392212	
-0.392944	
-0.391174	
-0.39093	
-0.389465	
-0.390686	
-0.389648	
-0.390015	
-0.388977	
-0.389221	
-0.388184	
-0.388245	
-0.387817	
-0.387573	
-0.38623	
-0.385986	
-0.384033	
-0.384888	
-0.384338	
-0.384888	
-0.384338	
-0.384094	
-0.382996	
-0.38269	
-0.382446	
-0.382141	
-0.382202	
-0.381592	
-0.379272	
-0.38147	
-0.38208	
-0.382263	
-0.381592	
-0.382507	
-0.381287	
-0.381165	
-0.382507	
-0.382568	
-0.383484	
-0.38385	
-0.382568	
-0.384949	
-0.385559	
-0.386719	
-0.386658	
-0.387573	
-0.386719	
-0.388062	
-0.389282	
-0.388733	
-0.389648	
-0.389709	
-0.388123	
-0.389893	
-0.390442	
-0.391174	
-0.390869	
-0.391296	
-0.390381	
-0.390503	
-0.391357	
-0.390442	
-0.390808	
-0.390442	
-0.388794	
-0.390808	
-0.391663	
-0.391479	
-0.391663	
-0.391174	
-0.390015	
-0.390503	
-0.392273	
-0.390808	
-0.391663	
-0.391724	
-0.391357	
-0.392212	
-0.39209	
-0.391418	
-0.39209	
-0.392029	
-0.390137	
-0.390686	
-0.391357	
-0.389771	
-0.389526	
-0.388916	
-0.388184	
-0.388916	
-0.388611	
-0.388	
-0.388123	
-0.388489	
-0.38623	
-0.386414	
-0.387451	
-0.387024	
-0.386597	
-0.38623	
-0.385681	
-0.385864	
-0.386169	
-0.385498	
-0.387329	
-0.386719	
-0.384277	
-0.384399	
-0.385681	
-0.385071	
-0.384827	
-0.38562	
-0.385498	
-0.386658	
-0.386963	
-0.386963	
-0.388367	
-0.388367	
-0.386292	
-0.388	
-0.388855	
-0.388	
-0.388367	
-0.388733	
-0.387817	
-0.388916	
-0.389343	
-0.389404	
-0.388611	
-0.389465	
-0.388245	
-0.388977	
-0.389954	
-0.389465	
-0.389587	
-0.389709	
-0.388794	
-0.390503	
-0.390808	
-0.39093	
-0.390381	
-0.390991	
-0.389038	
-0.390564	
-0.391724	
-0.390869	
-0.391235	
-0.391235	
-0.39032	
-0.391418	
-0.391479	
-0.391785	
-0.391357	
-0.391785	
-0.390015	
-0.390625	
-0.391113	
-0.389893	
-0.388977	
-0.388855	
-0.388123	
-0.388245	
-0.388184	
-0.387207	
-0.386536	
-0.387146	
-0.385986	
-0.385803	
-0.386169	
-0.386169	
-0.38562	
-0.384338	
-0.38385	
-0.385437	
-0.385559	
-0.384949	
-0.38446	
-0.385193	
-0.384583	
-0.38385	
-0.385498	
-0.384338	
-0.384644	
-0.385132	
-0.384216	
-0.38562	
-0.386719	
-0.386536	
-0.386719	
-0.386902	
-0.387024	
-0.386047	
-0.388611	
-0.387451	
-0.388123	
-0.388245	
-0.388672	
-0.389526	
-0.39093	
-0.390869	
-0.391418	
-0.391357	
-0.391418	
-0.391235	
-0.393738	
-0.39325	
-0.393555	
-0.393738	
-0.393005	
-0.394531	
-0.395752	
-0.395386	
-0.395508	
-0.395874	
-0.394897	
-0.393982	
-0.396179	
-0.395874	
-0.396912	
-0.39679	
-0.39502	
-0.395935	
-0.39679	
-0.396179	
-0.395264	
-0.394836	
-0.394775	
-0.393005	
-0.394714	
-0.393372	
-0.393433	
-0.392883	
-0.391418	
-0.391968	
-0.392639	
-0.392029	
-0.391663	
-0.391968	
-0.390991	
-0.389343	
-0.390808	
-0.390015	
-0.389465	
-0.389526	
-0.388611	
-0.389404	
-0.389832	
-0.388977	
-0.38916	
-0.389038	
-0.388	
-0.387085	
-0.388672	
-0.388245	
-0.387878	
-0.387634	
-0.386963	
-0.388306	
-0.387573	
-0.386169	
-0.385925	
-0.386963	
-0.385925	
-0.386536	
-0.388123	
-0.386902	
-0.388184	
-0.387939	
-0.387939	
-0.389038	
-0.389343	
-0.389221	
-0.389282	
-0.390442	
-0.389709	
-0.389404	
-0.391296	
-0.390442	
-0.390503	
-0.390442	
-0.390381	
-0.391357	
-0.391663	
-0.391968	
-0.392517	
-0.393494	
-0.39325	
-0.392944	
-0.394897	
-0.392151	
-0.393005	
-0.393005	
-0.39209	
-0.39325	
-0.392639	
-0.393799	
-0.392639	
-0.391968	
-0.392517	
-0.391968	
-0.39386	
-0.391479	
-0.392273	
-0.392029	
-0.391724	
-0.392517	
-0.390991	
-0.391113	
-0.389648	
-0.388855	
-0.388794	
-0.387817	
-0.389465	
-0.386658	
-0.38739	
-0.386292	
-0.386475	
-0.38739	
-0.386414	
-0.386414	
-0.386353	
-0.386047	
-0.385803	
-0.385437	
-0.386963	
-0.384827	
-0.385742	
-0.385925	
-0.385071	
-0.38678	
-0.386719	
-0.38739	
-0.387146	
-0.388	
-0.388428	
-0.387268	
-0.389648	
-0.388489	
-0.389465	
-0.389587	
-0.388977	
-0.391235	
-0.390503	
-0.391968	
-0.391479	
-0.391785	
-0.392944	
-0.392761	
-0.394653	
-0.394043	
-0.395142	
-0.394714	
-0.395203	
-0.396423	
-0.396057	
-0.397034	
-0.396729	
-0.39679	
-0.397339	
-0.396362	
-0.399048	
-0.397949	
-0.398438	
-0.397888	
-0.398376	
-0.398987	
-0.399048	
-0.399048	
-0.398499	
-0.397461	
-0.397644	
-0.395813	
-0.396912	
-0.395813	
-0.394714	
-0.394409	
-0.392944	
-0.39386	
-0.393005	
-0.392639	
-0.391846	
-0.391052	
-0.390808	
-0.390259	
-0.390686	
-0.389709	
-0.389221	
-0.38916	
-0.38916	
-0.38916	
-0.388245	
-0.388428	
-0.388794	
-0.388428	
-0.388611	
-0.38855	
-0.389282	
-0.388306	
-0.388855	
-0.388245	
-0.388062	
-0.388977	
-0.389099	
-0.389038	
-0.388489	
-0.388855	
-0.388367	
-0.387085	
-0.387573	
-0.388	
-0.388733	
-0.388611	
-0.388489	
-0.38916	
-0.388672	
-0.389221	
-0.390015	
-0.389954	
-0.390076	
-0.390381	
-0.390991	
-0.39032	
-0.39093	
-0.390503	
-0.391663	
-0.392578	
-0.392639	
-0.393372	
-0.39386	
-0.393005	
-0.393311	
-0.393799	
-0.393372	
-0.393066	
-0.393921	
-0.393372	
-0.393494	
-0.394897	
-0.394348	
-0.394226	
-0.394165	
-0.394287	
-0.395203	
-0.395325	
-0.394775	
-0.393738	
-0.393494	
-0.392578	
-0.392639	
-0.393616	
-0.392578	
-0.392273	
-0.392517	
-0.391357	
-0.391418	
-0.391113	
-0.391479	
-0.390991	
-0.391052	
-0.390137	
-0.390564	
-0.391663	
-0.390564	
-0.390686	
-0.390869	
-0.390076	
-0.390137	
-0.390503	
-0.389404	
-0.389404	
-0.390015	
-0.38855	
-0.389526	
-0.389832	
-0.38916	
-0.389526	
-0.389587	
-0.389038	
-0.389099	
-0.389221	
-0.387939	
-0.388306	
-0.388733	
-0.387451	
-0.388733	
-0.389465	
-0.388916	
-0.388855	
-0.389893	
-0.389587	
-0.390015	
-0.390869	
-0.390076	
-0.390869	
-0.391174	
-0.391174	
-0.391846	
-0.393494	
-0.393372	
-0.393982	
-0.393555	
-0.393555	
-0.394592	
-0.394531	
-0.393738	
-0.39502	
-0.395081	
-0.394409	
-0.395264	
-0.396362	
-0.396057	
-0.39563	
-0.395203	
-0.394958	
-0.395874	
-0.395386	
-0.393921	
-0.394897	
-0.394531	
-0.392578	
-0.392761	
-0.394409	
-0.393188	
-0.392395	
-0.392883	
-0.391846	
-0.393372	
-0.392517	
-0.390564	
-0.390686	
-0.390625	
-0.389343	
-0.389038	
-0.389648	
-0.388855	
-0.388916	
-0.388733	
-0.386841	
-0.388306	
-0.38739	
-0.385254	
-0.387024	
-0.385498	
-0.384766	
-0.384705	
-0.385559	
-0.384766	
-0.384583	
-0.384888	
-0.383362	
-0.384033	
-0.383362	
-0.383057	
-0.384827	
-0.384155	
-0.384094	
-0.38501	
-0.385742	
-0.385315	
-0.386169	
-0.386475	
-0.385559	
-0.387207	
-0.387146	
-0.38678	
-0.387756	
-0.388062	
-0.387817	
-0.388428	
-0.388916	
-0.389038	
-0.389771	
-0.389587	
-0.389282	
-0.391113	
-0.391113	
-0.389893	
-0.391113	
-0.390442	
-0.390747	
-0.391235	
-0.391907	
-0.392212	
-0.391968	
-0.392517	
-0.392761	
-0.394043	
-0.393005	
-0.392456	
-0.39325	
-0.392822	
-0.39325	
-0.393494	
-0.393555	
-0.394409	
-0.394897	
-0.394775	
-0.394043	
-0.39447	
-0.394226	
-0.392822	
-0.392029	
-0.391907	
-0.391968	
-0.391602	
-0.391052	
-0.391663	
-0.390503	
-0.390625	
-0.390991	
-0.391052	
-0.390747	
-0.390076	
-0.390015	
-0.389282	
-0.388794	
-0.387329	
-0.38739	
-0.387268	
-0.386841	
-0.387573	
-0.387939	
-0.388306	
-0.388855	
-0.387695	
-0.387939	
-0.387451	
-0.387878	
-0.387634	
-0.387817	
-0.388428	
-0.388	
-0.388184	
-0.388672	
-0.388855	
-0.389099	
-0.388489	
-0.388977	
-0.388794	
-0.389709	
-0.39032	
-0.390869	
-0.392212	
-0.392029	
-0.391846	
-0.392639	
-0.393799	
-0.394287	
-0.393127	
-0.394104	
-0.39325	
-0.394043	
-0.394775	
-0.395081	
-0.395203	
-0.395264	
-0.394714	
-0.395203	
-0.395691	
-0.395752	
-0.39447	
-0.39447	
-0.393188	
-0.394287	
-0.393311	
-0.393982	
-0.39386	
-0.393127	
-0.392883	
-0.392578	
-0.39209	
-0.392456	
-0.391418	
-0.390442	
-0.389587	
-0.390808	
-0.390259	
-0.389832	
-0.389832	
-0.388672	
-0.387634	
-0.387573	
-0.387451	
-0.38739	
-0.386169	
-0.385681	
-0.384521	
-0.384766	
-0.384827	
-0.384705	
-0.384155	
-0.38385	
-0.383789	
-0.38324	
-0.382813	
-0.383911	
-0.382568	
-0.383057	
-0.381653	
-0.382751	
-0.38269	
-0.382507	
-0.383911	
-0.38324	
-0.384644	
-0.385071	
-0.385864	
-0.387207	
-0.387451	
-0.387878	
-0.386841	
-0.387695	
-0.387939	
-0.389465	
-0.390503	
-0.390381	
-0.390442	
-0.390808	
-0.391907	
-0.3927	
-0.391663	
-0.392761	
-0.391846	
-0.391968	
-0.393066	
-0.392151	
-0.393005	
-0.392151	
-0.392334	
-0.391785	
-0.392883	
-0.393799	
-0.392822	
-0.392944	
-0.391907	
-0.392334	
-0.392578	
-0.392395	
-0.393494	
-0.392883	
-0.392151	
-0.392944	
-0.394348	
-0.39502	
-0.392822	
-0.394287	
-0.392761	
-0.393005	
-0.392029	
-0.392029	
-0.393188	
-0.391418	
-0.391296	
-0.391602	
-0.392151	
-0.392029	
-0.389771	
-0.389832	
-0.388611	
-0.388062	
-0.388367	
-0.388977	
-0.389404	
-0.388245	
-0.387878	
-0.388123	
-0.388611	
-0.388794	
-0.387146	
-0.388	
-0.387634	
-0.386414	
-0.387207	
-0.386292	
-0.386536	
-0.386536	
-0.386597	
-0.386841	
-0.388184	
	
