C:\DOCUMENTS AND SETTINGS\JASON\DESKTOP\UFRJ\UFRJ EPHYS\RSCI-BM 12 WK SERIES\070803-RSCI-BM-11\RSCI-BM-11-LEMG\070803-RSCI-BM-11-LEMG-0003.ACQ
0.025000 msec/sample
1 channel
Analog input
Volts
CH1	
2000	
-0.392883	
-0.392822	
-0.391479	
-0.392639	
-0.392761	
-0.391968	
-0.3927	
-0.392456	
-0.39093	
-0.391602	
-0.391479	
-0.390137	
-0.38916	
-0.389954	
-0.389832	
-0.390198	
-0.389893	
-0.389893	
-0.390015	
-0.390198	
-0.389709	
-0.39032	
-0.390259	
-0.391479	
-0.390259	
-0.390137	
-0.390137	
-0.389465	
-0.390259	
-0.390686	
-0.389893	
-0.390076	
-0.388489	
-0.387451	
-0.388672	
-0.388428	
-0.388306	
-0.388672	
-0.388489	
-0.388	
-0.38855	
-0.388245	
-0.388184	
-0.38739	
-0.388	
-0.38739	
-0.387329	
-0.387207	
-0.388245	
-0.387329	
-0.386719	
-0.387451	
-0.386353	
-0.387085	
-0.387573	
-0.386108	
-0.388428	
-0.387756	
-0.387573	
-0.388428	
-0.388916	
-0.388245	
-0.38855	
-0.388428	
-0.387939	
-0.388672	
-0.389771	
-0.390015	
-0.389832	
-0.390747	
-0.390137	
-0.389587	
-0.390625	
-0.390015	
-0.391052	
-0.390564	
-0.391235	
-0.390137	
-0.391296	
-0.391968	
-0.392029	
-0.393982	
-0.39447	
-0.392944	
-0.39386	
-0.393311	
-0.394531	
-0.393005	
-0.39325	
-0.392944	
-0.393188	
-0.392822	
-0.393738	
-0.393494	
-0.393188	
-0.393555	
-0.393494	
-0.394653	
-0.39563	
-0.394348	
-0.394958	
-0.394714	
-0.394043	
-0.394592	
-0.393982	
-0.395203	
-0.39502	
-0.395325	
-0.393738	
-0.395081	
-0.396301	
-0.395142	
-0.395386	
-0.395752	
-0.395874	
-0.395752	
-0.395691	
-0.395996	
-0.394775	
-0.39624	
-0.397095	
-0.395996	
-0.39563	
-0.396179	
-0.395081	
-0.395386	
-0.395081	
-0.394775	
-0.395264	
-0.395386	
-0.395264	
-0.394409	
-0.39502	
-0.394226	
-0.393127	
-0.39386	
-0.39502	
-0.393616	
-0.393005	
-0.392883	
-0.391418	
-0.393005	
-0.3927	
-0.392517	
-0.391174	
-0.391724	
-0.390442	
-0.390259	
-0.391357	
-0.391785	
-0.391602	
-0.391418	
-0.391602	
-0.391479	
-0.391418	
-0.392212	
-0.39032	
-0.391907	
-0.391541	
-0.39032	
-0.391724	
-0.392944	
-0.392212	
-0.391479	
-0.391602	
-0.389526	
-0.390686	
-0.390808	
-0.391479	
-0.390991	
-0.391113	
-0.390442	
-0.389893	
-0.390381	
-0.390259	
-0.390015	
-0.390076	
-0.389893	
-0.389282	
-0.388855	
-0.389038	
-0.387146	
-0.388367	
-0.388367	
-0.387695	
-0.388367	
-0.388306	
-0.388123	
-0.388611	
-0.388367	
-0.387817	
-0.388184	
-0.388916	
-0.389404	
-0.388794	
-0.388794	
-0.389343	
-0.364197	
-0.362915	
-0.367798	
-0.369141	
-0.369019	
-0.369446	
-0.401978	
-0.396606	
-0.392883	
-0.392578	
-0.391907	
-0.391418	
-0.390686	
-0.392273	
-0.393005	
-0.392212	
-0.391846	
-0.391479	
-0.391541	
-0.393433	
-0.394165	
-0.394653	
-0.393372	
-0.394653	
-0.392944	
-0.39386	
-0.394104	
-0.394226	
-0.39386	
-0.39386	
-0.393005	
-0.394714	
-0.394836	
-0.395447	
-0.395325	
-0.395203	
-0.395813	
-0.39502	
-0.396423	
-0.396912	
-0.396729	
-0.39563	
-0.395752	
-0.395447	
-0.396057	
-0.395569	
-0.395447	
-0.394165	
-0.395203	
-0.395264	
-0.396118	
-0.396973	
-0.399231	
-0.400574	
-0.402649	
-0.404175	
-0.407227	
-0.409668	
-0.413513	
-0.416626	
-0.419189	
-0.422302	
-0.426636	
-0.431091	
-0.436401	
-0.440979	
-0.446289	
-0.450867	
-0.456726	
-0.461609	
-0.467773	
-0.470947	
-0.475037	
-0.479004	
-0.483032	
-0.48584	
-0.488464	
-0.489624	
-0.490173	
-0.490356	
-0.489319	
-0.49054	
-0.491272	
-0.490234	
-0.491333	
-0.492554	
-0.493042	
-0.493774	
-0.495056	
-0.495789	
-0.496155	
-0.497864	
-0.498718	
-0.502991	
-0.504272	
-0.50592	
-0.507324	
-0.509216	
-0.510193	
-0.512085	
-0.513184	
-0.515137	
-0.514832	
-0.514709	
-0.514832	
-0.515137	
-0.515198	
-0.51593	
-0.51532	
-0.515015	
-0.515564	
-0.515747	
-0.516174	
-0.516296	
-0.515442	
-0.51532	
-0.514893	
-0.514221	
-0.514526	
-0.513733	
-0.511536	
-0.510376	
-0.508301	
-0.506531	
-0.504761	
-0.502808	
-0.500122	
-0.496887	
-0.493713	
-0.488342	
-0.48584	
-0.481689	
-0.476807	
-0.472351	
-0.467407	
-0.463623	
-0.459229	
-0.455566	
-0.451782	
-0.446167	
-0.441406	
-0.436646	
-0.431641	
-0.427307	
-0.421814	
-0.415283	
-0.409058	
-0.401489	
-0.394165	
-0.388062	
-0.379211	
-0.37207	
-0.362122	
-0.352966	
-0.343933	
-0.334656	
-0.325684	
-0.317505	
-0.308044	
-0.300049	
-0.291687	
-0.285156	
-0.279297	
-0.274292	
-0.269165	
-0.265259	
-0.261963	
-0.261108	
-0.261353	
-0.260315	
-0.258423	
-0.25946	
-0.258728	
-0.259399	
-0.261414	
-0.26416	
-0.26593	
-0.267944	
-0.271118	
-0.27478	
-0.278076	
-0.283142	
-0.287292	
-0.291504	
-0.29657	
-0.300781	
-0.305725	
-0.310486	
-0.314392	
-0.318604	
-0.32312	
-0.327148	
-0.332214	
-0.336121	
-0.340515	
-0.343689	
-0.347229	
-0.350891	
-0.353821	
-0.358093	
-0.360352	
-0.36322	
-0.364685	
-0.369141	
-0.371338	
-0.372925	
-0.375916	
-0.377014	
-0.377991	
-0.380554	
-0.38269	
-0.384277	
-0.384583	
-0.385376	
-0.385864	
-0.386169	
-0.385986	
-0.386108	
-0.386963	
-0.386719	
-0.38678	
-0.387207	
-0.387512	
-0.388428	
-0.388062	
-0.388245	
-0.388184	
-0.388672	
-0.389465	
-0.388794	
-0.388733	
-0.388123	
-0.387939	
-0.387756	
-0.38739	
-0.388733	
-0.387756	
-0.386963	
-0.386597	
-0.387451	
-0.387756	
-0.386475	
-0.385437	
-0.385986	
-0.384338	
-0.384521	
-0.383118	
-0.383057	
-0.380981	
-0.379639	
-0.37793	
-0.375793	
-0.376038	
-0.373901	
-0.371948	
-0.371094	
-0.368896	
-0.36792	
-0.366272	
-0.365967	
-0.363342	
-0.362061	
-0.360291	
-0.358459	
-0.357422	
-0.356506	
-0.353699	
-0.353271	
-0.350464	
-0.348877	
-0.346924	
-0.346191	
-0.345215	
-0.343628	
-0.341553	
-0.34021	
-0.339905	
-0.339905	
-0.338806	
-0.34021	
-0.339294	
-0.338928	
-0.341125	
-0.34198	
-0.343689	
-0.343201	
-0.344238	
-0.345032	
-0.345825	
-0.347595	
-0.34845	
-0.35083	
-0.350525	
-0.352661	
-0.353516	
-0.353577	
-0.357056	
-0.357056	
-0.357544	
-0.358582	
-0.359009	
-0.360779	
-0.36261	
-0.36322	
-0.36322	
-0.364502	
-0.364624	
-0.36499	
-0.367249	
-0.367432	
-0.367676	
-0.369446	
-0.367981	
-0.370178	
-0.371521	
-0.371948	
-0.372498	
-0.373291	
-0.374695	
-0.373962	
-0.37561	
-0.377197	
-0.376221	
-0.377319	
-0.375977	
-0.376709	
-0.378174	
-0.376282	
-0.37793	
-0.377563	
-0.378174	
-0.377502	
-0.378174	
-0.3797	
-0.378845	
-0.379028	
-0.378601	
-0.376892	
-0.37854	
-0.378418	
-0.378845	
-0.378052	
-0.378296	
-0.378174	
-0.378479	
-0.379028	
-0.379211	
-0.378418	
-0.379639	
-0.378113	
-0.378784	
-0.379089	
-0.377441	
-0.377197	
-0.377319	
-0.376892	
-0.378174	
-0.378174	
-0.379517	
-0.378418	
-0.378662	
-0.378967	
-0.376831	
-0.379395	
-0.379333	
-0.379272	
-0.378967	
-0.377991	
-0.377136	
-0.378113	
-0.378296	
-0.378662	
-0.378357	
-0.378418	
-0.377991	
-0.378174	
-0.379456	
-0.378235	
-0.378235	
-0.377869	
-0.37738	
-0.377869	
-0.377502	
-0.37854	
-0.377563	
-0.377991	
-0.377075	
-0.376831	
-0.378723	
-0.377686	
-0.377991	
-0.378357	
-0.37793	
-0.378418	
-0.379395	
-0.379456	
-0.379761	
-0.380005	
-0.37915	
-0.378967	
-0.380737	
-0.380188	
-0.380066	
-0.380493	
-0.380371	
-0.380188	
-0.381348	
-0.381958	
-0.381409	
-0.38208	
-0.381348	
-0.382507	
-0.384521	
-0.383728	
-0.382813	
-0.384827	
-0.385376	
-0.385986	
-0.386353	
-0.385742	
-0.38562	
-0.385559	
-0.384521	
-0.385437	
-0.386536	
-0.385498	
-0.386597	
-0.386047	
-0.385315	
-0.386475	
-0.387085	
-0.38623	
-0.385986	
-0.386841	
-0.386169	
-0.386475	
-0.386658	
-0.386108	
-0.386414	
-0.386658	
-0.386658	
-0.386719	
-0.388306	
-0.387634	
-0.387024	
-0.386963	
-0.38678	
-0.387634	
-0.386841	
-0.387207	
-0.388367	
-0.388367	
-0.388916	
-0.387878	
-0.389648	
-0.389526	
-0.38916	
-0.389404	
-0.387756	
-0.389099	
-0.388855	
-0.388245	
-0.388977	
-0.388855	
-0.388489	
-0.387817	
-0.388855	
-0.388367	
-0.388916	
-0.388489	
-0.387329	
-0.386963	
-0.387939	
-0.386841	
-0.388	
-0.386902	
-0.387024	
-0.38678	
-0.386597	
-0.387085	
-0.386047	
-0.384827	
-0.385681	
-0.385071	
-0.38501	
-0.385132	
-0.385925	
-0.384766	
-0.384705	
-0.385376	
-0.384888	
-0.386963	
-0.386108	
-0.386047	
-0.38623	
-0.38446	
-0.385986	
-0.386841	
-0.386169	
-0.386841	
-0.385803	
-0.384888	
-0.385193	
-0.385742	
-0.385498	
-0.385803	
-0.38501	
-0.38501	
-0.38501	
-0.385864	
-0.384705	
-0.385437	
-0.385071	
-0.383667	
-0.384583	
-0.384155	
-0.38562	
-0.384827	
-0.383972	
-0.384277	
-0.383728	
-0.383667	
-0.384277	
-0.385498	
-0.38501	
-0.384216	
-0.385132	
-0.384033	
-0.385376	
-0.385559	
-0.385498	
-0.385559	
-0.384888	
-0.385254	
-0.38678	
-0.386353	
-0.386292	
-0.386658	
-0.38678	
-0.386841	
-0.387207	
-0.38855	
-0.388855	
-0.388489	
-0.387756	
-0.388184	
-0.389771	
-0.388306	
-0.389771	
-0.389221	
-0.390076	
-0.391357	
-0.391724	
-0.391907	
-0.391296	
-0.391235	
-0.390564	
-0.390747	
-0.391235	
-0.390259	
-0.391357	
-0.390869	
-0.390198	
-0.391052	
-0.391541	
-0.392273	
-0.39209	
-0.392761	
-0.391907	
-0.391968	
-0.392578	
-0.392029	
-0.393555	
-0.392151	
-0.391296	
-0.392334	
-0.392517	
-0.393066	
-0.393433	
-0.393005	
-0.392944	
-0.392029	
-0.393066	
-0.393494	
-0.394287	
-0.393311	
-0.393372	
-0.393372	
-0.3927	
-0.393677	
-0.394287	
-0.393738	
-0.39386	
-0.392883	
-0.392273	
-0.393799	
-0.393311	
-0.392761	
-0.392639	
-0.392273	
-0.391235	
-0.393005	
-0.393677	
-0.3927	
-0.392883	
-0.391785	
-0.391357	
-0.391724	
-0.390991	
-0.391846	
-0.391052	
-0.390137	
-0.391418	
-0.390564	
-0.389038	
-0.390503	
-0.389343	
-0.389404	
-0.389404	
-0.389709	
-0.390625	
-0.390686	
-0.390198	
-0.389465	
-0.389404	
-0.389771	
-0.390015	
-0.391418	
-0.39032	
-0.390991	
-0.390076	
-0.389587	
-0.390808	
-0.390808	
-0.390442	
-0.389832	
-0.388062	
-0.388489	
-0.389832	
-0.389099	
-0.389648	
-0.389221	
-0.388855	
-0.387573	
-0.389587	
-0.389282	
-0.389282	
-0.388428	
-0.387939	
-0.387329	
-0.387451	
-0.387146	
-0.388367	
-0.386963	
-0.388062	
-0.387207	
-0.387268	
-0.388489	
-0.387268	
-0.386963	
-0.387329	
-0.387817	
-0.386841	
-0.387756	
-0.389709	
-0.387939	
-0.389282	
-0.388062	
-0.387451	
-0.389343	
-0.388	
-0.389648	
-0.389404	
-0.388489	
-0.389465	
-0.39032	
-0.390442	
-0.39032	
-0.390808	
-0.390869	
-0.389832	
-0.391602	
-0.391174	
-0.391541	
-0.391785	
-0.391174	
-0.3927	
-0.393555	
-0.394104	
-0.394653	
-0.393005	
-0.394165	
-0.392334	
-0.393066	
-0.393677	
-0.39325	
-0.393005	
-0.392944	
-0.393494	
-0.39325	
-0.394165	
-0.396545	
-0.394531	
-0.395081	
-0.394836	
-0.393799	
-0.395569	
-0.394775	
-0.394714	
-0.394775	
-0.393494	
-0.394165	
-0.395691	
-0.396362	
-0.395691	
-0.39563	
-0.396484	
-0.394897	
-0.396301	
-0.396484	
-0.39563	
-0.395874	
-0.395264	
-0.395996	
-0.395508	
-0.395691	
-0.396423	
-0.395325	
-0.395386	
-0.394287	
-0.394714	
-0.395691	
-0.395081	
-0.393982	
-0.393921	
-0.393738	
-0.392944	
-0.39386	
-0.394226	
-0.393738	
-0.393066	
-0.393738	
-0.390991	
-0.392822	
-0.392761	
-0.391052	
-0.391907	
-0.390198	
-0.389221	
-0.390015	
-0.390137	
-0.391724	
-0.391174	
-0.390869	
-0.39032	
-0.390442	
-0.390808	
-0.391174	
-0.390991	
-0.390442	
-0.390869	
-0.390503	
-0.391296	
-0.392029	
-0.391479	
-0.39093	
-0.390869	
-0.389099	
-0.392334	
-0.391296	
-0.389465	
-0.390747	
-0.390076	
-0.38916	
-0.390503	
-0.390259	
-0.390076	
-0.39032	
-0.390137	
-0.388672	
-0.389587	
-0.38916	
-0.388611	
-0.388428	
-0.386719	
-0.387512	
-0.387756	
-0.387451	
-0.388855	
-0.387695	
-0.38739	
-0.387512	
-0.386719	
-0.388123	
-0.388306	
-0.387512	
-0.387695	
-0.38739	
-0.387695	
-0.387817	
-0.388916	
-0.389282	
-0.388855	
-0.389099	
-0.387878	
-0.389832	
-0.390015	
-0.388428	
-0.389771	
-0.389587	
-0.388916	
-0.390686	
-0.390747	
-0.391846	
-0.390686	
-0.392151	
-0.393005	
-0.392761	
-0.3927	
-0.392395	
-0.392273	
-0.391663	
-0.391541	
-0.392822	
-0.392334	
-0.392944	
-0.392883	
-0.392517	
-0.393005	
-0.392151	
-0.392761	
-0.392822	
-0.391663	
-0.392822	
-0.393372	
-0.393616	
-0.394104	
-0.393677	
-0.394836	
-0.394531	
-0.394836	
-0.393738	
-0.394226	
-0.394409	
-0.393982	
-0.394348	
-0.393677	
-0.394531	
-0.394592	
-0.395264	
-0.396118	
-0.396484	
-0.395569	
-0.395996	
-0.395569	
-0.394897	
-0.39563	
-0.394531	
-0.394348	
-0.394958	
-0.394653	
-0.394653	
-0.39502	
-0.395081	
-0.393738	
-0.39386	
-0.392822	
-0.394531	
-0.394165	
-0.392761	
-0.392822	
-0.392578	
-0.392395	
-0.392761	
-0.392883	
-0.392822	
-0.392761	
-0.3927	
-0.392517	
-0.391724	
-0.390869	
-0.391296	
-0.390076	
-0.388123	
-0.389282	
-0.388977	
-0.389832	
-0.39032	
-0.390015	
-0.390137	
-0.39032	
-0.389404	
-0.389893	
-0.389893	
-0.388672	
-0.389893	
-0.389709	
-0.38855	
-0.389587	
-0.389832	
-0.38916	
-0.389404	
-0.389343	
-0.38739	
-0.388245	
-0.387085	
-0.388428	
-0.387634	
-0.386841	
-0.387512	
-0.388245	
-0.387939	
-0.388855	
-0.387634	
-0.387878	
-0.387207	
-0.386719	
-0.386902	
-0.387451	
-0.385559	
-0.386169	
-0.386719	
-0.385071	
-0.386047	
-0.386719	
-0.386475	
-0.386902	
-0.386658	
-0.386475	
-0.387939	
-0.386536	
-0.387146	
-0.38739	
-0.387146	
-0.386841	
-0.387695	
-0.388245	
-0.389038	
-0.388672	
-0.389771	
-0.389221	
-0.390015	
-0.389587	
-0.389771	
-0.389404	
-0.389099	
-0.389587	
-0.389648	
-0.39032	
-0.391968	
-0.39209	
-0.392639	
-0.391541	
-0.390747	
-0.391052	
-0.391357	
-0.390015	
-0.390991	
-0.390991	
-0.39032	
-0.391663	
-0.391357	
-0.392029	
-0.391296	
-0.391296	
-0.391418	
-0.391846	
-0.391296	
-0.390808	
-0.392212	
-0.391968	
-0.392334	
-0.392944	
-0.392944	
-0.392944	
-0.392517	
-0.393372	
-0.393555	
-0.392029	
-0.392761	
-0.393738	
-0.393372	
-0.392212	
-0.393677	
-0.393982	
-0.394531	
-0.393982	
-0.39502	
-0.394348	
-0.394531	
-0.394348	
-0.394897	
-0.394226	
-0.393433	
-0.393677	
-0.393738	
-0.393127	
-0.39325	
-0.393311	
-0.393799	
-0.393188	
-0.393982	
-0.393555	
-0.392761	
-0.392456	
-0.392639	
-0.391235	
-0.390503	
-0.391968	
-0.391541	
-0.391357	
-0.391846	
-0.391541	
-0.390991	
-0.390991	
-0.390808	
-0.390564	
-0.39032	
-0.388977	
-0.388245	
-0.388306	
-0.387634	
-0.389038	
-0.388977	
-0.389343	
-0.389038	
-0.390015	
-0.389954	
-0.389404	
-0.389038	
-0.389526	
-0.388916	
-0.388367	
-0.388123	
-0.388	
-0.388123	
-0.388	
-0.387878	
-0.388	
-0.387939	
-0.387512	
-0.38739	
-0.387268	
-0.385803	
-0.386597	
-0.386658	
-0.386108	
-0.386414	
-0.386536	
-0.386597	
-0.386047	
-0.386658	
-0.386536	
-0.385376	
-0.385742	
-0.385437	
-0.385559	
-0.385132	
-0.386169	
-0.386292	
-0.386414	
-0.387085	
-0.388123	
-0.387939	
-0.387817	
-0.387329	
-0.387451	
-0.387573	
-0.386963	
-0.387268	
-0.388184	
-0.387817	
-0.388855	
-0.388977	
-0.389343	
-0.389404	
-0.39032	
-0.390198	
-0.390076	
-0.389709	
-0.389954	
-0.389771	
-0.391541	
-0.392334	
-0.392395	
-0.391968	
-0.392212	
-0.392761	
-0.392456	
-0.392944	
-0.392029	
-0.391724	
-0.391357	
-0.391357	
-0.390991	
-0.391541	
-0.390381	
-0.391602	
-0.391479	
-0.392456	
-0.392395	
-0.393188	
-0.392334	
-0.391785	
-0.392517	
-0.392639	
-0.392212	
-0.393005	
-0.39209	
-0.393066	
-0.3927	
-0.393311	
-0.393799	
-0.394531	
-0.394287	
-0.394409	
-0.394592	
-0.394287	
-0.394287	
-0.394104	
-0.39447	
-0.394104	
-0.39502	
-0.396057	
-0.395874	
-0.39563	
-0.395813	
-0.395203	
-0.39386	
-0.394836	
-0.393555	
-0.393982	
-0.394531	
-0.394409	
-0.394226	
-0.394531	
-0.394043	
-0.39386	
-0.393616	
-0.39447	
-0.393372	
-0.393066	
-0.392334	
-0.391663	
-0.391724	
-0.391907	
-0.390442	
-0.39093	
-0.389954	
-0.390808	
-0.390259	
-0.391724	
-0.390869	
-0.389893	
-0.390686	
-0.390137	
-0.389893	
-0.390381	
-0.390442	
-0.390076	
-0.39032	
-0.390686	
-0.390503	
-0.390808	
-0.391602	
-0.390808	
-0.390747	
-0.389587	
-0.389709	
-0.388916	
-0.389099	
-0.387756	
-0.388733	
-0.388611	
-0.389404	
-0.389404	
-0.390198	
-0.388977	
-0.38916	
-0.388367	
-0.387573	
-0.387146	
-0.388062	
-0.387634	
-0.387268	
-0.388	
-0.388062	
-0.387573	
-0.388245	
-0.388	
-0.388062	
-0.387634	
-0.38739	
-0.387817	
-0.387634	
-0.388062	
-0.388	
-0.388611	
-0.389465	
-0.38916	
-0.389709	
-0.390869	
-0.389038	
-0.389526	
-0.389709	
-0.389648	
-0.389709	
-0.390564	
-0.390076	
-0.39032	
-0.390747	
-0.391663	
-0.391418	
-0.392395	
-0.391907	
-0.392273	
-0.391663	
-0.3927	
-0.394043	
-0.393127	
-0.394226	
-0.392822	
-0.393494	
-0.394165	
-0.393677	
-0.393738	
-0.394836	
-0.393188	
-0.39386	
-0.39386	
-0.39386	
-0.393494	
-0.393494	
-0.394287	
-0.394897	
-0.395935	
-0.395935	
-0.394897	
-0.395874	
-0.394958	
-0.395447	
-0.394226	
-0.393494	
-0.395081	
-0.39447	
-0.394958	
-0.395569	
-0.396179	
-0.396057	
-0.396179	
-0.395935	
-0.397339	
-0.395325	
-0.39624	
-0.396057	
-0.396606	
-0.396423	
-0.396606	
-0.39624	
-0.395996	
-0.396301	
-0.396545	
-0.395325	
-0.396301	
-0.395813	
-0.396179	
-0.39502	
-0.393738	
-0.39502	
-0.394287	
-0.394348	
-0.394226	
-0.394104	
-0.394592	
-0.393982	
-0.393433	
-0.394348	
-0.39325	
-0.393066	
-0.392883	
-0.391968	
-0.390747	
-0.390747	
-0.391052	
-0.390991	
-0.391907	
-0.391968	
-0.391479	
-0.391968	
-0.391418	
-0.392639	
-0.391602	
-0.39093	
-0.391907	
-0.391663	
-0.392029	
-0.39209	
-0.392029	
-0.39325	
-0.392639	
-0.392456	
-0.393066	
-0.391968	
-0.391235	
-0.390442	
-0.390503	
-0.390381	
-0.391052	
-0.390564	
-0.390381	
-0.391602	
-0.39093	
-0.390442	
-0.390076	
-0.389221	
-0.390137	
-0.389038	
-0.388306	
-0.388794	
-0.388428	
-0.388855	
-0.388	
-0.388611	
-0.38916	
-0.388367	
-0.388733	
-0.390198	
-0.389587	
-0.388977	
-0.389343	
-0.389893	
-0.388672	
-0.389404	
-0.389038	
-0.389709	
-0.390198	
-0.389893	
-0.390869	
-0.391296	
-0.390808	
-0.391846	
-0.391052	
-0.39032	
-0.391418	
-0.391968	
-0.391724	
-0.391541	
-0.392883	
-0.392395	
-0.392639	
-0.3927	
-0.393433	
-0.393311	
-0.394226	
-0.394531	
-0.394287	
-0.393799	
-0.394592	
-0.393738	
-0.394165	
-0.395264	
-0.39386	
-0.394165	
-0.394958	
-0.395447	
-0.394897	
-0.395325	
-0.395447	
-0.394531	
-0.395935	
-0.395508	
-0.394348	
-0.39624	
-0.39624	
-0.395264	
-0.395935	
-0.396423	
-0.396667	
-0.396301	
-0.396362	
-0.395874	
-0.395691	
-0.396667	
-0.397217	
-0.39679	
-0.398254	
-0.397339	
-0.396484	
-0.3974	
-0.397888	
-0.397034	
-0.396606	
-0.396606	
-0.396179	
-0.395874	
-0.395752	
-0.395203	
-0.395752	
-0.394897	
-0.395081	
-0.395264	
-0.395569	
-0.395569	
-0.394531	
-0.394653	
-0.39447	
-0.392761	
-0.39386	
-0.393188	
-0.393738	
-0.394409	
-0.393066	
-0.392883	
-0.39325	
-0.392578	
-0.391113	
-0.391235	
-0.39093	
-0.390259	
-0.391174	
-0.390869	
-0.391663	
-0.391968	
-0.391663	
-0.391907	
-0.391235	
-0.391479	
-0.393005	
-0.391785	
-0.39209	
-0.391602	
-0.390442	
-0.391296	
-0.390137	
-0.391479	
-0.391968	
-0.391174	
-0.391541	
-0.391785	
-0.391418	
-0.391785	
-0.391052	
-0.390564	
-0.389282	
-0.390747	
-0.389404	
-0.390198	
-0.390381	
-0.389526	
-0.389404	
-0.389465	
-0.389282	
-0.390015	
-0.388062	
-0.38855	
-0.386536	
-0.38678	
-0.387817	
-0.386902	
-0.388	
-0.389282	
-0.388123	
-0.388367	
-0.388977	
-0.388855	
-0.389221	
-0.388977	
-0.388733	
-0.388184	
-0.389465	
-0.389343	
-0.389832	
-0.39093	
-0.390503	
-0.390503	
-0.390503	
-0.390991	
-0.392334	
-0.390869	
-0.391724	
-0.389832	
-0.39032	
-0.3927	
-0.392456	
-0.393555	
-0.393372	
-0.392273	
-0.393066	
-0.393433	
-0.394348	
-0.393494	
-0.392883	
-0.392273	
-0.391479	
-0.392944	
-0.392273	
-0.392517	
-0.393372	
-0.393311	
-0.393616	
-0.393433	
-0.393921	
-0.395996	
-0.394409	
-0.395447	
-0.394897	
-0.394226	
-0.394958	
-0.394043	
-0.394836	
-0.394653	
-0.394348	
-0.39502	
-0.395996	
-0.396423	
-0.395691	
-0.395874	
-0.395813	
-0.392944	
-0.395508	
-0.395264	
-0.395813	
-0.396851	
-0.396118	
-0.395691	
-0.395386	
-0.394226	
-0.397888	
-0.39447	
-0.394958	
-0.394043	
-0.39386	
-0.394348	
-0.394592	
-0.394653	
-0.394287	
-0.393677	
-0.393677	
-0.393066	
-0.393982	
-0.392578	
-0.393311	
-0.392517	
-0.390198	
-0.392822	
-0.391846	
-0.391968	
-0.392639	
-0.392151	
-0.390381	
-0.388733	
-0.38916	
-0.39209	
-0.390381	
-0.390503	
-0.389282	
-0.389587	
-0.390015	
-0.389404	
-0.390503	
-0.39093	
-0.390503	
-0.390015	
-0.389343	
-0.391846	
-0.390381	
-0.390076	
-0.389221	
-0.387451	
-0.389221	
-0.388733	
-0.389282	
-0.389343	
-0.388672	
-0.389587	
-0.388489	
-0.387817	
-0.390076	
-0.388306	
-0.388733	
-0.386292	
-0.387146	
-0.38739	
-0.387451	
-0.387024	
-0.387451	
-0.38678	
-0.387085	
-0.387024	
-0.38739	
-0.386902	
-0.387085	
-0.386536	
-0.385803	
-0.387451	
-0.38678	
-0.387756	
-0.388062	
-0.388123	
-0.387756	
-0.387939	
-0.387939	
-0.390015	
-0.388611	
-0.389343	
-0.387878	
-0.388489	
-0.388611	
-0.38916	
-0.389465	
-0.390442	
-0.390564	
-0.390137	
-0.390503	
-0.390503	
-0.391602	
-0.392639	
-0.391846	
-0.391235	
-0.391602	
-0.390564	
-0.392151	
-0.392273	
-0.391663	
-0.391418	
-0.391663	
-0.392456	
-0.392822	
-0.391296	
-0.391968	
-0.390503	
-0.390625	
-0.391602	
-0.391602	
-0.391602	
-0.393127	
-0.392395	
-0.393127	
-0.393127	
-0.392822	
-0.392883	
-0.392944	
-0.391907	
-0.391907	
-0.393127	
-0.392334	
-0.392761	
-0.393311	
-0.394226	
-0.393921	
-0.393738	
-0.39502	
-0.396057	
-0.394592	
-0.394897	
-0.394043	
-0.393982	
-0.394165	
-0.394043	
-0.394348	
-0.394592	
-0.394043	
-0.393005	
-0.394165	
-0.393555	
-0.393982	
-0.393738	
-0.3927	
-0.391418	
-0.39325	
-0.392334	
-0.392639	
-0.392456	
-0.392944	
-0.391968	
-0.392273	
-0.391846	
-0.392883	
-0.391602	
-0.391541	
-0.389832	
-0.390869	
-0.390503	
-0.390259	
-0.390442	
-0.389771	
-0.388672	
-0.388611	
-0.389038	
-0.38916	
-0.389465	
-0.389282	
-0.388672	
-0.386902	
-0.388794	
-0.388855	
-0.388977	
-0.389282	
-0.389832	
-0.389099	
-0.388733	
-0.389221	
-0.38916	
-0.387939	
-0.388184	
-0.385864	
-0.387085	
-0.387451	
-0.38678	
-0.387146	
-0.387512	
-0.38739	
-0.387207	
-0.386902	
-0.38678	
-0.386169	
-0.386719	
-0.385803	
-0.384033	
-0.385376	
-0.385803	
-0.385925	
-0.385864	
-0.387207	
-0.386414	
-0.386536	
-0.387329	
-0.387573	
-0.387451	
-0.387085	
-0.386108	
-0.387756	
-0.388062	
-0.387146	
-0.387634	
-0.388184	
-0.387939	
-0.387634	
-0.388794	
-0.389465	
-0.388611	
-0.389038	
-0.390137	
-0.387512	
-0.389709	
-0.390137	
-0.390564	
-0.391174	
-0.391907	
-0.391846	
-0.39325	
-0.393921	
-0.393372	
-0.392151	
-0.392517	
-0.391174	
-0.392456	
-0.39209	
-0.391479	
-0.392456	
-0.392395	
-0.392029	
-0.392639	
-0.392761	
-0.394104	
-0.392395	
-0.392334	
-0.393005	
-0.391113	
-0.392517	
-0.392517	
-0.392944	
-0.392944	
-0.393738	
-0.393188	
-0.393433	
-0.394653	
-0.394226	
-0.394104	
-0.393494	
-0.392883	
-0.394531	
-0.394592	
-0.39386	
-0.394409	
-0.395874	
-0.395752	
-0.396057	
-0.396179	
-0.396973	
-0.395691	
-0.395935	
-0.395447	
-0.39447	
-0.395691	
-0.395264	
-0.394348	
-0.39563	
-0.395996	
-0.395142	
-0.394958	
-0.395752	
-0.394775	
	
