C:\DOCUMENTS AND SETTINGS\JASON\DESKTOP\UFRJ\UFRJ EPHYS\RSCI-BM 12 WK SERIES\070803-RSCI-BM-11\RSCI-BM-11-LEMG\070803-RSCI-BM-11-LEMG-0021.ACQ
0.025000 msec/sample
1 channel
Analog input
Volts
CH1	
2000	
-0.38446	
-0.38446	
-0.383423	
-0.384155	
-0.385742	
-0.386047	
-0.387024	
-0.386292	
-0.386536	
-0.386292	
-0.387085	
-0.387451	
-0.387695	
-0.388123	
-0.387329	
-0.387268	
-0.388245	
-0.389343	
-0.390076	
-0.390442	
-0.39093	
-0.391113	
-0.391174	
-0.392395	
-0.392944	
-0.392822	
-0.392517	
-0.392761	
-0.393982	
-0.394714	
-0.395386	
-0.395203	
-0.395447	
-0.396423	
-0.396973	
-0.397827	
-0.397522	
-0.396729	
-0.395935	
-0.396301	
-0.395508	
-0.395874	
-0.396606	
-0.395874	
-0.39502	
-0.393982	
-0.394043	
-0.393738	
-0.392761	
-0.392822	
-0.39209	
-0.392639	
-0.392151	
-0.392395	
-0.392456	
-0.391174	
-0.391052	
-0.390442	
-0.390808	
-0.389709	
-0.390076	
-0.390076	
-0.389465	
-0.389282	
-0.388733	
-0.389038	
-0.389832	
-0.388794	
-0.388184	
-0.387634	
-0.388672	
-0.388672	
-0.387817	
-0.387634	
-0.38623	
-0.38623	
-0.386169	
-0.386963	
-0.388367	
-0.387817	
-0.38739	
-0.387573	
-0.388794	
-0.38855	
-0.38855	
-0.388611	
-0.388489	
-0.388977	
-0.389648	
-0.389893	
-0.391174	
-0.390625	
-0.390259	
-0.389771	
-0.391541	
-0.390808	
-0.390869	
-0.391052	
-0.391113	
-0.391418	
-0.392212	
-0.392029	
-0.392822	
-0.392761	
-0.392273	
-0.391663	
-0.392395	
-0.391846	
-0.391724	
-0.391479	
-0.391724	
-0.391968	
-0.391907	
-0.392639	
-0.393311	
-0.392029	
-0.391418	
-0.390991	
-0.391235	
-0.390625	
-0.390381	
-0.38855	
-0.387817	
-0.388245	
-0.388367	
-0.387878	
-0.388672	
-0.387939	
-0.387024	
-0.386597	
-0.387146	
-0.387024	
-0.386536	
-0.385437	
-0.385925	
-0.385803	
-0.385864	
-0.386658	
-0.38623	
-0.386658	
-0.38562	
-0.385437	
-0.386719	
-0.385986	
-0.385803	
-0.385071	
-0.386414	
-0.386414	
-0.386719	
-0.386719	
-0.388	
-0.388306	
-0.387451	
-0.387329	
-0.388184	
-0.388	
-0.388062	
-0.38739	
-0.388611	
-0.389771	
-0.389954	
-0.390625	
-0.391113	
-0.391724	
-0.392517	
-0.391602	
-0.393555	
-0.393799	
-0.394348	
-0.393494	
-0.395447	
-0.395813	
-0.395752	
-0.39679	
-0.396851	
-0.397461	
-0.397217	
-0.395752	
-0.397339	
-0.398743	
-0.399536	
-0.398315	
-0.399048	
-0.398743	
-0.398071	
-0.39856	
-0.397644	
-0.397156	
-0.396545	
-0.39447	
-0.396179	
-0.395447	
-0.394897	
-0.393311	
-0.394287	
-0.393921	
-0.393494	
-0.369446	
-0.39563	
-0.396973	
-0.393555	
-0.390747	
-0.392212	
-0.391846	
-0.391785	
-0.389587	
-0.391541	
-0.390747	
-0.390747	
-0.391174	
-0.390381	
-0.389587	
-0.389038	
-0.387573	
-0.388794	
-0.389038	
-0.388672	
-0.386292	
-0.388123	
-0.387939	
-0.387634	
-0.387756	
-0.386719	
-0.386719	
-0.386353	
-0.385925	
-0.386536	
-0.387939	
-0.387817	
-0.386292	
-0.388428	
-0.388123	
-0.389587	
-0.391052	
-0.389709	
-0.389404	
-0.389282	
-0.390808	
-0.388855	
-0.390503	
-0.390503	
-0.388916	
-0.391541	
-0.390869	
-0.390686	
-0.391663	
-0.390442	
-0.390015	
-0.389282	
-0.391418	
-0.389893	
-0.391724	
-0.392944	
-0.394653	
-0.39679	
-0.399414	
-0.401611	
-0.405518	
-0.407227	
-0.409973	
-0.412842	
-0.418762	
-0.422852	
-0.428101	
-0.43219	
-0.439026	
-0.444763	
-0.450806	
-0.456238	
-0.460754	
-0.465454	
-0.471802	
-0.47644	
-0.481384	
-0.486877	
-0.491882	
-0.495789	
-0.501099	
-0.504211	
-0.506714	
-0.510498	
-0.510742	
-0.510864	
-0.51239	
-0.514709	
-0.514587	
-0.51532	
-0.515564	
-0.517334	
-0.519104	
-0.521057	
-0.523621	
-0.525452	
-0.527344	
-0.528503	
-0.529236	
-0.531067	
-0.532104	
-0.532593	
-0.53186	
-0.533997	
-0.534241	
-0.534363	
-0.535217	
-0.53479	
-0.535156	
-0.534607	
-0.533875	
-0.533569	
-0.534058	
-0.533081	
-0.530212	
-0.531128	
-0.529846	
-0.528748	
-0.528931	
-0.527283	
-0.525513	
-0.524841	
-0.525085	
-0.522827	
-0.522156	
-0.519348	
-0.517517	
-0.514587	
-0.511597	
-0.508728	
-0.506042	
-0.502197	
-0.497131	
-0.493408	
-0.489563	
-0.485596	
-0.4823	
-0.477539	
-0.473328	
-0.46875	
-0.462952	
-0.457947	
-0.453491	
-0.447754	
-0.441162	
-0.435242	
-0.42865	
-0.422424	
-0.415405	
-0.40625	
-0.398315	
-0.389282	
-0.379761	
-0.369446	
-0.360046	
-0.349365	
-0.338013	
-0.327576	
-0.317688	
-0.307251	
-0.298584	
-0.2901	
-0.283691	
-0.276611	
-0.271118	
-0.266357	
-0.261963	
-0.258972	
-0.254944	
-0.252075	
-0.250122	
-0.251038	
-0.250977	
-0.249023	
-0.25116	
-0.252625	
-0.254639	
-0.257996	
-0.260437	
-0.263367	
-0.267944	
-0.274719	
-0.277832	
-0.283936	
-0.289551	
-0.296387	
-0.302185	
-0.307251	
-0.312988	
-0.31897	
-0.323669	
-0.328491	
-0.334412	
-0.336365	
-0.341553	
-0.344727	
-0.348328	
-0.351685	
-0.35498	
-0.358154	
-0.361206	
-0.363464	
-0.366028	
-0.36908	
-0.369324	
-0.372375	
-0.373779	
-0.376099	
-0.377502	
-0.378784	
-0.379883	
-0.381592	
-0.383972	
-0.383789	
-0.384033	
-0.383911	
-0.384338	
-0.384277	
-0.382324	
-0.384094	
-0.384094	
-0.384094	
-0.384766	
-0.38501	
-0.383911	
-0.384094	
-0.385193	
-0.382629	
-0.383606	
-0.383423	
-0.383972	
-0.383972	
-0.384155	
-0.382935	
-0.383423	
-0.383728	
-0.38269	
-0.382507	
-0.382019	
-0.382813	
-0.382446	
-0.381592	
-0.382385	
-0.381836	
-0.381714	
-0.381348	
-0.380981	
-0.3797	
-0.379089	
-0.378662	
-0.377075	
-0.376892	
-0.375061	
-0.374817	
-0.374939	
-0.374329	
-0.374023	
-0.373901	
-0.374084	
-0.37207	
-0.372314	
-0.370361	
-0.369507	
-0.368591	
-0.367249	
-0.367065	
-0.365662	
-0.364563	
-0.364502	
-0.363708	
-0.362122	
-0.362671	
-0.361938	
-0.35968	
-0.361267	
-0.360474	
-0.361145	
-0.361145	
-0.360962	
-0.361633	
-0.362854	
-0.363464	
-0.362549	
-0.364014	
-0.363464	
-0.362793	
-0.36438	
-0.364197	
-0.365234	
-0.365601	
-0.36615	
-0.366943	
-0.367432	
-0.368347	
-0.367676	
-0.367493	
-0.366638	
-0.367493	
-0.367004	
-0.367798	
-0.367981	
-0.368042	
-0.367859	
-0.368469	
-0.368591	
-0.367249	
-0.368225	
-0.367981	
-0.36731	
-0.367493	
-0.367493	
-0.367737	
-0.367493	
-0.368103	
-0.367737	
-0.36731	
-0.367493	
-0.367249	
-0.367798	
-0.367371	
-0.369446	
-0.36853	
-0.370361	
-0.370911	
-0.371033	
-0.371765	
-0.373535	
-0.374023	
-0.373352	
-0.374695	
-0.374329	
-0.374329	
-0.374939	
-0.375916	
-0.376648	
-0.37616	
-0.377075	
-0.377808	
-0.378784	
-0.379028	
-0.378418	
-0.379272	
-0.378418	
-0.378784	
-0.379639	
-0.379517	
-0.380615	
-0.380798	
-0.381897	
-0.382507	
-0.382202	
-0.382751	
-0.382935	
-0.382813	
-0.38208	
-0.383057	
-0.383362	
-0.383423	
-0.385803	
-0.385925	
-0.386169	
-0.386108	
-0.386047	
-0.385132	
-0.384827	
-0.385193	
-0.383423	
-0.384216	
-0.382996	
-0.383301	
-0.383911	
-0.384033	
-0.383545	
-0.383972	
-0.383728	
-0.38269	
-0.382629	
-0.383179	
-0.38092	
-0.382202	
-0.380737	
-0.382141	
-0.381958	
-0.381714	
-0.381653	
-0.381897	
-0.382751	
-0.381714	
-0.380737	
-0.380432	
-0.381409	
-0.380737	
-0.379822	
-0.38147	
-0.381714	
-0.381836	
-0.381958	
-0.382141	
-0.381042	
-0.381592	
-0.382263	
-0.379517	
-0.381531	
-0.381592	
-0.382935	
-0.383667	
-0.384155	
-0.384827	
-0.384888	
-0.386597	
-0.385437	
-0.385193	
-0.385681	
-0.386475	
-0.386658	
-0.385254	
-0.387085	
-0.387695	
-0.387878	
-0.389038	
-0.389038	
-0.388306	
-0.387756	
-0.389587	
-0.387695	
-0.388367	
-0.387817	
-0.38855	
-0.388245	
-0.387878	
-0.388428	
-0.388245	
-0.388367	
-0.387512	
-0.387695	
-0.38623	
-0.387024	
-0.386353	
-0.385986	
-0.38623	
-0.386047	
-0.385986	
-0.386169	
-0.386536	
-0.38501	
-0.38385	
-0.38385	
-0.382202	
-0.382263	
-0.38031	
-0.381287	
-0.380737	
-0.379822	
-0.380798	
-0.380493	
-0.380188	
-0.379272	
-0.379761	
-0.377014	
-0.378052	
-0.378662	
-0.378235	
-0.378357	
-0.378296	
-0.378479	
-0.379089	
-0.381104	
-0.379089	
-0.379028	
-0.380127	
-0.379456	
-0.379578	
-0.379456	
-0.380371	
-0.380554	
-0.381104	
-0.381897	
-0.381897	
-0.382568	
-0.382019	
-0.382446	
-0.381714	
-0.38324	
-0.383545	
-0.382507	
-0.383606	
-0.384644	
-0.384888	
-0.38623	
-0.386597	
-0.386414	
-0.386719	
-0.388794	
-0.386536	
-0.388245	
-0.388	
-0.388672	
-0.389465	
-0.389832	
-0.390564	
-0.391846	
-0.3927	
-0.391296	
-0.393188	
-0.394531	
-0.393494	
-0.393494	
-0.392212	
-0.392822	
-0.392395	
-0.392273	
-0.3927	
-0.392883	
-0.392883	
-0.390747	
-0.390137	
-0.390625	
-0.390137	
-0.389099	
-0.387817	
-0.389465	
-0.389099	
-0.388733	
-0.388611	
-0.388306	
-0.388062	
-0.387024	
-0.387939	
-0.386108	
-0.387146	
-0.386475	
-0.385498	
-0.386353	
-0.386108	
-0.385742	
-0.386597	
-0.386536	
-0.385071	
-0.384827	
-0.385681	
-0.383911	
-0.38501	
-0.383484	
-0.384521	
-0.383423	
-0.382751	
-0.383179	
-0.384277	
-0.384888	
-0.384338	
-0.384338	
-0.38385	
-0.38562	
-0.385193	
-0.385071	
-0.385986	
-0.385925	
-0.386169	
-0.387146	
-0.387451	
-0.387268	
-0.387146	
-0.388062	
-0.386414	
-0.387512	
-0.386597	
-0.388794	
-0.38855	
-0.388733	
-0.389465	
-0.389954	
-0.390015	
-0.389099	
-0.389771	
-0.389526	
-0.388672	
-0.389221	
-0.389465	
-0.389526	
-0.390076	
-0.389526	
-0.389771	
-0.390137	
-0.390076	
-0.389648	
-0.389526	
-0.388123	
-0.388794	
-0.387695	
-0.387573	
-0.387756	
-0.386841	
-0.38678	
-0.387634	
-0.386597	
-0.38562	
-0.385681	
-0.384888	
-0.383179	
-0.384399	
-0.384277	
-0.383545	
-0.384277	
-0.384094	
-0.38385	
-0.38385	
-0.385193	
-0.383606	
-0.383423	
-0.38385	
-0.383606	
-0.383362	
-0.383667	
-0.383728	
-0.383362	
-0.384399	
-0.384216	
-0.384338	
-0.385498	
-0.384949	
-0.38446	
-0.385254	
-0.385559	
-0.385132	
-0.385925	
-0.386169	
-0.386414	
-0.387024	
-0.387817	
-0.388	
-0.388489	
-0.388916	
-0.389526	
-0.38855	
-0.39032	
-0.391296	
-0.390503	
-0.391663	
-0.392761	
-0.392822	
-0.394104	
-0.394775	
-0.394287	
-0.395264	
-0.395203	
-0.394775	
-0.395386	
-0.395081	
-0.39502	
-0.397461	
-0.398621	
-0.398071	
-0.397461	
-0.397034	
-0.396484	
-0.395447	
-0.395752	
-0.395508	
-0.394348	
-0.394775	
-0.394104	
-0.39386	
-0.393433	
-0.393372	
-0.393188	
-0.393127	
-0.3927	
-0.391235	
-0.391357	
-0.390503	
-0.390442	
-0.390198	
-0.390198	
-0.390747	
-0.389893	
-0.390686	
-0.39093	
-0.390137	
-0.389404	
-0.388428	
-0.388306	
-0.387939	
-0.387695	
-0.387085	
-0.387756	
-0.387939	
-0.387756	
-0.38739	
-0.387573	
-0.387085	
-0.384644	
-0.384827	
-0.384766	
-0.384644	
-0.386108	
-0.386047	
-0.386963	
-0.386658	
-0.387146	
-0.38739	
-0.38739	
-0.388184	
-0.387085	
-0.388	
-0.386353	
-0.387939	
-0.388367	
-0.38916	
-0.388916	
-0.389648	
-0.389587	
-0.390991	
-0.390381	
-0.390503	
-0.390015	
-0.390747	
-0.389893	
-0.391296	
-0.390808	
-0.390991	
-0.391235	
-0.391479	
-0.391846	
-0.392334	
-0.392517	
-0.391846	
-0.391724	
-0.391663	
-0.390869	
-0.391602	
-0.390564	
-0.391968	
-0.391907	
-0.391113	
-0.391541	
-0.392212	
-0.39325	
-0.391113	
-0.390442	
-0.389526	
-0.388916	
-0.38855	
-0.388794	
-0.388672	
-0.388489	
-0.388428	
-0.388428	
-0.388306	
-0.388672	
-0.386475	
-0.386963	
-0.386292	
-0.386414	
-0.386414	
-0.386292	
-0.385986	
-0.386292	
-0.38623	
-0.387085	
-0.38678	
-0.386414	
-0.385193	
-0.386719	
-0.384399	
-0.386658	
-0.386597	
-0.387695	
-0.387512	
-0.387939	
-0.388916	
-0.389038	
-0.38916	
-0.388794	
-0.388245	
-0.388855	
-0.387756	
-0.389709	
-0.390137	
-0.391357	
-0.392578	
-0.392395	
-0.394287	
-0.394104	
-0.395264	
-0.394287	
-0.395996	
-0.395386	
-0.39563	
-0.396362	
-0.396851	
-0.396973	
-0.397461	
-0.398132	
-0.399841	
-0.397644	
-0.398804	
-0.398315	
-0.398926	
-0.397705	
-0.397766	
-0.397339	
-0.397644	
-0.398254	
-0.397705	
-0.3974	
-0.39801	
-0.39624	
-0.39679	
-0.39502	
-0.395935	
-0.393921	
-0.395569	
-0.39447	
-0.394775	
-0.394409	
-0.394043	
-0.393982	
-0.393311	
-0.394104	
-0.393127	
-0.391052	
-0.392212	
-0.389587	
-0.391113	
-0.389465	
-0.390137	
-0.389282	
-0.389709	
-0.390381	
-0.388367	
-0.389709	
-0.387817	
-0.386292	
-0.386536	
-0.385925	
-0.385437	
-0.384094	
-0.384338	
-0.384888	
-0.385315	
-0.386841	
-0.386108	
-0.387268	
-0.386047	
-0.386475	
-0.385315	
-0.386414	
-0.386963	
-0.387756	
-0.387329	
-0.388611	
-0.388977	
-0.389771	
-0.388977	
-0.389587	
-0.38855	
-0.391052	
-0.389832	
-0.390564	
-0.390503	
-0.391357	
-0.391357	
-0.391541	
-0.391724	
-0.392578	
-0.393066	
-0.393372	
-0.392334	
-0.392944	
-0.392639	
-0.393799	
-0.392822	
-0.393433	
-0.394165	
-0.394226	
-0.395142	
-0.39447	
-0.395386	
-0.394897	
-0.395691	
-0.39624	
-0.394897	
-0.395508	
-0.39447	
-0.395081	
-0.394653	
-0.394348	
-0.394836	
-0.394104	
-0.39502	
-0.392639	
-0.393066	
-0.393188	
-0.391418	
-0.39209	
-0.391907	
-0.392395	
-0.392151	
-0.391846	
-0.392334	
-0.391541	
-0.391846	
-0.38916	
-0.391235	
-0.389648	
-0.390198	
-0.390015	
-0.39032	
-0.390381	
-0.390137	
-0.390991	
-0.391357	
-0.390503	
-0.390625	
-0.390259	
-0.390198	
-0.389221	
-0.390991	
-0.390076	
-0.390625	
-0.390564	
-0.391235	
-0.392517	
-0.392639	
-0.393677	
-0.393005	
-0.39386	
-0.39386	
-0.393616	
-0.394226	
-0.393982	
-0.395569	
-0.395142	
-0.395569	
-0.396423	
-0.396362	
-0.397095	
-0.395935	
-0.3974	
-0.395874	
-0.395569	
-0.397278	
-0.396362	
-0.396423	
-0.396057	
-0.397095	
-0.39679	
-0.39679	
-0.397949	
-0.395508	
-0.395935	
-0.395447	
-0.394897	
-0.395447	
-0.394897	
-0.394531	
-0.394531	
-0.395264	
-0.394409	
-0.394165	
-0.395081	
-0.39209	
-0.393188	
-0.391968	
-0.392029	
-0.391296	
-0.390747	
-0.390198	
-0.389343	
-0.389954	
-0.389465	
-0.388672	
-0.387695	
-0.387146	
-0.387268	
-0.385132	
-0.386108	
-0.38501	
-0.385254	
-0.385315	
-0.385559	
-0.384644	
-0.383972	
-0.383606	
-0.383301	
-0.383972	
-0.384094	
-0.382935	
-0.385071	
-0.383667	
-0.385071	
-0.38623	
-0.38623	
-0.387207	
-0.387329	
-0.388855	
-0.387329	
-0.388367	
-0.388	
-0.38855	
-0.388611	
-0.388916	
-0.389587	
-0.389954	
-0.390503	
-0.390198	
-0.390442	
-0.391907	
-0.389771	
-0.390198	
-0.390747	
-0.391907	
-0.391724	
-0.392395	
-0.393005	
-0.3927	
-0.393372	
-0.393372	
-0.393738	
-0.393738	
-0.393005	
-0.394409	
-0.391968	
-0.394348	
-0.39502	
-0.396179	
-0.396729	
-0.396423	
-0.395996	
-0.395508	
-0.395935	
-0.394043	
-0.394043	
-0.394897	
-0.392761	
-0.393311	
-0.393188	
-0.393066	
-0.39325	
-0.392761	
-0.393188	
-0.392578	
-0.392822	
-0.391785	
-0.391602	
-0.390991	
-0.391357	
-0.391113	
-0.390503	
-0.390564	
-0.390076	
-0.390076	
-0.390564	
-0.390503	
-0.391113	
-0.388794	
-0.389099	
-0.388855	
-0.388855	
-0.389282	
-0.388977	
-0.389465	
-0.389099	
-0.390015	
-0.390015	
-0.389648	
-0.390564	
-0.387817	
-0.388184	
-0.387512	
-0.389832	
-0.390381	
-0.390625	
-0.391357	
-0.392029	
-0.393738	
-0.393372	
-0.39325	
-0.39325	
-0.393677	
-0.39447	
-0.392456	
-0.394714	
-0.394043	
-0.394653	
-0.394897	
-0.395386	
-0.396423	
-0.395935	
-0.396729	
-0.395081	
-0.39563	
-0.395508	
-0.393738	
-0.39502	
-0.394409	
-0.394348	
-0.394531	
-0.394836	
-0.394958	
-0.394653	
-0.395508	
-0.393188	
-0.393066	
-0.39325	
-0.3927	
-0.392578	
-0.392029	
-0.391418	
-0.391663	
-0.391296	
-0.390442	
-0.389526	
-0.390076	
-0.388123	
-0.387329	
-0.386719	
-0.387146	
-0.385986	
-0.385132	
-0.385925	
-0.385742	
-0.385193	
-0.384949	
-0.384766	
-0.384705	
-0.38324	
-0.382446	
-0.382446	
-0.384094	
-0.383789	
-0.382813	
-0.383789	
-0.383972	
-0.384705	
-0.384583	
-0.384766	
-0.384338	
-0.38385	
-0.385132	
-0.384216	
-0.385437	
-0.385742	
-0.385132	
-0.386658	
-0.386658	
-0.387695	
-0.388184	
-0.389648	
-0.387878	
-0.387878	
-0.388611	
-0.388672	
-0.388611	
-0.388855	
-0.389282	
-0.390503	
-0.390625	
-0.392212	
-0.392517	
-0.393921	
-0.392334	
-0.392578	
-0.39386	
-0.393433	
-0.394409	
-0.394775	
-0.394958	
-0.395203	
-0.396362	
-0.39856	
-0.398071	
-0.398621	
-0.39679	
-0.396301	
-0.396851	
-0.396301	
-0.396179	
-0.396118	
-0.395752	
-0.395142	
-0.39502	
-0.394836	
-0.394531	
-0.393921	
-0.392395	
-0.392395	
-0.392334	
-0.392273	
-0.391785	
-0.391174	
-0.391113	
-0.390991	
-0.391724	
-0.391357	
-0.391113	
-0.390076	
-0.38916	
-0.389587	
-0.387329	
-0.389404	
-0.389343	
-0.388245	
-0.388794	
-0.388794	
-0.389099	
-0.389465	
-0.389343	
-0.387939	
-0.387146	
-0.387207	
-0.385925	
-0.386292	
-0.38678	
-0.386108	
-0.387512	
-0.387939	
-0.38855	
-0.389038	
-0.390015	
-0.388672	
-0.388611	
-0.389343	
-0.388916	
-0.389282	
-0.389465	
-0.389954	
-0.389832	
-0.389771	
-0.39093	
-0.390747	
-0.391602	
-0.390869	
-0.390686	
-0.391357	
-0.391907	
-0.392517	
-0.391724	
-0.391724	
-0.392273	
-0.392273	
-0.393311	
-0.392456	
-0.393066	
-0.392273	
-0.391296	
-0.391479	
-0.392334	
-0.392334	
-0.391296	
-0.392334	
-0.392151	
-0.391907	
-0.391968	
-0.391907	
-0.390869	
-0.389587	
-0.389465	
-0.388489	
-0.389099	
-0.388367	
-0.386963	
-0.387695	
-0.387512	
-0.387939	
-0.388367	
-0.388672	
-0.386536	
-0.385925	
-0.386719	
-0.384521	
-0.386353	
-0.386047	
-0.385071	
-0.38562	
-0.385925	
-0.386658	
-0.38678	
-0.387634	
-0.385559	
-0.385681	
-0.386169	
-0.385498	
-0.386414	
-0.386169	
-0.387207	
-0.387085	
-0.387268	
-0.388855	
-0.388306	
-0.388855	
-0.387756	
-0.387695	
-0.388428	
-0.389282	
-0.389404	
-0.388916	
-0.390137	
-0.390869	
-0.391113	
-0.392334	
-0.392822	
-0.393921	
-0.393127	
-0.39325	
-0.394226	
-0.394653	
-0.395325	
-0.395325	
-0.396423	
-0.396667	
-0.397766	
-0.398804	
-0.39856	
-0.39856	
-0.397705	
-0.399414	
-0.398926	
-0.399231	
-0.398926	
-0.398071	
-0.397827	
-0.397949	
-0.398071	
-0.398682	
-0.397705	
-0.396912	
-0.394592	
-0.395752	
-0.395203	
-0.394897	
-0.393616	
-0.393311	
-0.393799	
-0.393494	
-0.393921	
-0.393921	
-0.393555	
-0.392578	
-0.391724	
-0.392456	
-0.390808	
-0.391785	
-0.390747	
-0.389832	
-0.390381	
-0.390015	
-0.391541	
-0.390625	
-0.390869	
-0.389465	
-0.389648	
-0.389587	
-0.388062	
-0.388733	
-0.388855	
-0.387451	
-0.386597	
-0.387512	
-0.387817	
-0.387512	
-0.388367	
-0.387878	
-0.387817	
-0.388367	
-0.387695	
-0.38855	
-0.388733	
-0.389526	
-0.389038	
-0.389832	
-0.39032	
-0.390442	
-0.390198	
-0.390198	
-0.389771	
-0.390442	
-0.389526	
-0.391418	
-0.391479	
-0.391846	
-0.392334	
-0.392883	
-0.392578	
-0.392639	
-0.393494	
-0.391541	
-0.391235	
-0.392395	
-0.392334	
-0.392761	
-0.391907	
-0.393677	
-0.393616	
-0.39325	
-0.393982	
-0.393738	
-0.394348	
-0.392151	
-0.393066	
-0.392212	
-0.393066	
-0.393127	
-0.392822	
-0.392883	
-0.392517	
-0.391846	
-0.391357	
-0.391968	
-0.390747	
-0.389648	
-0.39032	
-0.389221	
-0.389221	
-0.388428	
-0.388428	
-0.388184	
-0.388489	
-0.388611	
-0.388855	
-0.388672	
-0.387817	
-0.387268	
-0.387634	
-0.387146	
-0.387329	
-0.387451	
-0.388245	
-0.388245	
-0.388245	
-0.388855	
-0.389954	
-0.388733	
-0.388245	
-0.388672	
-0.38855	
-0.388733	
-0.38916	
-0.389038	
-0.390381	
-0.390076	
-0.391174	
-0.391296	
-0.392639	
-0.392456	
-0.392334	
-0.393494	
-0.394287	
-0.393799	
-0.395142	
-0.395325	
-0.396118	
-0.396851	
-0.397034	
-0.398254	
-0.399048	
-0.399231	
-0.398132	
-0.399292	
-0.399231	
-0.398438	
-0.399109	
-0.400085	
-0.39978	
-0.399292	
-0.39978	
-0.40033	
-0.399414	
-0.399658	
-0.398865	
-0.398254	
-0.398438	
-0.398254	
-0.397644	
-0.397644	
-0.397156	
-0.396851	
-0.397583	
-0.397278	
-0.395752	
-0.395935	
-0.395752	
-0.393005	
-0.394226	
-0.394592	
-0.394165	
-0.393677	
-0.393738	
-0.393555	
-0.393677	
-0.392883	
-0.392334	
-0.391418	
-0.390991	
-0.388184	
-0.389709	
-0.390015	
-0.388611	
-0.388733	
-0.388672	
-0.388916	
-0.388123	
-0.387573	
-0.386292	
-0.384644	
-0.386414	
-0.386108	
-0.385742	
-0.386536	
-0.385925	
-0.387268	
-0.387146	
-0.387817	
-0.388	
-0.390076	
-0.389282	
-0.387451	
-0.389038	
-0.389099	
-0.38916	
-0.389893	
-0.389832	
-0.390869	
-0.392212	
-0.392334	
-0.391846	
-0.393494	
-0.392944	
-0.392395	
-0.392822	
-0.392883	
-0.392944	
-0.393494	
-0.393494	
-0.393555	
-0.394775	
-0.394592	
-0.39502	
-0.395691	
-0.395508	
-0.394714	
-0.39502	
-0.395447	
-0.395325	
-0.395325	
-0.396362	
-0.397095	
-0.396973	
-0.396851	
-0.396545	
-0.396851	
-0.396057	
-0.395081	
-0.394348	
-0.394592	
-0.395203	
-0.394165	
-0.394165	
-0.393677	
-0.393433	
-0.393616	
-0.394287	
-0.393494	
-0.392273	
-0.393066	
-0.390686	
-0.391602	
-0.391602	
-0.39032	
-0.391602	
-0.391479	
-0.391846	
-0.391296	
-0.391663	
-0.391235	
-0.390137	
-0.390869	
-0.389099	
-0.390076	
-0.390442	
-0.390076	
-0.391052	
-0.391052	
-0.392395	
-0.391907	
-0.391968	
-0.391541	
-0.391907	
-0.392639	
-0.391296	
-0.392456	
-0.393799	
-0.393066	
-0.394714	
-0.394958	
-0.396301	
-0.396301	
-0.397522	
-0.396362	
-0.395996	
-0.396973	
-0.396179	
-0.39624	
-0.397217	
-0.396729	
-0.396851	
-0.397583	
-0.397888	
-0.397339	
-0.398438	
-0.397827	
-0.397278	
-0.397339	
-0.397156	
-0.397034	
-0.396973	
-0.396851	
-0.39624	
-0.396484	
-0.396179	
-0.39624	
-0.396362	
-0.395325	
-0.395386	
-0.39502	
-0.394653	
-0.395081	
-0.393921	
-0.394043	
-0.393738	
-0.393921	
-0.392761	
-0.392517	
-0.393066	
-0.391357	
-0.390686	
-0.389282	
-0.388184	
-0.38855	
-0.387634	
-0.388123	
-0.388	
-0.388489	
-0.386475	
-0.386292	
-0.386475	
-0.386169	
-0.38501	
-0.38324	
-0.383545	
-0.383667	
-0.384094	
-0.385193	
-0.385071	
-0.386414	
-0.38562	
-0.385742	
-0.385742	
-0.386169	
-0.387207	
-0.386292	
-0.386841	
-0.387512	
-0.387695	
-0.389099	
-0.389221	
-0.389954	
-0.389587	
-0.39093	
-0.390137	
-0.390259	
-0.390198	
-0.389893	
-0.390137	
-0.391113	
-0.39032	
-0.391602	
-0.392944	
-0.393066	
-0.393127	
-0.394165	
-0.393188	
-0.393433	
-0.393616	
-0.393616	
-0.393555	
-0.393677	
-0.39325	
-0.394714	
-0.395203	
-0.394897	
-0.396301	
-0.398438	
-0.396729	
-0.396545	
-0.39563	
-0.394836	
-0.39502	
-0.394897	
-0.394592	
-0.395203	
-0.395081	
-0.394531	
-0.394226	
-0.394714	
-0.393799	
-0.393066	
-0.393311	
-0.392578	
-0.392456	
-0.392395	
-0.391907	
-0.391479	
-0.392029	
-0.391479	
-0.390991	
-0.391357	
-0.391052	
-0.390808	
-0.390381	
-0.389954	
-0.390503	
-0.390625	
-0.390442	
-0.390015	
-0.391174	
-0.390198	
-0.390442	
-0.390137	
-0.390015	
-0.390259	
-0.388855	
-0.388855	
-0.390015	
-0.389343	
-0.388855	
-0.389404	
-0.391235	
-0.391052	
-0.391968	
-0.392395	
-0.392395	
-0.392395	
-0.391663	
-0.393005	
-0.393982	
-0.394043	
-0.394287	
-0.394714	
-0.39502	
-0.39563	
-0.395935	
-0.394653	
-0.395691	
-0.395142	
-0.393921	
-0.39502	
-0.395203	
-0.394653	
-0.395264	
-0.395386	
-0.394714	
-0.394775	
-0.39563	
-0.394409	
-0.394348	
-0.394165	
-0.393066	
-0.393372	
-0.393738	
-0.393005	
-0.393311	
-0.39325	
-0.393005	
-0.392029	
-0.393005	
-0.391541	
-0.390747	
-0.389954	
-0.388794	
-0.388733	
-0.388245	
-0.387268	
-0.388	
-0.386841	
-0.386597	
-0.386414	
-0.387817	
-0.385193	
-0.384705	
-0.384399	
-0.384216	
-0.384338	
-0.383789	
-0.383667	
-0.384277	
-0.383728	
-0.384033	
-0.384216	
-0.385986	
-0.383728	
-0.383911	
-0.383545	
	
