C:\DOCUMENTS AND SETTINGS\JASON\DESKTOP\UFRJ\UFRJ EPHYS\RSCI-BM 12 WK SERIES\070803-RSCI-BM-11\RSCI-BM-11-LEMG\070803-RSCI-BM-11-LEMG-0016.ACQ
0.025000 msec/sample
1 channel
Analog input
Volts
CH1	
2000	
-0.388733	
-0.387573	
-0.388367	
-0.388245	
-0.389648	
-0.389404	
-0.390625	
-0.390747	
-0.391113	
-0.390381	
-0.390869	
-0.391113	
-0.392029	
-0.390869	
-0.391479	
-0.390625	
-0.392578	
-0.393005	
-0.39386	
-0.393799	
-0.393005	
-0.3927	
-0.393188	
-0.393616	
-0.393127	
-0.392639	
-0.393188	
-0.391418	
-0.393188	
-0.393127	
-0.394226	
-0.393372	
-0.39386	
-0.393616	
-0.393433	
-0.39325	
-0.393982	
-0.393066	
-0.393311	
-0.391479	
-0.3927	
-0.392517	
-0.3927	
-0.392334	
-0.392456	
-0.392578	
-0.391663	
-0.391479	
-0.392273	
-0.391296	
-0.391541	
-0.389832	
-0.391296	
-0.391541	
-0.392578	
-0.391968	
-0.3927	
-0.393494	
-0.393433	
-0.392883	
-0.393921	
-0.393372	
-0.393494	
-0.392883	
-0.394348	
-0.395325	
-0.396179	
-0.395508	
-0.395935	
-0.397095	
-0.396423	
-0.395752	
-0.3974	
-0.396179	
-0.395935	
-0.395508	
-0.395264	
-0.39624	
-0.396667	
-0.39624	
-0.395874	
-0.395996	
-0.395325	
-0.394775	
-0.395386	
-0.394104	
-0.393494	
-0.393677	
-0.392639	
-0.39325	
-0.39386	
-0.393433	
-0.393066	
-0.392517	
-0.39093	
-0.390076	
-0.39093	
-0.390381	
-0.39093	
-0.390869	
-0.390564	
-0.39093	
-0.391296	
-0.390076	
-0.390198	
-0.389038	
-0.387939	
-0.387817	
-0.388977	
-0.387573	
-0.387329	
-0.388	
-0.386963	
-0.386963	
-0.387878	
-0.386963	
-0.386108	
-0.386292	
-0.385864	
-0.38501	
-0.386719	
-0.385315	
-0.385986	
-0.385681	
-0.386047	
-0.386353	
-0.387756	
-0.387573	
-0.387756	
-0.387573	
-0.386963	
-0.387573	
-0.388916	
-0.387878	
-0.389038	
-0.389343	
-0.389465	
-0.390015	
-0.391235	
-0.390442	
-0.390259	
-0.390381	
-0.389038	
-0.389587	
-0.390564	
-0.389526	
-0.390442	
-0.390015	
-0.389893	
-0.390747	
-0.391479	
-0.390747	
-0.391052	
-0.391418	
-0.390564	
-0.391357	
-0.392883	
-0.391479	
-0.391907	
-0.391968	
-0.392395	
-0.39325	
-0.393311	
-0.393738	
-0.393738	
-0.393372	
-0.392517	
-0.393066	
-0.395264	
-0.394226	
-0.394592	
-0.393372	
-0.392822	
-0.393677	
-0.393127	
-0.393372	
-0.393372	
-0.392761	
-0.391785	
-0.392334	
-0.392639	
-0.391602	
-0.392273	
-0.392334	
-0.392212	
-0.392395	
-0.393433	
-0.393738	
-0.394226	
-0.393616	
-0.392761	
-0.393372	
-0.393982	
-0.393433	
-0.394287	
-0.394409	
-0.393433	
-0.370544	
-0.366028	
-0.369507	
-0.370972	
-0.370972	
-0.370544	
-0.401672	
-0.401001	
-0.397644	
-0.39563	
-0.395325	
-0.393372	
-0.392761	
-0.394226	
-0.393005	
-0.392822	
-0.392761	
-0.393127	
-0.390808	
-0.391846	
-0.391541	
-0.390686	
-0.390869	
-0.389893	
-0.38916	
-0.389404	
-0.389709	
-0.389771	
-0.390076	
-0.390686	
-0.389648	
-0.390625	
-0.390259	
-0.390747	
-0.39093	
-0.389526	
-0.389832	
-0.39209	
-0.390808	
-0.390137	
-0.390686	
-0.390869	
-0.389282	
-0.389893	
-0.389099	
-0.389465	
-0.388245	
-0.387695	
-0.38739	
-0.389099	
-0.38916	
-0.39032	
-0.391724	
-0.393616	
-0.394226	
-0.397766	
-0.399719	
-0.401672	
-0.404663	
-0.407166	
-0.410156	
-0.413818	
-0.418091	
-0.421936	
-0.425842	
-0.430359	
-0.436035	
-0.442688	
-0.446716	
-0.451843	
-0.456848	
-0.462097	
-0.468384	
-0.472351	
-0.477295	
-0.480408	
-0.484497	
-0.487244	
-0.489929	
-0.492188	
-0.494202	
-0.495361	
-0.495911	
-0.498047	
-0.501648	
-0.502441	
-0.504639	
-0.50592	
-0.507996	
-0.507507	
-0.510193	
-0.512024	
-0.51416	
-0.516174	
-0.517761	
-0.520264	
-0.521851	
-0.524292	
-0.525208	
-0.525574	
-0.526489	
-0.526306	
-0.526794	
-0.527283	
-0.52832	
-0.527466	
-0.52655	
-0.526306	
-0.525391	
-0.525879	
-0.52478	
-0.523743	
-0.524719	
-0.525085	
-0.524841	
-0.524963	
-0.525146	
-0.525146	
-0.52417	
-0.523987	
-0.523376	
-0.522278	
-0.52002	
-0.518799	
-0.517395	
-0.515137	
-0.512329	
-0.507874	
-0.50531	
-0.501709	
-0.497192	
-0.493958	
-0.490662	
-0.487183	
-0.481506	
-0.478455	
-0.473877	
-0.470032	
-0.466248	
-0.460938	
-0.456665	
-0.451172	
-0.445374	
-0.43988	
-0.433105	
-0.427979	
-0.419495	
-0.412476	
-0.403992	
-0.396057	
-0.388123	
-0.377625	
-0.368347	
-0.358521	
-0.348328	
-0.340881	
-0.332275	
-0.324341	
-0.314758	
-0.307007	
-0.300354	
-0.294006	
-0.289001	
-0.283142	
-0.278259	
-0.273621	
-0.270508	
-0.268738	
-0.265869	
-0.265564	
-0.26355	
-0.263184	
-0.262634	
-0.263428	
-0.264221	
-0.264465	
-0.266663	
-0.269165	
-0.273193	
-0.276794	
-0.280457	
-0.285339	
-0.289246	
-0.294739	
-0.299316	
-0.304871	
-0.308411	
-0.312744	
-0.3172	
-0.321838	
-0.324951	
-0.329041	
-0.332336	
-0.335693	
-0.340637	
-0.343079	
-0.347229	
-0.349976	
-0.353821	
-0.356018	
-0.344971	
-0.331299	
-0.337097	
-0.339844	
-0.342712	
-0.344849	
-0.372498	
-0.377563	
-0.375488	
-0.375732	
-0.37616	
-0.376892	
-0.378662	
-0.378479	
-0.38031	
-0.380493	
-0.381348	
-0.381348	
-0.382324	
-0.382996	
-0.38324	
-0.383179	
-0.383362	
-0.384583	
-0.385071	
-0.385254	
-0.385376	
-0.385132	
-0.386963	
-0.385864	
-0.386963	
-0.388062	
-0.388916	
-0.390015	
-0.389709	
-0.390198	
-0.388855	
-0.390808	
-0.390625	
-0.391113	
-0.391663	
-0.390808	
-0.390686	
-0.39032	
-0.389587	
-0.38855	
-0.38678	
-0.388306	
-0.387329	
-0.387024	
-0.387512	
-0.388184	
-0.388611	
-0.388977	
-0.39032	
-0.391418	
-0.393555	
-0.394409	
-0.396545	
-0.39801	
-0.399963	
-0.399658	
-0.400269	
-0.402405	
-0.404053	
-0.404907	
-0.407043	
-0.407593	
-0.408936	
-0.410339	
-0.414001	
-0.416138	
-0.419189	
-0.421875	
-0.425049	
-0.428162	
-0.430054	
-0.432495	
-0.433655	
-0.437012	
-0.438721	
-0.442993	
-0.446228	
-0.448059	
-0.450928	
-0.452332	
-0.455627	
-0.458008	
-0.461243	
-0.464172	
-0.464966	
-0.46875	
-0.470276	
-0.472717	
-0.472778	
-0.473694	
-0.473816	
-0.473938	
-0.47583	
-0.474365	
-0.474548	
-0.474609	
-0.475281	
-0.473816	
-0.473083	
-0.476868	
-0.475708	
-0.477844	
-0.479065	
-0.481201	
-0.483154	
-0.484619	
-0.485596	
-0.485413	
-0.485962	
-0.484985	
-0.485657	
-0.486572	
-0.483826	
-0.482544	
-0.480896	
-0.479736	
-0.47699	
-0.474426	
-0.472839	
-0.468384	
-0.467468	
-0.463928	
-0.461365	
-0.457825	
-0.452942	
-0.449585	
-0.443481	
-0.440002	
-0.434692	
-0.429749	
-0.424255	
-0.416382	
-0.411377	
-0.402283	
-0.394104	
-0.385376	
-0.376831	
-0.367493	
-0.356689	
-0.349792	
-0.339966	
-0.331177	
-0.323669	
-0.31488	
-0.309631	
-0.302734	
-0.297913	
-0.294006	
-0.289795	
-0.286804	
-0.283752	
-0.282227	
-0.280396	
-0.279419	
-0.278198	
-0.277405	
-0.277832	
-0.275085	
-0.275757	
-0.275635	
-0.277039	
-0.277527	
-0.278137	
-0.280823	
-0.282959	
-0.2854	
-0.286621	
-0.290466	
-0.29248	
-0.29541	
-0.298523	
-0.299377	
-0.302429	
-0.303711	
-0.307434	
-0.308777	
-0.311523	
-0.312927	
-0.316772	
-0.318909	
-0.320923	
-0.324219	
-0.324768	
-0.327209	
-0.329224	
-0.33197	
-0.334534	
-0.336792	
-0.337952	
-0.339539	
-0.342407	
-0.343445	
-0.34552	
-0.345886	
-0.348022	
-0.349487	
-0.349792	
-0.35321	
-0.354675	
-0.354492	
-0.35614	
-0.357727	
-0.358704	
-0.359985	
-0.362122	
-0.360291	
-0.362915	
-0.362976	
-0.363953	
-0.365479	
-0.364868	
-0.364746	
-0.366455	
-0.367493	
-0.36731	
-0.368469	
-0.367371	
-0.368347	
-0.368896	
-0.368713	
-0.369873	
-0.36969	
-0.369568	
-0.36969	
-0.370361	
-0.3703	
-0.37085	
-0.371582	
-0.369934	
-0.370117	
-0.368896	
-0.370422	
-0.370667	
-0.371399	
-0.369995	
-0.371399	
-0.372925	
-0.372742	
-0.372375	
-0.371521	
-0.371521	
-0.370972	
-0.369934	
-0.371704	
-0.37085	
-0.371033	
-0.370422	
-0.369934	
-0.370972	
-0.370911	
-0.37146	
-0.369324	
-0.370483	
-0.370544	
-0.370728	
-0.371521	
-0.370483	
-0.370728	
-0.371155	
-0.372375	
-0.370972	
-0.372437	
-0.373108	
-0.37262	
-0.372742	
-0.372986	
-0.372925	
-0.373718	
-0.37439	
-0.373779	
-0.374878	
-0.374939	
-0.375488	
-0.376343	
-0.375305	
-0.375488	
-0.375366	
-0.375916	
-0.376221	
-0.37616	
-0.375977	
-0.377319	
-0.376953	
-0.377808	
-0.377563	
-0.376404	
-0.377319	
-0.378296	
-0.37616	
-0.378052	
-0.378357	
-0.378052	
-0.377319	
-0.378235	
-0.379333	
-0.379028	
-0.379517	
-0.379028	
-0.378662	
-0.379333	
-0.379822	
-0.380493	
-0.379272	
-0.379211	
-0.379456	
-0.378967	
-0.380066	
-0.380127	
-0.379211	
-0.380066	
-0.378906	
-0.378723	
-0.378723	
-0.379822	
-0.3797	
-0.380005	
-0.3797	
-0.380066	
-0.38092	
-0.381531	
-0.381165	
-0.380798	
-0.380249	
-0.382202	
-0.382813	
-0.382324	
-0.382324	
-0.383301	
-0.38269	
-0.384583	
-0.385254	
-0.385559	
-0.385742	
-0.385437	
-0.385803	
-0.386719	
-0.387451	
-0.386475	
-0.387512	
-0.385986	
-0.386597	
-0.386292	
-0.387024	
-0.386902	
-0.386353	
-0.385681	
-0.386353	
-0.385559	
-0.386658	
-0.384338	
-0.385254	
-0.384644	
-0.384949	
-0.385254	
-0.385254	
-0.384521	
-0.383667	
-0.384033	
-0.383362	
-0.382263	
-0.382813	
-0.381775	
-0.382874	
-0.381897	
-0.382874	
-0.382324	
-0.382385	
-0.382629	
-0.381409	
-0.380554	
-0.381165	
-0.381409	
-0.380615	
-0.380859	
-0.380371	
-0.379211	
-0.380432	
-0.380432	
-0.379639	
-0.37915	
-0.379578	
-0.379883	
-0.378906	
-0.379333	
-0.378235	
-0.379822	
-0.379089	
-0.38031	
-0.380005	
-0.380615	
-0.38031	
-0.379822	
-0.38092	
-0.381104	
-0.381287	
-0.381836	
-0.381165	
-0.382751	
-0.382263	
-0.383301	
-0.382568	
-0.383911	
-0.383972	
-0.383606	
-0.385315	
-0.384705	
-0.384888	
-0.384216	
-0.385437	
-0.384949	
-0.384521	
-0.385193	
-0.385132	
-0.385254	
-0.38501	
-0.38501	
-0.385681	
-0.386414	
-0.38678	
-0.385864	
-0.386963	
-0.386414	
-0.387268	
-0.386414	
-0.386963	
-0.387146	
-0.386475	
-0.388733	
-0.387939	
-0.388184	
-0.387817	
-0.389343	
-0.389709	
-0.389587	
-0.391113	
-0.389587	
-0.388794	
-0.388733	
-0.388428	
-0.388062	
-0.387939	
-0.388428	
-0.387817	
-0.387451	
-0.387817	
-0.388123	
-0.388	
-0.388733	
-0.38916	
-0.388611	
-0.389587	
-0.389648	
-0.389465	
-0.389221	
-0.390076	
-0.389587	
-0.389221	
-0.390808	
-0.391357	
-0.390808	
-0.391174	
-0.390015	
-0.391174	
-0.391479	
-0.391174	
-0.390198	
-0.391724	
-0.390991	
-0.391479	
-0.391235	
-0.391724	
-0.390686	
-0.389771	
-0.389404	
-0.389709	
-0.389099	
-0.389282	
-0.389038	
-0.388855	
-0.387878	
-0.388184	
-0.38855	
-0.388428	
-0.387756	
-0.387451	
-0.386658	
-0.385925	
-0.38623	
-0.385986	
-0.386902	
-0.386597	
-0.386292	
-0.386963	
-0.388306	
-0.387024	
-0.386963	
-0.386475	
-0.387146	
-0.38739	
-0.386719	
-0.38623	
-0.387695	
-0.386658	
-0.385681	
-0.387024	
-0.387451	
-0.386292	
-0.386597	
-0.38623	
-0.387085	
-0.386414	
-0.386719	
-0.386169	
-0.387207	
-0.387634	
-0.38678	
-0.387451	
-0.387573	
-0.386658	
-0.385132	
-0.385803	
-0.385498	
-0.385254	
-0.38562	
-0.385193	
-0.384583	
-0.384094	
-0.384521	
-0.383789	
-0.383362	
-0.382935	
-0.382751	
-0.383057	
-0.382996	
-0.382751	
-0.382507	
-0.383423	
-0.382507	
-0.382019	
-0.383057	
-0.383179	
-0.383057	
-0.382751	
-0.383301	
-0.383911	
-0.383667	
-0.384949	
-0.384216	
-0.385071	
-0.38501	
-0.383972	
-0.385681	
-0.386658	
-0.385803	
-0.386108	
-0.387329	
-0.387085	
-0.38739	
-0.387695	
-0.388245	
-0.387512	
-0.387695	
-0.388184	
-0.387573	
-0.389282	
-0.390259	
-0.39032	
-0.390076	
-0.389832	
-0.390198	
-0.39032	
-0.390686	
-0.390564	
-0.391052	
-0.391296	
-0.391968	
-0.39209	
-0.392151	
-0.391846	
-0.393921	
-0.39325	
-0.393005	
-0.393005	
-0.393982	
-0.39386	
-0.394043	
-0.394165	
-0.395081	
-0.393433	
-0.39325	
-0.392639	
-0.393799	
-0.392761	
-0.393066	
-0.392761	
-0.393127	
-0.39209	
-0.391174	
-0.392273	
-0.391663	
-0.391418	
-0.390991	
-0.390259	
-0.390808	
-0.390137	
-0.39032	
-0.388733	
-0.389404	
-0.388672	
-0.387695	
-0.389404	
-0.388977	
-0.388123	
-0.387268	
-0.386047	
-0.387268	
-0.387268	
-0.388306	
-0.387207	
-0.388062	
-0.387268	
-0.386902	
-0.38678	
-0.387512	
-0.387451	
-0.386353	
-0.386169	
-0.387207	
-0.387756	
-0.387756	
-0.386169	
-0.388	
-0.387024	
-0.387573	
-0.386963	
-0.387085	
-0.387329	
-0.387451	
-0.388062	
-0.387268	
-0.387695	
-0.388733	
-0.388428	
-0.388672	
-0.388855	
-0.389832	
-0.388733	
-0.388916	
-0.388367	
-0.388611	
-0.390198	
-0.388672	
-0.388855	
-0.387878	
-0.388428	
-0.387695	
-0.386719	
-0.387695	
-0.386597	
-0.385986	
-0.38562	
-0.386414	
-0.386414	
-0.385071	
-0.384644	
-0.384033	
-0.385193	
-0.383118	
-0.382629	
-0.382813	
-0.383545	
-0.383484	
-0.382263	
-0.383789	
-0.384827	
-0.384094	
-0.384583	
-0.383301	
-0.385193	
-0.384094	
-0.385315	
-0.385437	
-0.385681	
-0.385437	
-0.385315	
-0.385132	
-0.386292	
-0.386414	
-0.388184	
-0.38623	
-0.387878	
-0.387512	
-0.388611	
-0.389404	
-0.389954	
-0.389343	
-0.389343	
-0.389465	
-0.389526	
-0.389587	
-0.390564	
-0.389771	
-0.391418	
-0.39093	
-0.392395	
-0.392517	
-0.392334	
-0.392395	
-0.392639	
-0.394165	
-0.393555	
-0.393921	
-0.394226	
-0.394531	
-0.395203	
-0.394104	
-0.395264	
-0.394958	
-0.394287	
-0.393555	
-0.394226	
-0.395203	
-0.39447	
-0.393616	
-0.392822	
-0.393188	
-0.3927	
-0.391846	
-0.392334	
-0.391663	
-0.391235	
-0.389221	
-0.390625	
-0.391174	
-0.389893	
-0.390564	
-0.389099	
-0.389465	
-0.388672	
-0.389465	
-0.389282	
-0.38855	
-0.389038	
-0.389099	
-0.389099	
-0.389221	
-0.389038	
-0.389587	
-0.388123	
-0.389282	
-0.388733	
-0.389343	
-0.388855	
-0.387451	
-0.387695	
-0.388306	
-0.38739	
-0.389099	
-0.388184	
-0.388794	
-0.387817	
-0.387695	
-0.387146	
-0.388	
-0.386536	
-0.38501	
-0.38623	
-0.386963	
-0.386169	
-0.38739	
-0.387756	
-0.388855	
-0.387695	
-0.389526	
-0.388489	
-0.389221	
-0.388672	
-0.388306	
-0.388428	
-0.388733	
-0.388428	
-0.388245	
-0.388123	
-0.388794	
-0.386841	
-0.387695	
-0.387085	
-0.388	
-0.387268	
-0.386536	
-0.385803	
-0.385986	
-0.38623	
-0.384888	
-0.385132	
-0.385254	
-0.384827	
-0.384827	
-0.38446	
-0.385681	
-0.385071	
-0.384399	
-0.384583	
-0.384644	
-0.385559	
-0.385803	
-0.386292	
-0.385681	
-0.386841	
-0.387512	
-0.385864	
-0.387756	
-0.387451	
-0.387024	
-0.387207	
-0.387695	
-0.388672	
-0.388123	
-0.388428	
-0.388611	
-0.390015	
-0.390991	
-0.390137	
-0.390686	
-0.390381	
-0.389771	
-0.38916	
-0.389099	
-0.390076	
-0.389648	
-0.390625	
-0.390015	
-0.390015	
-0.390259	
-0.390381	
-0.39093	
-0.390137	
-0.39032	
-0.390076	
-0.389954	
-0.390747	
-0.390564	
-0.391296	
-0.390076	
-0.391541	
-0.390442	
-0.390564	
-0.391235	
-0.390747	
-0.391113	
-0.390625	
-0.391418	
-0.391968	
-0.392029	
-0.391846	
-0.390869	
-0.39209	
-0.391663	
-0.393127	
-0.392639	
-0.392029	
-0.392334	
-0.391479	
-0.392151	
-0.392883	
-0.393188	
-0.392578	
-0.393494	
-0.394348	
-0.393127	
-0.394775	
-0.394165	
-0.392761	
-0.39325	
-0.393616	
-0.393433	
-0.392883	
-0.393616	
-0.392944	
-0.392212	
-0.393066	
-0.392639	
-0.393066	
-0.392944	
-0.391174	
-0.391602	
-0.391479	
-0.392029	
-0.390808	
-0.391052	
-0.390198	
-0.390198	
-0.389587	
-0.388916	
-0.390686	
-0.390137	
-0.387756	
-0.387512	
-0.387024	
-0.388794	
-0.388428	
-0.388794	
-0.387756	
-0.387695	
-0.388062	
-0.387146	
-0.38855	
-0.387512	
-0.386108	
-0.385803	
-0.385803	
-0.386658	
-0.385376	
-0.38623	
-0.385132	
-0.384949	
-0.385437	
-0.384949	
-0.385498	
-0.384399	
-0.384583	
-0.384583	
-0.38385	
-0.384338	
-0.384399	
-0.385681	
-0.384155	
-0.384766	
-0.385864	
-0.385925	
-0.386597	
-0.385681	
-0.385742	
-0.386047	
-0.38678	
-0.386597	
-0.387146	
-0.38855	
-0.387573	
-0.388489	
-0.388306	
-0.388733	
-0.389709	
-0.388611	
-0.388733	
-0.388245	
-0.389709	
-0.39032	
-0.390991	
-0.391357	
-0.390808	
-0.391113	
-0.390503	
-0.390686	
-0.390869	
-0.390808	
-0.390442	
-0.38916	
-0.391357	
-0.39032	
-0.390625	
-0.391541	
-0.391052	
-0.390991	
-0.391052	
-0.391296	
-0.391602	
-0.390686	
-0.391113	
-0.389648	
-0.391418	
-0.390808	
-0.390686	
-0.390259	
-0.389771	
-0.389832	
-0.389221	
-0.39032	
-0.390198	
-0.387817	
-0.38916	
-0.387817	
-0.388977	
-0.388977	
-0.389832	
-0.389343	
-0.389893	
-0.390381	
-0.390076	
-0.391052	
-0.391174	
-0.39032	
-0.391602	
-0.389465	
-0.392212	
-0.392883	
-0.392944	
-0.392456	
-0.393921	
-0.394409	
-0.393982	
-0.394897	
-0.394714	
-0.393616	
-0.39386	
-0.392639	
-0.394104	
-0.394348	
-0.394653	
-0.393677	
-0.394104	
-0.393921	
-0.393005	
-0.394165	
-0.392639	
-0.391235	
-0.391968	
-0.391724	
-0.391479	
-0.391235	
-0.391174	
-0.39093	
-0.391174	
-0.391113	
-0.389526	
-0.390991	
-0.388611	
-0.387573	
-0.388733	
-0.389526	
-0.389648	
-0.389465	
-0.388916	
-0.388855	
-0.388306	
-0.388611	
-0.386597	
-0.388367	
-0.385986	
-0.384888	
-0.385498	
-0.386536	
-0.385681	
-0.384949	
-0.384949	
-0.385071	
-0.384521	
-0.384827	
-0.383301	
-0.385376	
-0.383728	
-0.383362	
-0.383423	
-0.384705	
-0.384583	
-0.384094	
-0.385132	
-0.384827	
-0.385559	
-0.385925	
-0.384949	
-0.387573	
-0.385925	
-0.386597	
-0.386902	
-0.387451	
-0.38739	
-0.387451	
-0.387451	
-0.388367	
-0.388611	
-0.388428	
-0.387695	
-0.389709	
-0.388184	
-0.388428	
-0.388428	
-0.388489	
-0.388611	
-0.388245	
-0.388672	
-0.38916	
-0.388672	
-0.389587	
-0.389832	
-0.390076	
-0.389404	
-0.389587	
-0.389587	
-0.390137	
-0.390198	
-0.390503	
-0.391479	
-0.39093	
-0.391296	
-0.390808	
-0.390686	
-0.391846	
-0.39093	
-0.392761	
-0.392456	
-0.39209	
-0.391418	
-0.391296	
-0.392578	
-0.391052	
-0.391052	
-0.390625	
-0.39093	
-0.390625	
-0.389343	
-0.390625	
-0.390076	
-0.390503	
-0.390869	
-0.391113	
-0.392334	
-0.392029	
-0.392029	
-0.390991	
-0.3927	
-0.392578	
-0.392273	
-0.392212	
-0.392029	
-0.392883	
-0.392578	
-0.392395	
-0.393921	
-0.393738	
-0.393982	
-0.393005	
-0.394287	
-0.393372	
-0.39386	
-0.393188	
-0.3927	
-0.393372	
-0.392517	
-0.391357	
-0.391907	
-0.391663	
-0.392029	
-0.389954	
-0.391846	
-0.390564	
-0.390076	
-0.390198	
-0.389282	
-0.389893	
-0.390198	
-0.389343	
-0.388367	
-0.387878	
-0.389221	
-0.387817	
-0.389709	
-0.389099	
-0.388672	
-0.388855	
-0.387939	
-0.389587	
-0.388855	
-0.388428	
-0.389038	
-0.388489	
-0.389465	
-0.387695	
-0.388977	
-0.388062	
-0.388733	
-0.388245	
-0.387695	
-0.388855	
-0.388489	
-0.388611	
-0.388306	
-0.388367	
-0.388611	
-0.387451	
-0.388306	
-0.387939	
-0.388245	
-0.387878	
-0.386719	
-0.387512	
-0.387451	
-0.388	
-0.387085	
-0.387024	
-0.387207	
-0.386597	
-0.386597	
-0.386292	
-0.386963	
-0.387329	
-0.38562	
-0.386597	
-0.38623	
-0.385681	
-0.385254	
-0.385376	
-0.384949	
-0.385132	
-0.385193	
-0.384033	
-0.385132	
-0.385803	
-0.38446	
-0.385437	
-0.385132	
-0.385376	
-0.386047	
-0.386292	
-0.386292	
-0.386841	
-0.387085	
-0.385376	
-0.387085	
-0.388	
-0.386353	
-0.388123	
-0.387939	
-0.389221	
-0.387878	
-0.389221	
-0.388855	
-0.389038	
-0.389587	
-0.388611	
-0.389526	
-0.392151	
-0.391174	
-0.391357	
-0.391663	
-0.392334	
-0.391113	
-0.392822	
-0.391357	
-0.392639	
-0.393127	
-0.392944	
-0.393066	
-0.394409	
-0.39386	
-0.394287	
-0.394104	
-0.395264	
-0.394348	
-0.394836	
-0.394287	
-0.395447	
-0.395386	
-0.394531	
-0.394104	
-0.395691	
-0.394775	
-0.394531	
-0.393494	
-0.394531	
-0.394348	
-0.39502	
-0.393616	
-0.393311	
-0.393982	
-0.393066	
-0.391235	
-0.392456	
-0.391968	
-0.39209	
-0.391418	
-0.392273	
-0.390625	
-0.391663	
-0.390137	
-0.390076	
-0.39093	
-0.389709	
-0.389038	
-0.389404	
-0.388123	
-0.387817	
-0.387756	
-0.389465	
-0.389038	
-0.388855	
-0.388489	
-0.388977	
-0.389343	
-0.388733	
-0.387756	
-0.388367	
-0.38916	
-0.388672	
-0.387695	
-0.388977	
-0.388672	
-0.388794	
-0.388245	
-0.388794	
-0.389282	
-0.388367	
-0.387817	
-0.388794	
-0.388794	
-0.388977	
-0.388489	
-0.389038	
-0.389771	
-0.389832	
-0.389221	
-0.390259	
-0.390686	
-0.390442	
-0.390076	
-0.390564	
-0.39032	
-0.389771	
-0.389832	
-0.389282	
-0.389771	
-0.388916	
-0.388733	
-0.388489	
-0.388489	
-0.388184	
-0.388306	
-0.38678	
-0.387024	
-0.386597	
-0.38562	
-0.385864	
-0.385559	
-0.384644	
-0.385742	
-0.384705	
-0.384155	
-0.385071	
-0.38501	
-0.384338	
-0.385071	
-0.384827	
-0.384705	
-0.384888	
-0.385376	
-0.386047	
-0.386658	
-0.386047	
-0.385681	
-0.386536	
-0.387451	
-0.386902	
-0.387695	
-0.388	
-0.387878	
-0.387817	
-0.388306	
-0.388489	
-0.388794	
-0.389587	
-0.389648	
-0.390686	
-0.391113	
-0.389648	
-0.390686	
-0.390747	
-0.390808	
-0.391785	
-0.392212	
-0.391785	
-0.393433	
-0.393372	
-0.392395	
-0.393188	
-0.393982	
-0.393066	
-0.394287	
-0.394958	
-0.394287	
-0.395386	
-0.396118	
-0.39563	
-0.395996	
-0.395691	
-0.394775	
-0.395081	
-0.395569	
-0.394043	
-0.394714	
-0.395081	
-0.394348	
-0.394775	
-0.39447	
-0.393311	
-0.392944	
-0.39325	
-0.391235	
-0.391296	
-0.392395	
-0.391602	
-0.391968	
-0.391479	
-0.390259	
-0.390686	
-0.391296	
-0.390564	
-0.390442	
-0.391296	
-0.390259	
-0.390503	
-0.391479	
-0.389954	
-0.39093	
-0.390808	
-0.39032	
-0.390442	
-0.390625	
-0.389893	
-0.390137	
-0.390686	
-0.388306	
-0.388489	
-0.390137	
-0.388428	
-0.389343	
-0.389587	
-0.388733	
-0.388733	
-0.389099	
-0.38855	
-0.388123	
-0.387634	
-0.386292	
-0.387207	
-0.388306	
-0.386658	
-0.387756	
-0.388245	
-0.388916	
-0.389465	
-0.389099	
-0.388977	
-0.389404	
-0.389771	
-0.388672	
-0.390015	
-0.390137	
-0.388367	
-0.389771	
-0.38916	
-0.388123	
-0.388367	
-0.388611	
-0.388611	
-0.388306	
-0.388855	
-0.387268	
-0.387695	
-0.387695	
-0.386353	
-0.386902	
-0.386658	
-0.386475	
-0.385925	
-0.386902	
-0.386597	
-0.386841	
-0.386292	
-0.385559	
-0.386475	
-0.387207	
-0.386658	
-0.387268	
-0.388245	
-0.387878	
-0.388184	
-0.389587	
-0.389832	
-0.389526	
-0.390137	
-0.389465	
-0.389954	
-0.390137	
-0.390137	
-0.390137	
-0.390381	
-0.391174	
-0.392334	
-0.392883	
-0.392517	
-0.392151	
-0.391663	
-0.391418	
-0.391357	
-0.391296	
-0.391602	
-0.391724	
-0.390808	
-0.391235	
-0.391113	
-0.391724	
-0.392334	
-0.391724	
-0.391968	
-0.391907	
-0.39209	
-0.391968	
-0.392395	
-0.392456	
-0.392273	
-0.392212	
-0.392151	
-0.393005	
-0.39325	
-0.3927	
-0.392334	
-0.392517	
-0.392761	
-0.392273	
-0.393005	
-0.39386	
-0.39502	
-0.394043	
-0.393494	
-0.394592	
-0.393982	
-0.393433	
-0.393433	
-0.393372	
-0.394531	
-0.393616	
-0.394653	
-0.394897	
-0.394897	
-0.394836	
-0.395447	
-0.395935	
-0.395752	
-0.395691	
-0.395264	
-0.394775	
-0.395264	
-0.394409	
-0.394958	
-0.394348	
-0.394714	
-0.393982	
-0.393982	
-0.394531	
-0.395325	
-0.393616	
-0.393372	
-0.393005	
-0.393494	
-0.391785	
-0.391968	
-0.391846	
-0.392761	
-0.391968	
-0.391296	
-0.391541	
-0.392029	
-0.390991	
-0.389709	
-0.388733	
-0.39032	
-0.388367	
-0.389099	
-0.389343	
-0.390381	
-0.389099	
-0.389343	
-0.389526	
-0.389465	
-0.388428	
-0.387695	
-0.387024	
-0.38855	
-0.386108	
-0.387207	
-0.386292	
-0.387756	
-0.387512	
-0.386658	
-0.386841	
-0.387024	
-0.386169	
-0.38562	
-0.385925	
-0.386597	
-0.385071	
-0.385803	
-0.385681	
-0.387268	
-0.386169	
-0.386719	
-0.387451	
	
