C:\DOCUMENTS AND SETTINGS\JASON\DESKTOP\UFRJ\UFRJ EPHYS\RSCI-BM 12 WK SERIES\070803-RSCI-BM-11\RSCI-BM-11-LEMG\070803-RSCI-BM-11-LEMG-0002.ACQ
0.025000 msec/sample
1 channel
Analog input
Volts
CH1	
2000	
-0.39624	
-0.397461	
-0.397278	
-0.396301	
-0.395935	
-0.39502	
-0.395691	
-0.395508	
-0.395691	
-0.396423	
-0.394897	
-0.394165	
-0.394104	
-0.392944	
-0.393738	
-0.394348	
-0.392944	
-0.392029	
-0.391663	
-0.390869	
-0.39032	
-0.389648	
-0.390137	
-0.388977	
-0.388733	
-0.388245	
-0.388672	
-0.387451	
-0.38739	
-0.386414	
-0.385559	
-0.385559	
-0.384705	
-0.383484	
-0.384094	
-0.383667	
-0.385193	
-0.384521	
-0.384216	
-0.385193	
-0.385437	
-0.384827	
-0.38501	
-0.385315	
-0.385864	
-0.38623	
-0.386597	
-0.38739	
-0.387451	
-0.388123	
-0.387695	
-0.388	
-0.388489	
-0.390015	
-0.388977	
-0.388916	
-0.390381	
-0.390381	
-0.390198	
-0.390686	
-0.390747	
-0.392273	
-0.391174	
-0.391418	
-0.392151	
-0.391296	
-0.393005	
-0.391907	
-0.391663	
-0.393555	
-0.393311	
-0.393433	
-0.393982	
-0.393494	
-0.394409	
-0.394104	
-0.392822	
-0.393921	
-0.39447	
-0.395996	
-0.395752	
-0.395874	
-0.394836	
-0.394531	
-0.394409	
-0.395447	
-0.393066	
-0.393982	
-0.393799	
-0.392639	
-0.39209	
-0.394043	
-0.392517	
-0.391357	
-0.392456	
-0.392029	
-0.391785	
-0.391785	
-0.391052	
-0.390686	
-0.390259	
-0.390442	
-0.391174	
-0.390381	
-0.390991	
-0.389771	
-0.388855	
-0.390076	
-0.388794	
-0.389526	
-0.389648	
-0.389343	
-0.38855	
-0.389221	
-0.388245	
-0.388184	
-0.388916	
-0.388306	
-0.387756	
-0.38916	
-0.390869	
-0.39032	
-0.390747	
-0.392395	
-0.391174	
-0.391846	
-0.392334	
-0.392395	
-0.393066	
-0.394043	
-0.393738	
-0.393433	
-0.39447	
-0.393799	
-0.395264	
-0.395386	
-0.395691	
-0.394897	
-0.395203	
-0.394897	
-0.395508	
-0.396118	
-0.395691	
-0.394653	
-0.395142	
-0.395447	
-0.394958	
-0.395203	
-0.394897	
-0.394714	
-0.394653	
-0.394409	
-0.394287	
-0.394043	
-0.394043	
-0.393982	
-0.393127	
-0.392639	
-0.392944	
-0.392883	
-0.392151	
-0.392334	
-0.390686	
-0.391418	
-0.389832	
-0.388184	
-0.389709	
-0.389343	
-0.388062	
-0.386475	
-0.386902	
-0.386047	
-0.385986	
-0.385498	
-0.386353	
-0.38446	
-0.384094	
-0.383179	
-0.384399	
-0.384216	
-0.384399	
-0.383301	
-0.382935	
-0.383545	
-0.383789	
-0.383789	
-0.383301	
-0.383118	
-0.383911	
-0.384094	
-0.383179	
-0.385071	
-0.385498	
-0.385376	
-0.385132	
-0.385864	
-0.38623	
-0.363159	
-0.39325	
-0.393005	
-0.387695	
-0.38916	
-0.388733	
-0.388245	
-0.389526	
-0.390808	
-0.390442	
-0.390198	
-0.390686	
-0.392029	
-0.391968	
-0.392151	
-0.392639	
-0.392578	
-0.392578	
-0.392883	
-0.395325	
-0.395874	
-0.394531	
-0.394531	
-0.393921	
-0.394043	
-0.394958	
-0.395264	
-0.396118	
-0.395569	
-0.396667	
-0.396851	
-0.394836	
-0.396667	
-0.396729	
-0.395447	
-0.394653	
-0.394409	
-0.394226	
-0.394226	
-0.394348	
-0.394897	
-0.391418	
-0.391907	
-0.391479	
-0.390686	
-0.390808	
-0.389893	
-0.389771	
-0.388916	
-0.388245	
-0.387939	
-0.387329	
-0.388306	
-0.389099	
-0.388672	
-0.390442	
-0.391846	
-0.39563	
-0.397217	
-0.39917	
-0.401855	
-0.404053	
-0.407471	
-0.411011	
-0.416077	
-0.422668	
-0.424561	
-0.429077	
-0.433594	
-0.440796	
-0.44635	
-0.45105	
-0.456299	
-0.460754	
-0.465576	
-0.470276	
-0.47406	
-0.478943	
-0.480408	
-0.483032	
-0.484619	
-0.484497	
-0.486633	
-0.486694	
-0.486633	
-0.487061	
-0.488098	
-0.490479	
-0.489624	
-0.489868	
-0.490234	
-0.490967	
-0.491699	
-0.493469	
-0.496765	
-0.499451	
-0.500244	
-0.501587	
-0.503113	
-0.5047	
-0.506531	
-0.507446	
-0.510742	
-0.509399	
-0.51123	
-0.511841	
-0.513428	
-0.513489	
-0.514038	
-0.514282	
-0.513245	
-0.514648	
-0.515686	
-0.514465	
-0.514648	
-0.513245	
-0.513184	
-0.511841	
-0.510376	
-0.51062	
-0.509644	
-0.506897	
-0.505066	
-0.50354	
-0.501099	
-0.498718	
-0.495972	
-0.492798	
-0.487183	
-0.484558	
-0.479797	
-0.475769	
-0.471313	
-0.466492	
-0.462585	
-0.458679	
-0.453918	
-0.450317	
-0.44574	
-0.441833	
-0.436157	
-0.432617	
-0.428345	
-0.422546	
-0.419983	
-0.415466	
-0.409912	
-0.40387	
-0.398193	
-0.392517	
-0.386169	
-0.37915	
-0.373901	
-0.365417	
-0.358826	
-0.351563	
-0.342529	
-0.336304	
-0.327942	
-0.319153	
-0.310913	
-0.303162	
-0.295288	
-0.287659	
-0.281555	
-0.276978	
-0.27124	
-0.268433	
-0.26416	
-0.263367	
-0.261841	
-0.262817	
-0.260803	
-0.260315	
-0.260742	
-0.262207	
-0.26355	
-0.26709	
-0.266968	
-0.270569	
-0.272705	
-0.277588	
-0.279541	
-0.284851	
-0.287842	
-0.292053	
-0.295837	
-0.300049	
-0.304443	
-0.308472	
-0.312134	
-0.316162	
-0.320129	
-0.325806	
-0.329163	
-0.333496	
-0.337219	
-0.341125	
-0.344604	
-0.348022	
-0.350647	
-0.353088	
-0.356445	
-0.359619	
-0.360046	
-0.363281	
-0.36676	
-0.368469	
-0.369568	
-0.372742	
-0.373413	
-0.37616	
-0.378723	
-0.378296	
-0.378845	
-0.379639	
-0.37915	
-0.382019	
-0.383484	
-0.384521	
-0.383667	
-0.385376	
-0.38501	
-0.385315	
-0.387085	
-0.385315	
-0.386475	
-0.386169	
-0.385742	
-0.387451	
-0.388245	
-0.389099	
-0.388367	
-0.389587	
-0.389465	
-0.389832	
-0.391357	
-0.389709	
-0.390869	
-0.390564	
-0.389282	
-0.390686	
-0.390869	
-0.39093	
-0.390259	
-0.389893	
-0.388977	
-0.387329	
-0.388733	
-0.386414	
-0.386169	
-0.384521	
-0.382141	
-0.382263	
-0.381165	
-0.38092	
-0.378601	
-0.376282	
-0.374084	
-0.37207	
-0.370422	
-0.367981	
-0.366577	
-0.364624	
-0.362366	
-0.360596	
-0.358643	
-0.356567	
-0.353882	
-0.350159	
-0.349365	
-0.3479	
-0.344055	
-0.344971	
-0.342712	
-0.341492	
-0.340454	
-0.338196	
-0.339783	
-0.339294	
-0.339111	
-0.339478	
-0.339661	
-0.339905	
-0.340515	
-0.34198	
-0.342407	
-0.343567	
-0.344666	
-0.344116	
-0.3479	
-0.348755	
-0.350159	
-0.352661	
-0.352539	
-0.354187	
-0.35614	
-0.356323	
-0.358521	
-0.359253	
-0.361267	
-0.361694	
-0.364258	
-0.365234	
-0.366028	
-0.367737	
-0.367493	
-0.369995	
-0.370911	
-0.371582	
-0.372864	
-0.373779	
-0.375183	
-0.375549	
-0.377625	
-0.378174	
-0.379211	
-0.380188	
-0.381226	
-0.380798	
-0.381104	
-0.381409	
-0.382385	
-0.382141	
-0.381897	
-0.381348	
-0.382019	
-0.382874	
-0.382263	
-0.381897	
-0.383179	
-0.381958	
-0.382263	
-0.381348	
-0.380859	
-0.381836	
-0.381775	
-0.381226	
-0.380432	
-0.381409	
-0.380127	
-0.379395	
-0.380554	
-0.378418	
-0.379456	
-0.379333	
-0.378662	
-0.379395	
-0.378296	
-0.377991	
-0.378052	
-0.37616	
-0.377563	
-0.376587	
-0.376343	
-0.37677	
-0.376465	
-0.376587	
-0.376465	
-0.375305	
-0.375916	
-0.375427	
-0.375671	
-0.375549	
-0.376709	
-0.376648	
-0.376831	
-0.377991	
-0.377747	
-0.378479	
-0.378967	
-0.379272	
-0.379883	
-0.379639	
-0.379944	
-0.379761	
-0.380066	
-0.381775	
-0.382202	
-0.383118	
-0.382874	
-0.382935	
-0.383118	
-0.382935	
-0.383728	
-0.384705	
-0.384338	
-0.384766	
-0.385132	
-0.386108	
-0.38562	
-0.385864	
-0.386475	
-0.385681	
-0.386169	
-0.386169	
-0.387146	
-0.387878	
-0.386536	
-0.386658	
-0.386353	
-0.388	
-0.388	
-0.388916	
-0.388977	
-0.388184	
-0.38739	
-0.386536	
-0.386963	
-0.387451	
-0.385925	
-0.385437	
-0.384094	
-0.386719	
-0.385681	
-0.385864	
-0.385803	
-0.385803	
-0.385193	
-0.38501	
-0.384705	
-0.38562	
-0.384705	
-0.384399	
-0.382996	
-0.384888	
-0.384216	
-0.383972	
-0.384583	
-0.385071	
-0.383606	
-0.384216	
-0.384644	
-0.384766	
-0.384094	
-0.384705	
-0.384094	
-0.385498	
-0.384827	
-0.384888	
-0.385681	
-0.385925	
-0.385376	
-0.385315	
-0.385986	
-0.386353	
-0.386169	
-0.386902	
-0.386536	
-0.388367	
-0.388672	
-0.388794	
-0.39032	
-0.390869	
-0.390808	
-0.390686	
-0.390991	
-0.391724	
-0.391418	
-0.391663	
-0.391357	
-0.392883	
-0.392212	
-0.392883	
-0.393616	
-0.393616	
-0.393372	
-0.393127	
-0.391724	
-0.393799	
-0.392944	
-0.392517	
-0.391846	
-0.392517	
-0.392334	
-0.392517	
-0.392029	
-0.391052	
-0.391541	
-0.391113	
-0.390564	
-0.391052	
-0.39032	
-0.390198	
-0.389648	
-0.388062	
-0.38916	
-0.388245	
-0.387451	
-0.387634	
-0.386353	
-0.38623	
-0.385559	
-0.385376	
-0.384521	
-0.384338	
-0.384155	
-0.383728	
-0.38446	
-0.383484	
-0.382385	
-0.382324	
-0.380493	
-0.380127	
-0.38031	
-0.379944	
-0.38208	
-0.38147	
-0.381714	
-0.381348	
-0.381348	
-0.382813	
-0.382446	
-0.38269	
-0.383179	
-0.384033	
-0.383606	
-0.383606	
-0.384888	
-0.385376	
-0.385803	
-0.385498	
-0.384399	
-0.385681	
-0.385986	
-0.386902	
-0.387634	
-0.387695	
-0.388428	
-0.388306	
-0.388428	
-0.38916	
-0.388367	
-0.389038	
-0.388489	
-0.389465	
-0.389954	
-0.390076	
-0.390564	
-0.390808	
-0.391602	
-0.391357	
-0.390137	
-0.391174	
-0.391663	
-0.391907	
-0.391357	
-0.391479	
-0.392273	
-0.393372	
-0.393372	
-0.392761	
-0.393066	
-0.392395	
-0.392029	
-0.392334	
-0.390625	
-0.391541	
-0.391113	
-0.391235	
-0.391479	
-0.390137	
-0.391052	
-0.391113	
-0.390137	
-0.390015	
-0.389587	
-0.390503	
-0.389465	
-0.388733	
-0.38855	
-0.388428	
-0.388611	
-0.388306	
-0.387939	
-0.387634	
-0.388	
-0.388123	
-0.387207	
-0.388428	
-0.388794	
-0.386841	
-0.386902	
-0.386475	
-0.386841	
-0.387207	
-0.386047	
-0.38562	
-0.386841	
-0.387878	
-0.388306	
-0.388428	
-0.390137	
-0.389526	
-0.390564	
-0.390137	
-0.390137	
-0.391479	
-0.391663	
-0.391602	
-0.392395	
-0.3927	
-0.394043	
-0.393616	
-0.394348	
-0.393677	
-0.39325	
-0.393616	
-0.394348	
-0.393616	
-0.393921	
-0.394043	
-0.395081	
-0.393616	
-0.394165	
-0.394043	
-0.394226	
-0.394226	
-0.392578	
-0.393127	
-0.392944	
-0.392212	
-0.392212	
-0.392822	
-0.391846	
-0.392151	
-0.391785	
-0.391968	
-0.391418	
-0.391418	
-0.391113	
-0.389648	
-0.390198	
-0.390442	
-0.389221	
-0.38855	
-0.387756	
-0.387756	
-0.386536	
-0.386108	
-0.386169	
-0.385193	
-0.38562	
-0.383667	
-0.384155	
-0.383789	
-0.382385	
-0.383423	
-0.383179	
-0.381531	
-0.38324	
-0.382813	
-0.383179	
-0.382446	
-0.382935	
-0.382324	
-0.381348	
-0.381775	
-0.383118	
-0.383789	
-0.383972	
-0.383728	
-0.384766	
-0.384644	
-0.385437	
-0.385193	
-0.385071	
-0.386047	
-0.385376	
-0.385803	
-0.387207	
-0.387024	
-0.388	
-0.388245	
-0.388184	
-0.389587	
-0.389832	
-0.391113	
-0.390747	
-0.39093	
-0.390686	
-0.390076	
-0.391602	
-0.391785	
-0.392944	
-0.392883	
-0.393433	
-0.395569	
-0.395325	
-0.395508	
-0.395203	
-0.394958	
-0.39447	
-0.393677	
-0.394958	
-0.395874	
-0.396545	
-0.396545	
-0.395386	
-0.395142	
-0.395264	
-0.39563	
-0.39502	
-0.393555	
-0.393494	
-0.392883	
-0.391724	
-0.392273	
-0.392212	
-0.392517	
-0.391479	
-0.389893	
-0.39093	
-0.390259	
-0.391113	
-0.389771	
-0.389465	
-0.389343	
-0.388672	
-0.389832	
-0.388367	
-0.388611	
-0.388123	
-0.388489	
-0.388794	
-0.38855	
-0.388367	
-0.388977	
-0.387695	
-0.387268	
-0.387329	
-0.388184	
-0.388123	
-0.387146	
-0.386353	
-0.385925	
-0.38678	
-0.387207	
-0.387573	
-0.389038	
-0.387695	
-0.388184	
-0.388184	
-0.388306	
-0.389404	
-0.389709	
-0.389282	
-0.389221	
-0.388672	
-0.389709	
-0.390625	
-0.391113	
-0.391724	
-0.390686	
-0.390808	
-0.390747	
-0.390991	
-0.390686	
-0.39209	
-0.391663	
-0.391357	
-0.391479	
-0.392517	
-0.392517	
-0.393738	
-0.391541	
-0.392395	
-0.391846	
-0.391418	
-0.392212	
-0.392029	
-0.392395	
-0.391907	
-0.390381	
-0.39209	
-0.392639	
-0.392151	
-0.391541	
-0.391235	
-0.390381	
-0.389587	
-0.390076	
-0.389404	
-0.389343	
-0.388916	
-0.388062	
-0.387939	
-0.387451	
-0.386902	
-0.388306	
-0.386536	
-0.38623	
-0.385376	
-0.385803	
-0.385864	
-0.385803	
-0.385681	
-0.384583	
-0.383972	
-0.385376	
-0.385681	
-0.385803	
-0.385132	
-0.385376	
-0.384644	
-0.383545	
-0.385681	
-0.385437	
-0.386414	
-0.386414	
-0.386169	
-0.38678	
-0.387207	
-0.387634	
-0.388062	
-0.388367	
-0.388062	
-0.387817	
-0.389343	
-0.389587	
-0.389954	
-0.390808	
-0.391418	
-0.391418	
-0.393188	
-0.394958	
-0.394653	
-0.394226	
-0.394592	
-0.393738	
-0.393799	
-0.39563	
-0.396362	
-0.397034	
-0.39679	
-0.396301	
-0.397644	
-0.399475	
-0.400452	
-0.39978	
-0.398621	
-0.397461	
-0.397217	
-0.398193	
-0.397339	
-0.397217	
-0.39679	
-0.396545	
-0.395264	
-0.396118	
-0.397217	
-0.395203	
-0.394531	
-0.394653	
-0.392395	
-0.393066	
-0.393494	
-0.393311	
-0.393066	
-0.392029	
-0.392395	
-0.391724	
-0.391663	
-0.392151	
-0.391907	
-0.391113	
-0.390015	
-0.390503	
-0.391052	
-0.389832	
-0.389771	
-0.389404	
-0.388489	
-0.388733	
-0.389099	
-0.390564	
-0.389221	
-0.388611	
-0.38855	
-0.387451	
-0.387634	
-0.387146	
-0.388	
-0.387451	
-0.388123	
-0.388184	
-0.38855	
-0.388672	
-0.388794	
-0.389832	
-0.389404	
-0.387817	
-0.388855	
-0.389343	
-0.389221	
-0.389465	
-0.389709	
-0.390015	
-0.390198	
-0.391418	
-0.392944	
-0.391296	
-0.391907	
-0.392151	
-0.391602	
-0.391602	
-0.392212	
-0.393433	
-0.392578	
-0.392761	
-0.392578	
-0.393433	
-0.393616	
-0.39325	
-0.393982	
-0.393738	
-0.392517	
-0.393188	
-0.392578	
-0.392883	
-0.393799	
-0.394592	
-0.394043	
-0.392517	
-0.393127	
-0.393799	
-0.392029	
-0.391602	
-0.391052	
-0.389771	
-0.389709	
-0.389832	
-0.390259	
-0.389099	
-0.388794	
-0.387939	
-0.388123	
-0.388611	
-0.387695	
-0.38855	
-0.387817	
-0.385986	
-0.387268	
-0.38623	
-0.386719	
-0.387146	
-0.387512	
-0.387329	
-0.385925	
-0.387329	
-0.388794	
-0.387512	
-0.388	
-0.387634	
-0.387817	
-0.388	
-0.387451	
-0.388428	
-0.388611	
-0.389893	
-0.389282	
-0.38916	
-0.390808	
-0.390991	
-0.391357	
-0.391174	
-0.390259	
-0.39209	
-0.392761	
-0.394531	
-0.394104	
-0.39502	
-0.395813	
-0.394836	
-0.396484	
-0.398438	
-0.397827	
-0.398193	
-0.397888	
-0.398193	
-0.399475	
-0.397766	
-0.40033	
-0.399719	
-0.399719	
-0.399902	
-0.400024	
-0.399597	
-0.399475	
-0.40033	
-0.399719	
-0.397888	
-0.398926	
-0.397156	
-0.398682	
-0.397461	
-0.397095	
-0.39679	
-0.396301	
-0.39679	
-0.397888	
-0.395996	
-0.396484	
-0.395081	
-0.394775	
-0.393982	
-0.393372	
-0.393921	
-0.393555	
-0.392212	
-0.392029	
-0.39209	
-0.391968	
-0.390991	
-0.391052	
-0.391052	
-0.388306	
-0.389526	
-0.388062	
-0.389771	
-0.387756	
-0.387695	
-0.386963	
-0.387512	
-0.387634	
-0.389038	
-0.387024	
-0.386902	
-0.385498	
-0.385681	
-0.386353	
-0.386963	
-0.386536	
-0.387207	
-0.387573	
-0.386719	
-0.388245	
-0.389282	
-0.389099	
-0.390198	
-0.390503	
-0.389343	
-0.390198	
-0.389038	
-0.390198	
-0.391235	
-0.391602	
-0.391907	
-0.391968	
-0.392883	
-0.394714	
-0.393066	
-0.393616	
-0.392639	
-0.39325	
-0.393433	
-0.394653	
-0.393921	
-0.393799	
-0.394775	
-0.393982	
-0.394409	
-0.39502	
-0.395264	
-0.395874	
-0.395569	
-0.393372	
-0.395142	
-0.39502	
-0.395325	
-0.396118	
-0.396179	
-0.395081	
-0.394958	
-0.394897	
-0.395874	
-0.394104	
-0.394287	
-0.393555	
-0.392883	
-0.392578	
-0.393555	
-0.392944	
-0.392273	
-0.392029	
-0.392578	
-0.391907	
-0.392151	
-0.392456	
-0.391663	
-0.391968	
-0.390381	
-0.390869	
-0.390503	
-0.389771	
-0.390259	
-0.389832	
-0.389404	
-0.390747	
-0.39093	
-0.391724	
-0.390564	
-0.391296	
-0.390442	
-0.390625	
-0.390137	
-0.390564	
-0.391174	
-0.391357	
-0.389893	
-0.391541	
-0.391846	
-0.392456	
-0.39209	
-0.393066	
-0.393188	
-0.390991	
-0.394531	
-0.394226	
-0.393372	
-0.395203	
-0.395874	
-0.395935	
-0.395813	
-0.396729	
-0.397522	
-0.396851	
-0.397949	
-0.397766	
-0.397705	
-0.397827	
-0.397217	
-0.397705	
-0.397766	
-0.396423	
-0.397705	
-0.397766	
-0.39801	
-0.396851	
-0.39679	
-0.396851	
-0.395203	
-0.396362	
-0.396973	
-0.395386	
-0.395569	
-0.395142	
-0.395081	
-0.394775	
-0.394287	
-0.394958	
-0.394104	
-0.394043	
-0.393311	
-0.392151	
-0.392761	
-0.389832	
-0.389587	
-0.389587	
-0.388672	
-0.389465	
-0.388733	
-0.388428	
-0.388184	
-0.388062	
-0.387634	
-0.38501	
-0.386536	
-0.385376	
-0.38446	
-0.384338	
-0.384338	
-0.384583	
-0.384644	
-0.384888	
-0.38678	
-0.385193	
-0.386108	
-0.386841	
-0.386108	
-0.387512	
-0.385742	
-0.386536	
-0.386536	
-0.387146	
-0.388245	
-0.388306	
-0.389221	
-0.388428	
-0.388977	
-0.390808	
-0.388611	
-0.39093	
-0.390076	
-0.390259	
-0.390686	
-0.390137	
-0.391724	
-0.391418	
-0.39209	
-0.393677	
-0.392761	
-0.3927	
-0.393127	
-0.393066	
-0.393799	
-0.393005	
-0.392944	
-0.393738	
-0.393738	
-0.393982	
-0.393738	
-0.395325	
-0.394531	
-0.394592	
-0.396362	
-0.394836	
-0.396423	
-0.395325	
-0.394775	
-0.394531	
-0.39386	
-0.394348	
-0.393982	
-0.39447	
-0.394653	
-0.393616	
-0.393799	
-0.39386	
-0.393127	
-0.39325	
-0.392151	
-0.391174	
-0.391296	
-0.391479	
-0.391602	
-0.391235	
-0.392151	
-0.390686	
-0.390747	
-0.390747	
-0.389282	
-0.391296	
-0.390015	
-0.387817	
-0.389648	
-0.389648	
-0.389648	
-0.389587	
-0.390015	
-0.390076	
-0.390137	
-0.388977	
-0.387939	
-0.388306	
-0.388855	
-0.389343	
-0.390259	
-0.390747	
-0.391724	
-0.391907	
-0.392517	
-0.393372	
-0.393127	
-0.393127	
-0.39386	
-0.393066	
-0.395081	
-0.394226	
-0.393921	
-0.394897	
-0.394409	
-0.395203	
-0.395508	
-0.396179	
-0.396362	
-0.395813	
-0.395996	
-0.396362	
-0.396118	
-0.395081	
-0.395264	
-0.394348	
-0.394775	
-0.39502	
-0.395142	
-0.395203	
-0.395264	
-0.394409	
-0.394104	
-0.394409	
-0.394287	
-0.394531	
-0.392883	
-0.392456	
-0.392883	
-0.391724	
-0.392578	
-0.392517	
-0.392639	
-0.392395	
-0.390747	
-0.389465	
-0.388428	
-0.387817	
-0.387573	
-0.387146	
-0.385681	
-0.386169	
-0.385986	
-0.385742	
-0.386414	
-0.385925	
-0.385071	
-0.384766	
-0.384094	
-0.384583	
-0.384216	
-0.383667	
-0.383179	
-0.38324	
-0.382874	
-0.383667	
-0.384399	
-0.385193	
-0.384644	
-0.384338	
-0.384827	
-0.385071	
-0.384949	
-0.385864	
-0.385498	
-0.385986	
-0.386292	
-0.387695	
-0.387024	
-0.387878	
-0.388184	
-0.388611	
-0.388489	
-0.389709	
-0.391113	
-0.391113	
-0.390625	
-0.39032	
-0.390625	
-0.391846	
-0.392273	
-0.392334	
-0.393494	
-0.393738	
-0.393616	
-0.394043	
-0.395386	
-0.39563	
-0.395691	
-0.395325	
-0.395203	
-0.395142	
-0.395752	
-0.395142	
-0.396912	
-0.397705	
-0.397766	
-0.396545	
-0.396606	
-0.397827	
-0.396912	
-0.395081	
-0.394897	
-0.394409	
-0.39447	
-0.394226	
-0.393982	
-0.393677	
-0.393188	
-0.392578	
-0.392212	
-0.391785	
-0.391602	
-0.391602	
-0.390747	
-0.389099	
-0.389893	
-0.389771	
-0.390259	
-0.389832	
-0.390442	
-0.390198	
-0.389648	
-0.388977	
-0.390381	
-0.38855	
-0.388367	
-0.387634	
-0.387512	
-0.388062	
-0.38855	
-0.387878	
-0.38916	
-0.387878	
-0.387573	
-0.386963	
-0.38678	
-0.387939	
-0.388184	
-0.388	
-0.38739	
-0.388733	
-0.389404	
-0.389404	
-0.39032	
-0.390564	
-0.390442	
-0.390564	
-0.390259	
-0.391785	
-0.391174	
-0.391052	
-0.390442	
-0.390137	
-0.390991	
-0.392212	
-0.391602	
-0.392761	
-0.392822	
-0.39325	
-0.392517	
-0.392456	
-0.392578	
-0.392639	
-0.392639	
-0.391174	
-0.392395	
-0.393433	
-0.392639	
-0.3927	
-0.393921	
-0.393188	
-0.392761	
-0.393005	
-0.39325	
-0.392639	
-0.391724	
-0.391724	
-0.390442	
-0.390808	
-0.390808	
-0.390808	
-0.390564	
-0.389771	
-0.389465	
-0.388916	
-0.388	
-0.38855	
-0.385559	
-0.386841	
-0.385986	
-0.386719	
-0.386414	
-0.386902	
-0.38678	
-0.386963	
-0.385681	
-0.386108	
-0.386047	
-0.386414	
-0.386108	
-0.385315	
-0.385315	
-0.384583	
-0.385193	
-0.385803	
-0.386353	
-0.386597	
-0.386902	
-0.386963	
-0.387085	
-0.387268	
-0.388794	
-0.387146	
-0.388733	
-0.387451	
-0.388672	
-0.388977	
-0.390137	
-0.390503	
-0.391479	
-0.391602	
-0.393066	
-0.392639	
-0.393799	
-0.394531	
-0.393982	
-0.393921	
-0.395325	
-0.395203	
-0.395569	
-0.395996	
-0.397156	
-0.397339	
-0.397217	
-0.397827	
-0.39917	
-0.400513	
-0.399536	
-0.398621	
-0.397461	
-0.396912	
-0.398682	
-0.397827	
-0.397949	
-0.39801	
-0.396851	
-0.396729	
-0.396851	
-0.395569	
-0.3974	
-0.394409	
-0.394775	
-0.393616	
-0.393433	
-0.394287	
-0.394287	
-0.393494	
-0.392944	
-0.392273	
-0.392883	
-0.392151	
-0.392639	
-0.391846	
-0.39093	
-0.389648	
-0.389709	
-0.39093	
-0.390381	
-0.390625	
-0.390503	
-0.389587	
-0.389404	
-0.388977	
-0.388855	
-0.390442	
-0.388611	
-0.389099	
-0.388672	
-0.388428	
-0.387756	
-0.387817	
-0.387451	
-0.388367	
-0.388123	
-0.389587	
-0.388672	
-0.389771	
-0.389465	
-0.388306	
-0.38855	
-0.388489	
-0.390015	
-0.389893	
-0.389282	
-0.390137	
-0.390381	
-0.391357	
-0.391357	
-0.391602	
-0.392639	
-0.391602	
-0.391541	
-0.391602	
-0.391418	
-0.392029	
-0.3927	
-0.392822	
-0.394043	
-0.393372	
-0.393616	
-0.393738	
-0.394287	
-0.394104	
-0.392639	
-0.393433	
-0.392212	
-0.393066	
-0.393616	
-0.393494	
-0.395081	
-0.395203	
-0.394958	
-0.394836	
-0.393982	
-0.393127	
-0.392029	
-0.39093	
-0.390015	
-0.389893	
-0.39032	
-0.389709	
-0.389648	
-0.389771	
-0.388916	
-0.388611	
-0.388428	
-0.388306	
-0.388916	
-0.387024	
-0.387085	
-0.386475	
-0.386414	
-0.386963	
-0.387573	
-0.387512	
-0.387329	
-0.387695	
-0.388245	
-0.387756	
-0.388855	
-0.387939	
-0.386963	
-0.387146	
-0.388123	
-0.388306	
-0.388367	
-0.389465	
-0.390442	
-0.389587	
-0.390076	
-0.390625	
-0.389832	
-0.390991	
-0.390442	
-0.390381	
-0.39093	
-0.391541	
-0.393311	
-0.394043	
-0.394165	
-0.395752	
-0.396179	
-0.397522	
-0.397339	
-0.397156	
-0.397766	
-0.397034	
-0.396729	
-0.398865	
-0.398926	
-0.399536	
-0.399902	
-0.399536	
-0.400146	
-0.40033	
-0.399902	
-0.400085	
-0.399963	
-0.399414	
-0.39856	
-0.398438	
-0.397522	
-0.39801	
-0.397217	
-0.397705	
-0.397888	
-0.397522	
-0.3974	
-0.396667	
-0.396362	
-0.396484	
-0.394104	
-0.393555	
-0.394104	
-0.39447	
-0.394226	
-0.393799	
-0.392944	
-0.392639	
-0.391907	
-0.393005	
-0.391113	
-0.390503	
-0.390747	
-0.390015	
-0.389404	
-0.389343	
-0.389282	
-0.388245	
-0.387939	
-0.38916	
-0.387939	
-0.387329	
-0.387268	
-0.388428	
-0.38739	
-0.384705	
-0.385376	
-0.385803	
-0.387085	
-0.386475	
-0.386841	
-0.387695	
-0.387512	
-0.388245	
-0.388794	
-0.38916	
-0.389282	
-0.388794	
-0.389526	
-0.388855	
-0.390442	
-0.390747	
-0.391296	
-0.391174	
-0.39209	
-0.391541	
-0.392578	
-0.392456	
-0.392639	
-0.39325	
-0.39209	
-0.3927	
-0.392639	
-0.392395	
-0.393738	
-0.393677	
-0.394775	
-0.394165	
-0.394958	
-0.395203	
-0.395691	
-0.39502	
-0.394714	
-0.394714	
-0.393066	
-0.394409	
-0.395691	
-0.396362	
-0.39624	
-0.395874	
-0.395203	
-0.395142	
-0.394226	
-0.394287	
-0.394165	
-0.393188	
-0.392822	
-0.391785	
-0.391785	
-0.393005	
-0.392639	
-0.392212	
-0.392517	
-0.392029	
-0.3927	
-0.392029	
-0.391785	
-0.390869	
-0.390747	
-0.39032	
-0.389526	
-0.390076	
-0.390198	
-0.390259	
-0.390503	
-0.390869	
-0.389954	
-0.390259	
-0.390625	
-0.39093	
-0.389038	
-0.390686	
-0.387939	
-0.389099	
-0.39032	
-0.390625	
-0.39093	
-0.391602	
-0.390747	
-0.391968	
-0.391479	
-0.393982	
-0.392273	
-0.392761	
-0.393066	
-0.393433	
-0.393677	
-0.394531	
-0.394653	
-0.396118	
-0.395752	
-0.395996	
-0.395935	
-0.396606	
-0.396729	
-0.396362	
-0.396484	
-0.395935	
-0.39624	
-0.397522	
-0.39679	
-0.397339	
-0.398132	
-0.396423	
	
