C:\DOCUMENTS AND SETTINGS\JASON\DESKTOP\UFRJ\UFRJ EPHYS\RSCI-BM 12 WK SERIES\070803-RSCI-BM-11\RSCI-BM-11-LEMG\070803-RSCI-BM-11-LEMG-0017.ACQ
0.025000 msec/sample
1 channel
Analog input
Volts
CH1	
2000	
-0.390259	
-0.390503	
-0.390137	
-0.390076	
-0.389221	
-0.390137	
-0.390625	
-0.389587	
-0.39032	
-0.389465	
-0.389282	
-0.389404	
-0.388977	
-0.389893	
-0.389343	
-0.389221	
-0.389343	
-0.389709	
-0.389709	
-0.389832	
-0.389709	
-0.389465	
-0.389099	
-0.389282	
-0.389038	
-0.389648	
-0.389221	
-0.389099	
-0.388245	
-0.390137	
-0.390564	
-0.391052	
-0.391418	
-0.391724	
-0.390869	
-0.391174	
-0.390808	
-0.391479	
-0.391296	
-0.391052	
-0.390259	
-0.392273	
-0.3927	
-0.393494	
-0.393311	
-0.393127	
-0.3927	
-0.392639	
-0.392639	
-0.393005	
-0.392395	
-0.39209	
-0.390381	
-0.391846	
-0.392334	
-0.392761	
-0.392395	
-0.391724	
-0.390747	
-0.391357	
-0.390869	
-0.391235	
-0.390564	
-0.389709	
-0.388489	
-0.39032	
-0.390381	
-0.390442	
-0.390015	
-0.389771	
-0.389465	
-0.389343	
-0.38916	
-0.388733	
-0.389221	
-0.388855	
-0.388367	
-0.389221	
-0.389099	
-0.388855	
-0.388794	
-0.388306	
-0.388367	
-0.388	
-0.387939	
-0.387939	
-0.388367	
-0.387756	
-0.387634	
-0.387695	
-0.387695	
-0.388367	
-0.388245	
-0.388123	
-0.386963	
-0.386902	
-0.387268	
-0.388245	
-0.388489	
-0.387756	
-0.387695	
-0.388062	
-0.388672	
-0.388794	
-0.38916	
-0.388794	
-0.387939	
-0.389038	
-0.388672	
-0.389404	
-0.388855	
-0.388306	
-0.388	
-0.388916	
-0.389221	
-0.389771	
-0.389771	
-0.388916	
-0.389099	
-0.388977	
-0.389343	
-0.388489	
-0.388367	
-0.388489	
-0.388489	
-0.388611	
-0.388916	
-0.390076	
-0.389954	
-0.389099	
-0.389099	
-0.388794	
-0.390076	
-0.389282	
-0.389099	
-0.388794	
-0.388916	
-0.389343	
-0.389526	
-0.390686	
-0.390259	
-0.390015	
-0.38916	
-0.389709	
-0.390869	
-0.389465	
-0.389954	
-0.389099	
-0.389587	
-0.389282	
-0.389954	
-0.389771	
-0.39032	
-0.389771	
-0.388611	
-0.390076	
-0.390747	
-0.388794	
-0.389404	
-0.389099	
-0.389526	
-0.388916	
-0.389526	
-0.39032	
-0.390076	
-0.389709	
-0.389526	
-0.389038	
-0.391113	
-0.389648	
-0.389526	
-0.389465	
-0.390076	
-0.389893	
-0.390198	
-0.390869	
-0.391724	
-0.390869	
-0.390442	
-0.390686	
-0.392456	
-0.39093	
-0.391479	
-0.391296	
-0.391113	
-0.391724	
-0.391663	
-0.39209	
-0.392761	
-0.391907	
-0.391174	
-0.390869	
-0.392456	
-0.391113	
-0.391174	
-0.390259	
-0.390625	
-0.364868	
-0.360962	
-0.365662	
-0.367493	
-0.367737	
-0.36676	
-0.399353	
-0.397217	
-0.393188	
-0.391968	
-0.391174	
-0.388794	
-0.390747	
-0.391235	
-0.390747	
-0.391602	
-0.391724	
-0.389648	
-0.390503	
-0.390625	
-0.390564	
-0.390076	
-0.390442	
-0.389038	
-0.389954	
-0.390625	
-0.390808	
-0.391663	
-0.391479	
-0.389832	
-0.390747	
-0.390564	
-0.391418	
-0.390564	
-0.391113	
-0.389465	
-0.391479	
-0.391602	
-0.391357	
-0.391785	
-0.392517	
-0.390442	
-0.391113	
-0.391113	
-0.390625	
-0.389648	
-0.389221	
-0.388123	
-0.389526	
-0.390137	
-0.390991	
-0.391907	
-0.393921	
-0.393738	
-0.396973	
-0.399231	
-0.401489	
-0.404114	
-0.406677	
-0.408203	
-0.413208	
-0.416931	
-0.421448	
-0.424438	
-0.428284	
-0.433105	
-0.439453	
-0.446228	
-0.451782	
-0.456665	
-0.461243	
-0.467346	
-0.472229	
-0.478333	
-0.483643	
-0.487549	
-0.490295	
-0.492432	
-0.4953	
-0.497375	
-0.500183	
-0.502075	
-0.502319	
-0.505371	
-0.507385	
-0.508179	
-0.510315	
-0.51239	
-0.511963	
-0.513123	
-0.514587	
-0.515625	
-0.517761	
-0.519592	
-0.519958	
-0.522583	
-0.524963	
-0.525635	
-0.526184	
-0.527771	
-0.527405	
-0.52655	
-0.528137	
-0.527222	
-0.526428	
-0.525879	
-0.524902	
-0.525146	
-0.525513	
-0.524597	
-0.523438	
-0.522644	
-0.5224	
-0.522461	
-0.522339	
-0.52179	
-0.521362	
-0.520813	
-0.520569	
-0.519897	
-0.518494	
-0.517395	
-0.515686	
-0.513916	
-0.512207	
-0.509338	
-0.507324	
-0.504272	
-0.500061	
-0.496582	
-0.494568	
-0.491028	
-0.487305	
-0.483826	
-0.479553	
-0.476013	
-0.471741	
-0.468384	
-0.46405	
-0.459717	
-0.454834	
-0.449646	
-0.444946	
-0.439453	
-0.434509	
-0.428467	
-0.420959	
-0.413574	
-0.405823	
-0.398071	
-0.390381	
-0.38147	
-0.372009	
-0.362549	
-0.353882	
-0.344421	
-0.335632	
-0.327332	
-0.317566	
-0.309265	
-0.302917	
-0.296509	
-0.292114	
-0.285645	
-0.281494	
-0.277344	
-0.27417	
-0.271851	
-0.268738	
-0.267517	
-0.265625	
-0.263672	
-0.263367	
-0.264221	
-0.264038	
-0.264343	
-0.266296	
-0.2677	
-0.272339	
-0.276306	
-0.279968	
-0.283813	
-0.288025	
-0.291992	
-0.297363	
-0.302307	
-0.306091	
-0.310486	
-0.314636	
-0.319641	
-0.324097	
-0.328796	
-0.332642	
-0.337158	
-0.340149	
-0.344604	
-0.348938	
-0.351624	
-0.354858	
-0.357483	
-0.360413	
-0.364014	
-0.366211	
-0.368713	
-0.37207	
-0.37262	
-0.374512	
-0.377502	
-0.379089	
-0.380432	
-0.381531	
-0.382568	
-0.384277	
-0.386169	
-0.38678	
-0.386597	
-0.387024	
-0.387573	
-0.38855	
-0.388245	
-0.387939	
-0.388184	
-0.388733	
-0.389832	
-0.389771	
-0.389526	
-0.390259	
-0.390991	
-0.389771	
-0.389526	
-0.390564	
-0.388977	
-0.390015	
-0.390381	
-0.390076	
-0.390503	
-0.391968	
-0.391052	
-0.390869	
-0.390076	
-0.389648	
-0.390076	
-0.389771	
-0.389099	
-0.388245	
-0.387329	
-0.387451	
-0.386536	
-0.386414	
-0.385071	
-0.384399	
-0.382568	
-0.381409	
-0.380981	
-0.379578	
-0.37854	
-0.377625	
-0.375061	
-0.375	
-0.373657	
-0.372864	
-0.371582	
-0.369995	
-0.367676	
-0.366211	
-0.366089	
-0.364075	
-0.362	
-0.360413	
-0.359009	
-0.358154	
-0.357178	
-0.357117	
-0.355713	
-0.353821	
-0.352539	
-0.353088	
-0.352722	
-0.353027	
-0.352722	
-0.34436	
-0.324097	
-0.328857	
-0.331421	
-0.332825	
-0.333618	
-0.357056	
-0.362915	
-0.362366	
-0.360229	
-0.361084	
-0.361206	
-0.361328	
-0.362305	
-0.363525	
-0.364929	
-0.365479	
-0.366394	
-0.365112	
-0.36554	
-0.367981	
-0.367065	
-0.367615	
-0.368164	
-0.368896	
-0.369812	
-0.370239	
-0.371826	
-0.370544	
-0.371277	
-0.370911	
-0.372375	
-0.371887	
-0.372864	
-0.372803	
-0.372437	
-0.373901	
-0.374512	
-0.37439	
-0.375916	
-0.375122	
-0.375183	
-0.374329	
-0.376343	
-0.373962	
-0.374695	
-0.373901	
-0.375061	
-0.375	
-0.37616	
-0.378418	
-0.3797	
-0.381775	
-0.383606	
-0.385071	
-0.388672	
-0.391296	
-0.395264	
-0.396851	
-0.40271	
-0.40564	
-0.409241	
-0.414307	
-0.417175	
-0.420349	
-0.42395	
-0.430542	
-0.433472	
-0.438477	
-0.443237	
-0.448853	
-0.45459	
-0.459656	
-0.465942	
-0.468811	
-0.473083	
-0.475891	
-0.478516	
-0.479736	
-0.481384	
-0.48407	
-0.484375	
-0.488342	
-0.490051	
-0.492676	
-0.495911	
-0.496887	
-0.497314	
-0.497925	
-0.502075	
-0.501953	
-0.504211	
-0.505371	
-0.507202	
-0.508728	
-0.509644	
-0.511108	
-0.510803	
-0.510315	
-0.50885	
-0.507629	
-0.509338	
-0.506287	
-0.506653	
-0.506226	
-0.507568	
-0.507446	
-0.507141	
-0.509766	
-0.50946	
-0.510803	
-0.51062	
-0.511292	
-0.511536	
-0.511658	
-0.511353	
-0.509583	
-0.509155	
-0.507874	
-0.506714	
-0.506042	
-0.50238	
-0.500549	
-0.495911	
-0.493103	
-0.489441	
-0.485779	
-0.4823	
-0.476501	
-0.474487	
-0.471375	
-0.467163	
-0.461792	
-0.455078	
-0.450195	
-0.443726	
-0.439209	
-0.431763	
-0.425476	
-0.418396	
-0.408264	
-0.401367	
-0.392761	
-0.382629	
-0.372742	
-0.361328	
-0.350647	
-0.338379	
-0.328491	
-0.316772	
-0.307007	
-0.297913	
-0.289673	
-0.282837	
-0.276672	
-0.270569	
-0.266479	
-0.260803	
-0.258667	
-0.253479	
-0.252258	
-0.24939	
-0.247803	
-0.245667	
-0.243774	
-0.244507	
-0.244507	
-0.245911	
-0.246643	
-0.249695	
-0.252563	
-0.255005	
-0.260559	
-0.263977	
-0.269531	
-0.27417	
-0.280334	
-0.285706	
-0.291138	
-0.296021	
-0.301392	
-0.307068	
-0.310181	
-0.315918	
-0.319336	
-0.324402	
-0.328247	
-0.332092	
-0.336365	
-0.340271	
-0.34314	
-0.345459	
-0.348938	
-0.350525	
-0.353271	
-0.354553	
-0.356445	
-0.357605	
-0.358398	
-0.361023	
-0.362854	
-0.364685	
-0.365051	
-0.366455	
-0.36615	
-0.368958	
-0.369324	
-0.368713	
-0.369873	
-0.3703	
-0.3703	
-0.371643	
-0.372559	
-0.371948	
-0.372314	
-0.372681	
-0.372192	
-0.373657	
-0.373718	
-0.374451	
-0.374634	
-0.374634	
-0.375732	
-0.377014	
-0.377991	
-0.377747	
-0.377747	
-0.377502	
-0.379272	
-0.379456	
-0.378723	
-0.379883	
-0.380188	
-0.380493	
-0.381226	
-0.381653	
-0.381226	
-0.381287	
-0.381592	
-0.380554	
-0.381226	
-0.381165	
-0.380676	
-0.380005	
-0.379639	
-0.380676	
-0.380615	
-0.380859	
-0.379761	
-0.379333	
-0.377686	
-0.379517	
-0.378723	
-0.37616	
-0.376038	
-0.376099	
-0.374817	
-0.375122	
-0.374451	
-0.374451	
-0.37262	
-0.372253	
-0.371338	
-0.371216	
-0.371277	
-0.368591	
-0.368591	
-0.368164	
-0.367676	
-0.367554	
-0.367432	
-0.366455	
-0.365356	
-0.365356	
-0.364624	
-0.364319	
-0.363892	
-0.363281	
-0.362976	
-0.362915	
-0.362793	
-0.363037	
-0.363892	
-0.362793	
-0.362976	
-0.362854	
-0.364441	
-0.364197	
-0.364502	
-0.364014	
-0.364685	
-0.366638	
-0.367004	
-0.367188	
-0.367371	
-0.368042	
-0.368164	
-0.36908	
-0.369141	
-0.369263	
-0.369446	
-0.369629	
-0.370483	
-0.371216	
-0.371155	
-0.371521	
-0.37207	
-0.371399	
-0.372559	
-0.373352	
-0.371948	
-0.372559	
-0.373718	
-0.373596	
-0.37439	
-0.375122	
-0.37561	
-0.374512	
-0.375183	
-0.37561	
-0.376404	
-0.375732	
-0.375732	
-0.375854	
-0.376587	
-0.376282	
-0.377319	
-0.377686	
-0.377808	
-0.378113	
-0.377502	
-0.378357	
-0.377625	
-0.378418	
-0.378174	
-0.377563	
-0.379028	
-0.378845	
-0.379883	
-0.379333	
-0.379456	
-0.379211	
-0.379944	
-0.379944	
-0.379395	
-0.380005	
-0.378906	
-0.380371	
-0.379883	
-0.379944	
-0.380737	
-0.381226	
-0.380798	
-0.380615	
-0.380798	
-0.380493	
-0.379822	
-0.380737	
-0.380066	
-0.381165	
-0.38147	
-0.381836	
-0.382568	
-0.382813	
-0.382935	
-0.382141	
-0.382385	
-0.38269	
-0.38269	
-0.38324	
-0.382263	
-0.383972	
-0.384155	
-0.384827	
-0.384216	
-0.385315	
-0.385193	
-0.383545	
-0.384094	
-0.384094	
-0.384399	
-0.384033	
-0.382507	
-0.384033	
-0.38446	
-0.38562	
-0.384399	
-0.385193	
-0.384583	
-0.384338	
-0.385376	
-0.383972	
-0.385132	
-0.384094	
-0.384644	
-0.384888	
-0.38446	
-0.385132	
-0.385376	
-0.385254	
-0.384338	
-0.385193	
-0.384399	
-0.384277	
-0.384827	
-0.384094	
-0.385254	
-0.384949	
-0.385925	
-0.385437	
-0.385498	
-0.385376	
-0.385864	
-0.385254	
-0.383545	
-0.385254	
-0.384705	
-0.38562	
-0.385254	
-0.38562	
-0.385681	
-0.386719	
-0.386536	
-0.385986	
-0.38623	
-0.385498	
-0.385742	
-0.38562	
-0.385315	
-0.386047	
-0.385864	
-0.386597	
-0.387268	
-0.386902	
-0.385986	
-0.387512	
-0.386292	
-0.38623	
-0.387207	
-0.386169	
-0.386841	
-0.387146	
-0.387512	
-0.387146	
-0.387207	
-0.386719	
-0.387207	
-0.386963	
-0.387024	
-0.386597	
-0.384827	
-0.384888	
-0.386658	
-0.387573	
-0.387756	
-0.388611	
-0.388245	
-0.387268	
-0.388855	
-0.387451	
-0.388062	
-0.388123	
-0.388245	
-0.387939	
-0.388428	
-0.38916	
-0.389343	
-0.39093	
-0.39093	
-0.390259	
-0.39032	
-0.389648	
-0.389465	
-0.389343	
-0.389099	
-0.389038	
-0.389526	
-0.390381	
-0.389221	
-0.389221	
-0.389038	
-0.389587	
-0.388672	
-0.388184	
-0.389526	
-0.387695	
-0.388611	
-0.389038	
-0.38916	
-0.388977	
-0.38916	
-0.389709	
-0.388062	
-0.389771	
-0.388123	
-0.387695	
-0.388977	
-0.388428	
-0.387817	
-0.389343	
-0.389893	
-0.388489	
-0.389038	
-0.389648	
-0.388977	
-0.388977	
-0.388672	
-0.389221	
-0.388306	
-0.388245	
-0.388245	
-0.388733	
-0.389526	
-0.388428	
-0.390381	
-0.389771	
-0.389648	
-0.389587	
-0.390198	
-0.389465	
-0.388733	
-0.389893	
-0.389771	
-0.390686	
-0.390503	
-0.390442	
-0.390625	
-0.390076	
-0.390747	
-0.389893	
-0.391174	
-0.390381	
-0.390686	
-0.390747	
-0.390808	
-0.391724	
-0.390503	
-0.391663	
-0.391174	
-0.390747	
-0.391541	
-0.391235	
-0.389893	
-0.390564	
-0.391174	
-0.39032	
-0.391541	
-0.392761	
-0.391541	
-0.392212	
-0.392212	
-0.392334	
-0.390198	
-0.391541	
-0.390381	
-0.389771	
-0.389893	
-0.389709	
-0.389587	
-0.389404	
-0.389893	
-0.389038	
-0.38855	
-0.389221	
-0.388245	
-0.388916	
-0.387695	
-0.387939	
-0.387207	
-0.387573	
-0.387939	
-0.387207	
-0.388184	
-0.387512	
-0.387573	
-0.388306	
-0.387878	
-0.388123	
-0.38739	
-0.388428	
-0.388184	
-0.389832	
-0.38916	
-0.389709	
-0.389954	
-0.389587	
-0.390259	
-0.389343	
-0.390503	
-0.389221	
-0.39032	
-0.390991	
-0.390259	
-0.391479	
-0.391541	
-0.392761	
-0.391907	
-0.391907	
-0.392395	
-0.392822	
-0.393188	
-0.392456	
-0.392212	
-0.393005	
-0.392578	
-0.394165	
-0.394165	
-0.394165	
-0.393311	
-0.393616	
-0.393738	
-0.39386	
-0.394592	
-0.39386	
-0.39325	
-0.394104	
-0.393616	
-0.392639	
-0.392334	
-0.394409	
-0.394653	
-0.394531	
-0.393738	
-0.393127	
-0.393738	
-0.392639	
-0.392517	
-0.392517	
-0.392639	
-0.39325	
-0.39209	
-0.392456	
-0.391907	
-0.392334	
-0.392151	
-0.39209	
-0.392151	
-0.391052	
-0.392212	
-0.391541	
-0.39209	
-0.392517	
-0.392578	
-0.391663	
-0.391907	
-0.392578	
-0.392761	
-0.391968	
-0.390991	
-0.391296	
-0.391968	
-0.390991	
-0.392334	
-0.392029	
-0.392395	
-0.391235	
-0.392029	
-0.391724	
-0.392578	
-0.391968	
-0.391663	
-0.391235	
-0.391235	
-0.39032	
-0.391785	
-0.391357	
-0.391663	
-0.391174	
-0.391602	
-0.390381	
-0.391663	
-0.391724	
-0.391174	
-0.391052	
-0.391418	
-0.390991	
-0.391907	
-0.39209	
-0.391479	
-0.391785	
-0.391663	
-0.390442	
-0.391785	
-0.392029	
-0.391541	
-0.390381	
-0.391235	
-0.391235	
-0.3927	
-0.391785	
-0.391541	
-0.391724	
-0.391052	
-0.391907	
-0.391663	
-0.390991	
-0.390564	
-0.390137	
-0.390076	
-0.390381	
-0.391052	
-0.390259	
-0.389771	
-0.389709	
-0.389038	
-0.390076	
-0.389099	
-0.388306	
-0.389221	
-0.388977	
-0.388855	
-0.389893	
-0.390198	
-0.389771	
-0.389893	
-0.389954	
-0.389893	
-0.390686	
-0.389832	
-0.389099	
-0.389832	
-0.390137	
-0.389221	
-0.390442	
-0.390686	
-0.390076	
-0.389771	
-0.389954	
-0.388611	
-0.390442	
-0.389893	
-0.389465	
-0.389404	
-0.390198	
-0.388611	
-0.390076	
-0.390564	
-0.389954	
-0.390015	
-0.390015	
-0.389465	
-0.390747	
-0.391357	
-0.390137	
-0.389648	
-0.390137	
-0.389893	
-0.390564	
-0.391052	
-0.390503	
-0.389648	
-0.389771	
-0.390381	
-0.390503	
-0.390808	
-0.390137	
-0.38916	
-0.389771	
-0.39032	
-0.390991	
-0.390869	
-0.390137	
-0.389893	
-0.391052	
-0.391418	
-0.390625	
-0.391235	
-0.390625	
-0.388977	
-0.390442	
-0.39032	
-0.391785	
-0.390991	
-0.389771	
-0.389832	
-0.390076	
-0.390991	
-0.390381	
-0.390442	
-0.389648	
-0.389832	
-0.389771	
-0.389954	
-0.390747	
-0.389038	
-0.389221	
-0.38916	
-0.390137	
-0.390625	
-0.389648	
-0.388733	
-0.388794	
-0.389221	
-0.387573	
-0.389526	
-0.389587	
-0.388733	
-0.388489	
-0.386719	
-0.388855	
-0.387695	
-0.387207	
-0.387207	
-0.387512	
-0.387268	
-0.387695	
-0.389038	
-0.388733	
-0.387695	
-0.387756	
-0.387817	
-0.388977	
-0.388672	
-0.388916	
-0.387939	
-0.38739	
-0.388245	
-0.388306	
-0.389343	
-0.388367	
-0.389099	
-0.388062	
-0.388184	
-0.388794	
-0.389099	
-0.389038	
-0.387573	
-0.387756	
-0.388428	
-0.38916	
-0.390259	
-0.388977	
-0.389221	
-0.389038	
-0.388184	
-0.389282	
-0.389282	
-0.388916	
-0.388245	
-0.388062	
-0.388123	
-0.389282	
-0.390503	
-0.388733	
-0.38916	
-0.389099	
-0.389587	
-0.389404	
-0.389709	
-0.38855	
-0.38739	
-0.387817	
-0.387512	
-0.388306	
-0.388977	
-0.387939	
-0.388	
-0.386414	
-0.388794	
-0.389038	
-0.388794	
-0.387817	
-0.387146	
-0.387268	
-0.387756	
-0.387451	
-0.387756	
-0.387451	
-0.387207	
-0.386169	
-0.388489	
-0.388245	
-0.388184	
-0.387573	
-0.386475	
-0.387268	
-0.386963	
-0.388428	
-0.387756	
-0.38678	
-0.386719	
-0.387512	
-0.388184	
-0.387512	
-0.387573	
-0.387146	
-0.387573	
-0.387634	
-0.38855	
-0.389526	
-0.388611	
-0.388733	
-0.388916	
-0.389282	
-0.389648	
-0.390259	
-0.390015	
-0.389709	
-0.389832	
-0.390137	
-0.390747	
-0.391663	
-0.39093	
-0.391479	
-0.39032	
-0.390137	
-0.390747	
-0.391052	
-0.390259	
-0.389771	
-0.389221	
-0.388855	
-0.389648	
-0.389587	
-0.389038	
-0.389465	
-0.388672	
-0.387756	
-0.388855	
-0.388916	
-0.388489	
-0.387878	
-0.386658	
-0.386475	
-0.387817	
-0.388306	
-0.387207	
-0.387085	
-0.385864	
-0.386414	
-0.387939	
-0.387451	
-0.386719	
-0.385986	
-0.386658	
-0.386292	
-0.386963	
-0.387268	
-0.386108	
-0.385681	
-0.385498	
-0.386475	
-0.38678	
-0.386353	
-0.385315	
-0.38385	
-0.385559	
-0.385681	
-0.386292	
-0.386414	
-0.384521	
-0.384277	
-0.384827	
-0.385986	
-0.385986	
-0.38678	
-0.385864	
-0.384705	
-0.385925	
-0.386169	
-0.387024	
-0.386597	
-0.386597	
-0.386108	
-0.386414	
-0.387512	
-0.386536	
-0.387268	
-0.387268	
-0.386108	
-0.386414	
-0.387207	
-0.387085	
-0.387268	
-0.386597	
-0.386414	
-0.386658	
-0.387634	
-0.386963	
-0.386475	
-0.386414	
-0.385742	
-0.386475	
-0.387207	
-0.387207	
-0.387207	
-0.386902	
-0.385559	
-0.386475	
-0.388	
-0.38739	
-0.386719	
-0.38678	
-0.385803	
-0.386841	
-0.387573	
-0.387756	
-0.387329	
-0.38739	
-0.387085	
-0.386658	
-0.389221	
-0.388184	
-0.387634	
-0.387146	
-0.386658	
-0.387146	
-0.38855	
-0.388367	
-0.386841	
-0.387756	
-0.386902	
-0.38623	
-0.389771	
-0.388611	
-0.387268	
-0.387634	
-0.387146	
-0.387756	
-0.38855	
-0.388	
-0.387329	
-0.387024	
-0.387146	
-0.386841	
-0.38855	
-0.388611	
-0.387878	
-0.38739	
-0.388367	
-0.388611	
-0.38916	
-0.389099	
-0.388916	
-0.389221	
-0.389221	
-0.388977	
-0.390503	
-0.390076	
-0.389709	
-0.38855	
-0.389587	
-0.390015	
-0.390076	
-0.389587	
-0.389221	
-0.388855	
-0.389282	
-0.389038	
-0.389832	
-0.389465	
-0.388794	
-0.387817	
-0.388489	
-0.389343	
-0.388794	
-0.389404	
-0.388184	
-0.387451	
-0.388733	
-0.389404	
-0.389404	
-0.388428	
-0.388428	
-0.388367	
-0.388489	
-0.388977	
-0.389221	
-0.390015	
-0.38855	
-0.386963	
-0.388428	
-0.389771	
-0.388916	
-0.388733	
-0.388489	
-0.387573	
-0.38855	
-0.389282	
-0.389648	
-0.389954	
-0.388977	
-0.388	
-0.388672	
-0.390076	
-0.389832	
-0.389282	
-0.388428	
-0.387573	
-0.388428	
-0.389771	
-0.389465	
-0.389648	
-0.388977	
-0.388611	
-0.389221	
-0.390137	
-0.389954	
-0.389526	
-0.388916	
-0.388855	
-0.388611	
-0.390747	
-0.389648	
-0.389832	
-0.389404	
-0.389343	
-0.389771	
-0.390381	
-0.389893	
-0.389038	
-0.388123	
-0.389526	
-0.388794	
-0.390625	
-0.38916	
-0.388916	
-0.387512	
-0.388	
-0.388672	
-0.391052	
-0.390747	
-0.389832	
-0.388428	
-0.389771	
-0.390564	
-0.391113	
-0.390503	
-0.39032	
-0.390198	
-0.390503	
-0.389954	
-0.391663	
-0.392151	
-0.392029	
-0.391724	
-0.39209	
-0.391785	
-0.391785	
-0.392029	
-0.391846	
-0.390503	
-0.391296	
-0.391479	
-0.391846	
-0.391968	
-0.391418	
-0.390564	
-0.390808	
-0.391174	
-0.390991	
-0.392212	
-0.390442	
-0.389954	
-0.390564	
-0.391541	
-0.390564	
-0.391479	
-0.390625	
-0.389587	
-0.390259	
-0.390503	
-0.390625	
-0.391296	
-0.390198	
-0.389893	
-0.390564	
-0.390259	
-0.390625	
-0.391113	
-0.389343	
-0.389526	
-0.390625	
-0.391052	
-0.389771	
-0.391663	
-0.390442	
-0.389465	
-0.39093	
-0.391052	
-0.391418	
-0.391418	
-0.390137	
-0.390259	
-0.390747	
-0.392273	
-0.391479	
-0.39209	
-0.391113	
-0.391479	
-0.391663	
-0.391968	
-0.391724	
-0.392151	
-0.390625	
-0.390869	
-0.391846	
-0.393127	
-0.392822	
-0.39325	
-0.391907	
-0.392822	
-0.392883	
-0.393738	
-0.393311	
-0.393799	
-0.392578	
-0.3927	
-0.393188	
-0.393738	
-0.393311	
-0.393188	
-0.393372	
-0.393066	
-0.393433	
-0.394287	
-0.393494	
-0.393005	
-0.393127	
-0.393066	
-0.391663	
-0.392944	
-0.391785	
-0.391357	
-0.390503	
-0.390198	
-0.390442	
-0.391174	
-0.389893	
-0.389465	
-0.38916	
-0.389099	
-0.388184	
-0.389648	
-0.38855	
-0.388855	
-0.388428	
-0.388916	
-0.388245	
-0.389343	
-0.389343	
-0.389099	
-0.388977	
-0.388672	
-0.38855	
-0.390259	
-0.39032	
-0.390259	
-0.388916	
-0.390503	
-0.390442	
-0.392151	
-0.391663	
-0.39093	
-0.391296	
-0.39209	
-0.391846	
-0.392029	
-0.392395	
-0.392151	
-0.392456	
-0.392944	
-0.393127	
-0.394531	
-0.394348	
-0.393066	
-0.393494	
-0.394165	
-0.395081	
-0.394897	
-0.394836	
-0.39386	
-0.394409	
-0.394714	
-0.394958	
-0.395996	
-0.396057	
-0.394653	
-0.394287	
-0.394714	
-0.395386	
-0.396118	
-0.395874	
-0.394531	
-0.393677	
-0.394348	
-0.395386	
-0.39624	
-0.39563	
-0.394226	
-0.394287	
-0.394409	
-0.394897	
-0.394104	
-0.394653	
-0.393921	
-0.393555	
-0.39325	
-0.393188	
-0.393921	
-0.393494	
-0.392517	
-0.392944	
-0.392578	
-0.393799	
-0.393494	
-0.393005	
-0.392883	
-0.392761	
-0.392334	
-0.392883	
-0.39386	
-0.393188	
-0.392273	
-0.393005	
-0.393066	
-0.393555	
-0.393616	
-0.392944	
-0.392334	
-0.392822	
-0.392029	
-0.393188	
-0.393738	
-0.393127	
-0.391968	
-0.39209	
-0.392456	
-0.392456	
-0.393127	
-0.393005	
-0.391113	
-0.3927	
-0.392273	
-0.392517	
-0.39209	
-0.392517	
-0.391479	
-0.391785	
-0.392639	
-0.392578	
-0.393311	
-0.393066	
-0.391663	
-0.392517	
-0.393066	
-0.393066	
-0.393005	
-0.392456	
-0.391296	
-0.392456	
-0.392456	
-0.393066	
-0.393433	
-0.3927	
-0.392151	
-0.392456	
-0.393372	
-0.392639	
-0.392578	
-0.392151	
-0.391541	
-0.391479	
-0.391296	
-0.392029	
-0.392456	
-0.391541	
-0.390198	
-0.391602	
-0.392273	
-0.391541	
-0.391602	
-0.391479	
-0.390564	
-0.390015	
-0.390625	
-0.391235	
-0.391968	
-0.391418	
-0.390259	
-0.390991	
-0.392273	
-0.391907	
-0.391357	
-0.391052	
-0.391418	
-0.390503	
-0.390869	
-0.391174	
-0.391602	
-0.391235	
-0.390991	
-0.390503	
-0.391602	
-0.391235	
-0.39093	
-0.390015	
-0.391174	
-0.389954	
-0.391174	
-0.391113	
-0.391907	
-0.390686	
-0.391724	
-0.391052	
-0.391724	
-0.391602	
-0.391846	
-0.390137	
-0.390564	
-0.389709	
-0.392273	
-0.391541	
-0.391357	
-0.391357	
-0.391602	
-0.390808	
-0.391602	
-0.391418	
-0.391907	
-0.390137	
-0.391174	
-0.390137	
-0.392456	
-0.391663	
-0.391418	
-0.391296	
-0.391418	
-0.39093	
-0.391357	
-0.391724	
-0.392334	
-0.390442	
-0.39209	
-0.390808	
-0.392578	
-0.392334	
-0.391724	
-0.391479	
-0.391663	
-0.391541	
-0.391846	
-0.392395	
-0.391663	
-0.390381	
-0.391174	
-0.389954	
-0.392456	
-0.392334	
-0.391663	
-0.390747	
-0.390137	
-0.390869	
-0.390991	
-0.392029	
-0.391296	
-0.389465	
-0.39032	
-0.388977	
-0.391235	
-0.391418	
-0.390442	
-0.389587	
-0.389954	
-0.390564	
-0.388977	
-0.388855	
-0.388245	
-0.388062	
-0.388306	
-0.387756	
-0.389221	
-0.390747	
-0.389099	
-0.387634	
-0.389404	
-0.390503	
-0.389893	
-0.390259	
-0.389709	
-0.389099	
-0.389709	
-0.388672	
-0.390076	
-0.391479	
-0.389832	
-0.389771	
-0.389954	
-0.391357	
-0.390198	
-0.391174	
-0.390137	
-0.389771	
-0.390259	
-0.390442	
-0.390747	
-0.390686	
-0.390686	
-0.39032	
-0.390442	
-0.391663	
-0.390747	
-0.391541	
-0.390381	
-0.389893	
-0.390259	
-0.39093	
-0.390442	
-0.390442	
-0.390625	
-0.390442	
-0.389709	
-0.391296	
-0.390991	
-0.39093	
-0.390015	
-0.390625	
-0.389526	
-0.389465	
-0.39032	
-0.389832	
-0.38916	
-0.389343	
	
