C:\DOCUMENTS AND SETTINGS\JASON\DESKTOP\UFRJ\UFRJ EPHYS\RSCI-BM 12 WK SERIES\070803-RSCI-BM-11\RSCI-BM-11-LEMG\070803-RSCI-BM-11-LEMG-0013.ACQ
0.025000 msec/sample
1 channel
Analog input
Volts
CH1	
2000	
-0.395813	
-0.395813	
-0.394836	
-0.394165	
-0.394531	
-0.394958	
-0.394714	
-0.394531	
-0.394836	
-0.396118	
-0.395325	
-0.395874	
-0.394775	
-0.395386	
-0.394592	
-0.393921	
-0.395325	
-0.39563	
-0.395935	
-0.396179	
-0.396362	
-0.397339	
-0.398254	
-0.398315	
-0.397461	
-0.397888	
-0.397522	
-0.397522	
-0.398682	
-0.39856	
-0.398987	
-0.399353	
-0.399353	
-0.399841	
-0.40033	
-0.399841	
-0.398865	
-0.397705	
-0.398621	
-0.398376	
-0.398376	
-0.397949	
-0.397583	
-0.397583	
-0.397339	
-0.3974	
-0.397461	
-0.397705	
-0.397095	
-0.395264	
-0.394531	
-0.39502	
-0.394104	
-0.392639	
-0.39325	
-0.393799	
-0.394165	
-0.394104	
-0.39447	
-0.394165	
-0.394775	
-0.393066	
-0.392334	
-0.391541	
-0.392517	
-0.39093	
-0.391785	
-0.391052	
-0.390625	
-0.390686	
-0.391113	
-0.39093	
-0.39032	
-0.389099	
-0.388611	
-0.387695	
-0.387939	
-0.387268	
-0.388489	
-0.388367	
-0.388184	
-0.388245	
-0.389282	
-0.389771	
-0.388794	
-0.388245	
-0.388245	
-0.388245	
-0.389587	
-0.389526	
-0.390137	
-0.390991	
-0.391541	
-0.391418	
-0.392822	
-0.392761	
-0.392761	
-0.392517	
-0.392761	
-0.391907	
-0.392029	
-0.392883	
-0.393372	
-0.393066	
-0.393127	
-0.393982	
-0.394653	
-0.395325	
-0.395447	
-0.395142	
-0.396301	
-0.394287	
-0.39386	
-0.395142	
-0.395081	
-0.394836	
-0.394287	
-0.394836	
-0.395325	
-0.395874	
-0.394043	
-0.39447	
-0.395264	
-0.394226	
-0.393311	
-0.394226	
-0.394714	
-0.394714	
-0.394165	
-0.394165	
-0.394531	
-0.394958	
-0.394348	
-0.392944	
-0.393311	
-0.392944	
-0.392151	
-0.392395	
-0.392761	
-0.392822	
-0.393066	
-0.393372	
-0.394409	
-0.394165	
-0.39502	
-0.393555	
-0.394409	
-0.393372	
-0.393127	
-0.394226	
-0.393921	
-0.394714	
-0.395386	
-0.395569	
-0.396667	
-0.396851	
-0.397461	
-0.396301	
-0.396973	
-0.395569	
-0.396118	
-0.396545	
-0.395142	
-0.396057	
-0.396423	
-0.396851	
-0.397278	
-0.396301	
-0.397644	
-0.396057	
-0.395386	
-0.393982	
-0.394165	
-0.395081	
-0.394104	
-0.394287	
-0.393555	
-0.393555	
-0.394348	
-0.39209	
-0.392822	
-0.391724	
-0.391052	
-0.391174	
-0.391479	
-0.392029	
-0.391541	
-0.391663	
-0.392395	
-0.391541	
-0.391968	
-0.391418	
-0.392029	
-0.390259	
-0.388428	
-0.389465	
-0.388062	
-0.364441	
-0.358765	
-0.362854	
-0.364197	
-0.36438	
-0.364136	
-0.395142	
-0.394592	
-0.390198	
-0.387817	
-0.387512	
-0.385559	
-0.386414	
-0.386353	
-0.386658	
-0.386292	
-0.38678	
-0.386841	
-0.387573	
-0.388	
-0.387695	
-0.387268	
-0.388	
-0.386047	
-0.388245	
-0.389343	
-0.389038	
-0.389221	
-0.389404	
-0.388916	
-0.390076	
-0.390564	
-0.390015	
-0.389587	
-0.389954	
-0.388184	
-0.389587	
-0.389954	
-0.389282	
-0.390564	
-0.390076	
-0.390259	
-0.390747	
-0.390869	
-0.391113	
-0.388733	
-0.38855	
-0.387512	
-0.388245	
-0.388611	
-0.388245	
-0.39093	
-0.392761	
-0.394531	
-0.396973	
-0.399658	
-0.402039	
-0.402954	
-0.406433	
-0.40863	
-0.412659	
-0.415771	
-0.417969	
-0.423096	
-0.427795	
-0.432861	
-0.437988	
-0.445862	
-0.450378	
-0.4552	
-0.460693	
-0.465393	
-0.471069	
-0.47644	
-0.48114	
-0.485229	
-0.488342	
-0.492188	
-0.495483	
-0.498413	
-0.498718	
-0.500244	
-0.501587	
-0.503845	
-0.505615	
-0.507019	
-0.509766	
-0.510315	
-0.512024	
-0.513977	
-0.514954	
-0.516846	
-0.516663	
-0.518494	
-0.51947	
-0.521973	
-0.523743	
-0.524719	
-0.526245	
-0.526978	
-0.504517	
-0.497742	
-0.50177	
-0.503723	
-0.501038	
-0.50061	
-0.530579	
-0.528503	
-0.524841	
-0.521912	
-0.520935	
-0.519592	
-0.518494	
-0.518066	
-0.516968	
-0.518311	
-0.515747	
-0.516174	
-0.516296	
-0.515442	
-0.514221	
-0.512939	
-0.512024	
-0.510071	
-0.508728	
-0.506897	
-0.503784	
-0.50177	
-0.497314	
-0.494507	
-0.492493	
-0.48877	
-0.484741	
-0.480896	
-0.476807	
-0.474182	
-0.470886	
-0.46637	
-0.462585	
-0.458923	
-0.452637	
-0.448975	
-0.445618	
-0.439209	
-0.433167	
-0.42804	
-0.420776	
-0.414246	
-0.40564	
-0.39801	
-0.388916	
-0.381409	
-0.370728	
-0.361938	
-0.355286	
-0.346252	
-0.338379	
-0.330505	
-0.323425	
-0.317505	
-0.311157	
-0.307007	
-0.301636	
-0.299683	
-0.294556	
-0.290649	
-0.2901	
-0.287842	
-0.287476	
-0.287109	
-0.28717	
-0.28833	
-0.290466	
-0.292664	
-0.295349	
-0.298889	
-0.300537	
-0.305542	
-0.310181	
-0.315918	
-0.322266	
-0.328247	
-0.335388	
-0.34198	
-0.349304	
-0.354065	
-0.361755	
-0.36554	
-0.370605	
-0.377808	
-0.384338	
-0.390686	
-0.394775	
-0.399353	
-0.403748	
-0.408875	
-0.413452	
-0.416382	
-0.420044	
-0.423096	
-0.427673	
-0.429016	
-0.432556	
-0.435364	
-0.436584	
-0.438782	
-0.439941	
-0.442688	
-0.444031	
-0.444885	
-0.446106	
-0.447998	
-0.450745	
-0.451538	
-0.455566	
-0.457886	
-0.458801	
-0.46167	
-0.46344	
-0.464661	
-0.465271	
-0.466675	
-0.464478	
-0.465088	
-0.466064	
-0.465637	
-0.464478	
-0.46344	
-0.462219	
-0.460938	
-0.4599	
-0.458557	
-0.456604	
-0.45575	
-0.452759	
-0.452515	
-0.451172	
-0.449646	
-0.447388	
-0.444885	
-0.442261	
-0.440186	
-0.43689	
-0.43219	
-0.427734	
-0.423523	
-0.41687	
-0.413208	
-0.407654	
-0.401917	
-0.395813	
-0.389038	
-0.383423	
-0.375732	
-0.36853	
-0.362366	
-0.353333	
-0.346619	
-0.337097	
-0.330383	
-0.323669	
-0.316101	
-0.308838	
-0.302124	
-0.296814	
-0.290771	
-0.2854	
-0.281067	
-0.27594	
-0.273071	
-0.266602	
-0.265137	
-0.262451	
-0.26062	
-0.259766	
-0.258179	
-0.257446	
-0.257751	
-0.259277	
-0.258423	
-0.260559	
-0.261902	
-0.263489	
-0.265991	
-0.268311	
-0.271729	
-0.274719	
-0.276306	
-0.28064	
-0.283386	
-0.286255	
-0.289612	
-0.293457	
-0.294617	
-0.299805	
-0.302002	
-0.307312	
-0.31073	
-0.312378	
-0.317444	
-0.321106	
-0.324646	
-0.32605	
-0.330139	
-0.330933	
-0.334412	
-0.337402	
-0.338318	
-0.342896	
-0.344421	
-0.347717	
-0.349304	
-0.352783	
-0.354187	
-0.355713	
-0.356873	
-0.358215	
-0.361633	
-0.361084	
-0.362793	
-0.362915	
-0.363586	
-0.365234	
-0.366272	
-0.366333	
-0.366821	
-0.368347	
-0.366577	
-0.368896	
-0.368958	
-0.369995	
-0.370789	
-0.37085	
-0.372437	
-0.372864	
-0.374451	
-0.374268	
-0.375671	
-0.374817	
-0.375732	
-0.37738	
-0.375671	
-0.377441	
-0.37793	
-0.378052	
-0.377625	
-0.378601	
-0.380249	
-0.378723	
-0.379089	
-0.377686	
-0.378723	
-0.378174	
-0.377991	
-0.37793	
-0.377014	
-0.378052	
-0.377563	
-0.378418	
-0.37738	
-0.377625	
-0.377136	
-0.374573	
-0.376038	
-0.376343	
-0.376953	
-0.377014	
-0.375977	
-0.376526	
-0.376892	
-0.378418	
-0.376099	
-0.375977	
-0.375732	
-0.375854	
-0.376526	
-0.374756	
-0.374878	
-0.374817	
-0.374756	
-0.374817	
-0.375793	
-0.377686	
-0.375305	
-0.375854	
-0.374939	
-0.375244	
-0.375854	
-0.375305	
-0.375732	
-0.375549	
-0.37561	
-0.375977	
-0.377136	
-0.376404	
-0.376648	
-0.377075	
-0.374817	
-0.376709	
-0.375305	
-0.375977	
-0.376526	
-0.375916	
-0.377075	
-0.377014	
-0.378601	
-0.376648	
-0.377686	
-0.375732	
-0.377502	
-0.376953	
-0.377563	
-0.377075	
-0.377136	
-0.37738	
-0.377319	
-0.378845	
-0.376831	
-0.377563	
-0.376587	
-0.376587	
-0.37793	
-0.37677	
-0.377991	
-0.377441	
-0.378296	
-0.378113	
-0.38031	
-0.379211	
-0.378845	
-0.378845	
-0.379395	
-0.380188	
-0.379456	
-0.380737	
-0.381287	
-0.380859	
-0.382263	
-0.383728	
-0.383301	
-0.383606	
-0.384521	
-0.382629	
-0.383484	
-0.385254	
-0.384705	
-0.38562	
-0.386414	
-0.386841	
-0.386658	
-0.387085	
-0.387085	
-0.386353	
-0.385254	
-0.38623	
-0.386414	
-0.385315	
-0.38623	
-0.386353	
-0.385681	
-0.387268	
-0.387451	
-0.387939	
-0.387329	
-0.387756	
-0.386353	
-0.386841	
-0.386902	
-0.386719	
-0.387146	
-0.386841	
-0.38623	
-0.387024	
-0.387878	
-0.386902	
-0.386841	
-0.386169	
-0.387024	
-0.386963	
-0.387146	
-0.387268	
-0.38678	
-0.38678	
-0.386719	
-0.387268	
-0.387939	
-0.387634	
-0.38916	
-0.388	
-0.388489	
-0.388611	
-0.389099	
-0.389343	
-0.389343	
-0.389832	
-0.389648	
-0.391724	
-0.391968	
-0.391602	
-0.392395	
-0.392212	
-0.392334	
-0.391479	
-0.392334	
-0.392395	
-0.392273	
-0.391479	
-0.391907	
-0.393005	
-0.391968	
-0.391479	
-0.391479	
-0.39032	
-0.391052	
-0.390503	
-0.390808	
-0.389893	
-0.389526	
-0.38916	
-0.389893	
-0.39032	
-0.389038	
-0.388489	
-0.387695	
-0.386841	
-0.387451	
-0.387451	
-0.388184	
-0.388062	
-0.388184	
-0.387146	
-0.388855	
-0.387451	
-0.387146	
-0.387024	
-0.385376	
-0.385925	
-0.385437	
-0.385498	
-0.385864	
-0.385071	
-0.384644	
-0.38501	
-0.385681	
-0.384216	
-0.383972	
-0.384155	
-0.383972	
-0.383423	
-0.38269	
-0.38385	
-0.383667	
-0.384033	
-0.382629	
-0.384216	
-0.383789	
-0.384766	
-0.385254	
-0.385132	
-0.385559	
-0.386169	
-0.384949	
-0.386902	
-0.387512	
-0.387695	
-0.388245	
-0.389832	
-0.388916	
-0.389404	
-0.389709	
-0.388733	
-0.388916	
-0.389221	
-0.389465	
-0.388977	
-0.388794	
-0.388916	
-0.390381	
-0.390381	
-0.390625	
-0.390198	
-0.387817	
-0.388855	
-0.389221	
-0.388245	
-0.389099	
-0.389343	
-0.389099	
-0.388306	
-0.389832	
-0.389099	
-0.38916	
-0.389954	
-0.38739	
-0.38916	
-0.389343	
-0.388611	
-0.389099	
-0.388794	
-0.388855	
-0.388062	
-0.389832	
-0.388916	
-0.388855	
-0.389832	
-0.387878	
-0.388611	
-0.388306	
-0.388794	
-0.389282	
-0.389221	
-0.390381	
-0.389282	
-0.391113	
-0.390503	
-0.390381	
-0.391724	
-0.390564	
-0.390869	
-0.390503	
-0.391357	
-0.392578	
-0.392639	
-0.392578	
-0.392273	
-0.393982	
-0.393127	
-0.393738	
-0.393921	
-0.39325	
-0.393311	
-0.392883	
-0.393921	
-0.393555	
-0.393982	
-0.393066	
-0.39386	
-0.394043	
-0.393311	
-0.393066	
-0.392029	
-0.392639	
-0.391968	
-0.390686	
-0.392578	
-0.391479	
-0.390991	
-0.390503	
-0.391235	
-0.389465	
-0.38916	
-0.389832	
-0.38916	
-0.389099	
-0.388611	
-0.388855	
-0.39032	
-0.389221	
-0.38916	
-0.38855	
-0.389832	
-0.388672	
-0.388489	
-0.388123	
-0.386169	
-0.387024	
-0.386475	
-0.385498	
-0.386597	
-0.385742	
-0.385193	
-0.384949	
-0.386292	
-0.385315	
-0.385071	
-0.384033	
-0.383484	
-0.383301	
-0.382446	
-0.383545	
-0.384155	
-0.384216	
-0.384094	
-0.385071	
-0.385559	
-0.384338	
-0.385254	
-0.38562	
-0.384827	
-0.385254	
-0.385559	
-0.386719	
-0.385986	
-0.38623	
-0.386292	
-0.387756	
-0.387451	
-0.386902	
-0.387268	
-0.387695	
-0.387451	
-0.386902	
-0.387268	
-0.387878	
-0.386902	
-0.387512	
-0.387268	
-0.388123	
-0.388184	
-0.387817	
-0.38739	
-0.38739	
-0.387939	
-0.387024	
-0.388123	
-0.388672	
-0.388855	
-0.388672	
-0.388184	
-0.389587	
-0.389038	
-0.390137	
-0.38855	
-0.389221	
-0.389282	
-0.389587	
-0.389587	
-0.389526	
-0.389282	
-0.389832	
-0.389771	
-0.39032	
-0.388977	
-0.390381	
-0.389465	
-0.390869	
-0.39093	
-0.39093	
-0.389893	
-0.391052	
-0.390686	
-0.390259	
-0.39093	
-0.391174	
-0.391235	
-0.391357	
-0.390625	
-0.390991	
-0.390991	
-0.39093	
-0.390869	
-0.391968	
-0.391663	
-0.39209	
-0.391541	
-0.392273	
-0.392517	
-0.391296	
-0.391418	
-0.391541	
-0.390991	
-0.391541	
-0.390259	
-0.391113	
-0.390747	
-0.390564	
-0.390015	
-0.389954	
-0.389465	
-0.388977	
-0.388306	
-0.388062	
-0.386841	
-0.387573	
-0.387146	
-0.387573	
-0.387268	
-0.387329	
-0.386169	
-0.385132	
-0.385864	
-0.385193	
-0.385925	
-0.38623	
-0.385742	
-0.386169	
-0.385864	
-0.38678	
-0.386597	
-0.386353	
-0.386902	
-0.386414	
-0.38678	
-0.386047	
-0.38739	
-0.38623	
-0.386597	
-0.386963	
-0.386658	
-0.387268	
-0.387024	
-0.387085	
-0.386963	
-0.387268	
-0.388245	
-0.386658	
-0.388306	
-0.387451	
-0.38678	
-0.387695	
-0.387207	
-0.387878	
-0.387878	
-0.387939	
-0.387329	
-0.387695	
-0.388062	
-0.387024	
-0.388	
-0.387573	
-0.38739	
-0.387146	
-0.387451	
-0.387268	
-0.386475	
-0.385742	
-0.385315	
-0.385376	
-0.385254	
-0.383606	
-0.38501	
-0.383362	
-0.383728	
-0.383484	
-0.384033	
-0.383118	
-0.383179	
-0.383118	
-0.383606	
-0.384033	
-0.382996	
-0.382385	
-0.383911	
-0.382568	
-0.384583	
-0.384583	
-0.38562	
-0.385681	
-0.385681	
-0.386047	
-0.386047	
-0.386597	
-0.386292	
-0.384949	
-0.386719	
-0.386047	
-0.387207	
-0.388062	
-0.389954	
-0.389282	
-0.388916	
-0.38916	
-0.38916	
-0.389709	
-0.38916	
-0.388611	
-0.390625	
-0.390503	
-0.390869	
-0.39032	
-0.391907	
-0.391663	
-0.391968	
-0.392639	
-0.392395	
-0.393738	
-0.392578	
-0.392639	
-0.393433	
-0.394043	
-0.394775	
-0.394104	
-0.394714	
-0.394653	
-0.394531	
-0.394775	
-0.394226	
-0.395081	
-0.393677	
-0.393372	
-0.393311	
-0.392151	
-0.391724	
-0.39093	
-0.391663	
-0.391357	
-0.390808	
-0.390747	
-0.390015	
-0.390015	
-0.388977	
-0.388123	
-0.388733	
-0.388855	
-0.388672	
-0.38916	
-0.388611	
-0.387634	
-0.387512	
-0.387451	
-0.387146	
-0.387573	
-0.387268	
-0.387329	
-0.386902	
-0.38739	
-0.387268	
-0.388123	
-0.387146	
-0.38739	
-0.387695	
-0.388489	
-0.387695	
-0.388489	
-0.387878	
-0.38855	
-0.387878	
-0.388367	
-0.388306	
-0.388794	
-0.388855	
-0.388611	
-0.388489	
-0.388977	
-0.389038	
-0.389526	
-0.389099	
-0.389648	
-0.388855	
-0.389709	
-0.390076	
-0.39032	
-0.389587	
-0.389709	
-0.390198	
-0.389709	
-0.389221	
-0.388977	
-0.388	
-0.38916	
-0.387512	
-0.388245	
-0.387512	
-0.388916	
-0.387695	
-0.387268	
-0.386963	
-0.387329	
-0.386353	
-0.385681	
-0.385193	
-0.386719	
-0.384521	
-0.385132	
-0.385254	
-0.386658	
-0.385254	
-0.38562	
-0.385559	
-0.386902	
-0.386841	
-0.386292	
-0.385437	
-0.387756	
-0.385742	
-0.38739	
-0.387329	
-0.388489	
-0.388306	
-0.388489	
-0.388916	
-0.389343	
-0.388855	
-0.390137	
-0.39032	
-0.391663	
-0.389343	
-0.390259	
-0.390564	
-0.391602	
-0.390381	
-0.390381	
-0.390686	
-0.39093	
-0.391174	
-0.391663	
-0.390442	
-0.392639	
-0.391418	
-0.392883	
-0.39325	
-0.394714	
-0.393982	
-0.394043	
-0.394714	
-0.395325	
-0.396118	
-0.395264	
-0.393799	
-0.396179	
-0.395325	
-0.39624	
-0.395386	
-0.396729	
-0.395996	
-0.395752	
-0.395569	
-0.395386	
-0.395691	
-0.39447	
-0.392761	
-0.394165	
-0.393555	
-0.393677	
-0.393005	
-0.393982	
-0.393188	
-0.393494	
-0.392639	
-0.392395	
-0.393066	
-0.392883	
-0.390808	
-0.39209	
-0.391785	
-0.39209	
-0.391296	
-0.391907	
-0.391968	
-0.391907	
-0.392334	
-0.391724	
-0.391785	
-0.391418	
-0.390015	
-0.39093	
-0.389893	
-0.390198	
-0.389221	
-0.389709	
-0.390625	
-0.389099	
-0.389771	
-0.390137	
-0.389893	
-0.389099	
-0.388794	
-0.389404	
-0.388977	
-0.389648	
-0.388916	
-0.389404	
-0.389526	
-0.389282	
-0.389038	
-0.389526	
-0.389648	
-0.388245	
-0.387756	
-0.388184	
-0.387939	
-0.388733	
-0.387878	
-0.388916	
-0.388672	
-0.388977	
-0.387878	
-0.388428	
-0.388794	
-0.388245	
-0.386963	
-0.388306	
-0.387451	
-0.388184	
-0.386963	
-0.387512	
-0.386719	
-0.386963	
-0.387634	
-0.38739	
-0.387024	
-0.386841	
-0.38623	
-0.387329	
-0.386597	
-0.387878	
-0.387512	
-0.388062	
-0.388245	
-0.388672	
-0.390076	
-0.38916	
-0.389709	
-0.390076	
-0.389343	
-0.391785	
-0.390991	
-0.392029	
-0.391357	
-0.39209	
-0.391846	
-0.391846	
-0.393677	
-0.393372	
-0.394653	
-0.393677	
-0.393127	
-0.392944	
-0.392822	
-0.393616	
-0.392761	
-0.393188	
-0.392822	
-0.39325	
-0.394592	
-0.39325	
-0.394043	
-0.393188	
-0.392639	
-0.393494	
-0.393494	
-0.393066	
-0.393372	
-0.392761	
-0.392273	
-0.392639	
-0.394226	
-0.392029	
-0.393494	
-0.393005	
-0.392212	
-0.391907	
-0.392639	
-0.39209	
-0.392151	
-0.391846	
-0.392273	
-0.39209	
-0.393188	
-0.392273	
-0.392212	
-0.391785	
-0.391846	
-0.392456	
-0.393494	
-0.393372	
-0.393372	
-0.392944	
-0.393982	
-0.393372	
-0.395691	
-0.394958	
-0.39502	
-0.394348	
-0.395386	
-0.395142	
-0.396423	
-0.396606	
-0.395935	
-0.396301	
-0.396362	
-0.396484	
-0.397705	
-0.395752	
-0.396057	
-0.394836	
-0.39502	
-0.393799	
-0.395447	
-0.394897	
-0.393494	
-0.394043	
-0.393677	
-0.393677	
-0.39502	
-0.393433	
-0.392578	
-0.392517	
-0.392578	
-0.389771	
-0.390076	
-0.390503	
-0.390259	
-0.39093	
-0.390503	
-0.391174	
-0.392456	
-0.391296	
-0.389465	
-0.389587	
-0.389526	
-0.388672	
-0.388672	
-0.388672	
-0.387878	
-0.388245	
-0.38739	
-0.387939	
-0.388489	
-0.386963	
-0.385986	
-0.385925	
-0.385925	
-0.385254	
-0.385925	
-0.385925	
-0.38501	
-0.385559	
-0.38501	
-0.385315	
-0.38678	
-0.38623	
-0.385803	
-0.38501	
-0.386169	
-0.386658	
-0.38739	
-0.387878	
-0.387146	
-0.388611	
-0.388916	
-0.389465	
-0.390442	
-0.390808	
-0.390076	
-0.389465	
-0.390198	
-0.390747	
-0.390991	
-0.390686	
-0.389954	
-0.390686	
-0.391541	
-0.392639	
-0.39325	
-0.393127	
-0.392151	
-0.391174	
-0.391968	
-0.392822	
-0.392395	
-0.3927	
-0.391418	
-0.391724	
-0.392639	
-0.391846	
-0.39209	
-0.392273	
-0.391479	
-0.390442	
-0.390564	
-0.392334	
-0.391785	
-0.392334	
-0.391174	
-0.391479	
-0.391846	
-0.390747	
-0.391663	
-0.391113	
-0.390259	
-0.389526	
-0.388489	
-0.389526	
-0.389404	
-0.39093	
-0.389282	
-0.39032	
-0.390198	
-0.390259	
-0.391907	
-0.391235	
-0.391235	
-0.390869	
-0.390808	
-0.39093	
-0.392456	
-0.392944	
-0.392029	
-0.392944	
-0.393127	
-0.393188	
-0.393982	
-0.394165	
-0.394165	
-0.393005	
-0.393372	
-0.394165	
-0.394409	
-0.394043	
-0.393555	
-0.393799	
-0.393738	
-0.393311	
-0.394531	
-0.393433	
-0.392944	
-0.391968	
-0.391541	
-0.392334	
-0.392517	
-0.392456	
-0.390869	
-0.391052	
-0.390991	
-0.389587	
-0.389771	
-0.388794	
-0.388428	
-0.388184	
-0.388367	
-0.389343	
-0.389465	
-0.389465	
-0.388245	
-0.389709	
-0.389282	
-0.388672	
-0.389709	
-0.388977	
-0.388062	
-0.387024	
-0.387207	
-0.386658	
-0.386414	
-0.385803	
-0.385071	
-0.38562	
-0.385315	
-0.384888	
-0.386414	
-0.385559	
-0.383667	
-0.383179	
-0.384583	
-0.384277	
-0.384033	
-0.384399	
-0.383606	
-0.38385	
-0.383606	
-0.384155	
-0.385864	
-0.386169	
-0.384888	
-0.38501	
-0.385803	
-0.386536	
-0.386292	
-0.386658	
-0.385986	
-0.38678	
-0.386963	
-0.386902	
-0.387939	
-0.388733	
-0.38739	
-0.387634	
-0.387024	
-0.387817	
-0.387878	
-0.387878	
-0.386353	
-0.387817	
-0.388611	
-0.388611	
-0.389404	
-0.389343	
-0.388062	
-0.388367	
-0.388367	
-0.388733	
-0.388977	
-0.389526	
-0.388489	
-0.38916	
-0.389526	
-0.390259	
-0.390747	
-0.390686	
-0.389954	
-0.389587	
-0.390198	
-0.390442	
-0.390198	
-0.39032	
-0.389832	
-0.390381	
-0.389709	
-0.390076	
-0.390869	
-0.391479	
-0.391357	
-0.391357	
-0.391541	
-0.39093	
-0.391296	
-0.391113	
-0.391235	
-0.391418	
-0.391846	
-0.391846	
-0.391785	
-0.392029	
-0.391479	
-0.391968	
-0.392212	
-0.391907	
-0.3927	
-0.392578	
-0.392334	
-0.392883	
-0.393372	
-0.392456	
-0.393494	
-0.392761	
-0.392395	
-0.392151	
-0.392395	
-0.390564	
-0.391724	
-0.391663	
-0.391052	
-0.390808	
-0.390625	
-0.390259	
-0.390503	
-0.389343	
-0.388855	
-0.388184	
-0.388428	
-0.387756	
-0.387634	
-0.387573	
-0.387878	
-0.386841	
-0.385559	
-0.386047	
-0.387024	
-0.386841	
-0.386108	
-0.386292	
-0.387085	
-0.386292	
-0.38739	
-0.386719	
-0.386719	
-0.386414	
-0.387024	
-0.388	
-0.387451	
-0.38739	
-0.386536	
-0.386902	
-0.386658	
-0.386658	
-0.388	
-0.38739	
-0.388184	
-0.387573	
-0.388	
-0.388367	
-0.388123	
-0.388245	
-0.388123	
-0.387878	
-0.387695	
-0.388184	
-0.388	
-0.388367	
-0.387878	
-0.388184	
-0.388306	
-0.388733	
-0.388367	
-0.38855	
-0.387878	
-0.386902	
-0.38739	
-0.386841	
-0.386475	
-0.387695	
-0.386292	
-0.386292	
-0.385925	
-0.385742	
-0.385254	
-0.385681	
-0.384705	
-0.383606	
-0.384399	
-0.384094	
-0.384399	
-0.384521	
-0.383301	
-0.384338	
-0.384399	
-0.384827	
-0.384033	
-0.38501	
-0.384949	
-0.384521	
-0.385376	
-0.385559	
-0.386047	
-0.386536	
-0.385803	
-0.387146	
-0.387451	
-0.388672	
-0.388062	
-0.387268	
-0.388	
-0.387512	
-0.389587	
-0.390076	
-0.389771	
-0.390198	
-0.388794	
-0.390076	
-0.390137	
-0.391907	
-0.39093	
-0.391418	
-0.391846	
-0.391235	
-0.3927	
-0.392273	
-0.392578	
-0.393616	
-0.392212	
-0.393372	
-0.393921	
-0.395386	
-0.394653	
-0.394348	
-0.395142	
-0.39502	
-0.395264	
-0.394836	
-0.395874	
-0.395874	
-0.394348	
-0.395264	
-0.394836	
-0.39563	
-0.394165	
-0.393982	
-0.394592	
-0.393433	
-0.39325	
-0.392822	
-0.392334	
-0.392334	
-0.390259	
-0.390808	
-0.390991	
-0.391663	
-0.389893	
-0.390442	
-0.390259	
-0.389709	
-0.389709	
-0.389893	
-0.387817	
-0.388123	
-0.387634	
-0.388062	
-0.388306	
-0.388489	
-0.388794	
-0.388245	
-0.38855	
-0.388611	
-0.38855	
-0.388611	
-0.388428	
-0.389526	
-0.38855	
-0.388794	
-0.389038	
-0.390076	
-0.389404	
-0.389038	
-0.389526	
-0.38855	
-0.389771	
-0.389587	
-0.389465	
-0.389832	
-0.388977	
-0.389832	
-0.390442	
-0.390564	
-0.390259	
-0.390747	
-0.391357	
-0.390015	
-0.391479	
-0.39093	
-0.390991	
-0.39093	
-0.390076	
-0.390259	
-0.389832	
-0.390198	
-0.389465	
-0.388977	
-0.389282	
-0.388733	
-0.389221	
-0.388611	
-0.388184	
-0.388306	
-0.387573	
-0.387024	
-0.386658	
-0.38678	
-0.386536	
-0.386536	
-0.387024	
-0.386047	
-0.386902	
-0.387085	
-0.386169	
-0.38739	
-0.38678	
-0.386902	
-0.387512	
-0.387451	
-0.387817	
-0.388	
-0.388611	
-0.386536	
-0.388489	
-0.389526	
-0.388428	
-0.389954	
-0.389832	
-0.390442	
-0.391174	
-0.391907	
-0.392212	
-0.391968	
-0.391846	
-0.390442	
-0.391479	
-0.392395	
-0.391174	
-0.392212	
-0.391296	
-0.392151	
-0.392273	
-0.393188	
-0.393555	
-0.394165	
-0.393799	
-0.3927	
-0.394348	
-0.395996	
-0.394226	
-0.395874	
-0.39624	
-0.396118	
-0.396362	
-0.396179	
-0.3974	
-0.397461	
-0.396484	
-0.396301	
-0.397034	
-0.396912	
-0.395264	
-0.396973	
-0.397034	
-0.39563	
-0.396301	
-0.395081	
-0.395203	
-0.394714	
-0.394348	
-0.393433	
-0.394714	
-0.394653	
-0.393066	
-0.393677	
-0.393005	
-0.393738	
-0.393738	
-0.39325	
-0.393127	
-0.3927	
-0.393127	
-0.392029	
-0.39325	
-0.393677	
-0.392944	
-0.393188	
-0.392517	
-0.392395	
-0.392395	
-0.392639	
-0.392334	
-0.39209	
-0.392517	
-0.391418	
-0.392395	
-0.3927	
-0.391846	
-0.391663	
-0.391541	
-0.391907	
-0.391724	
-0.391602	
-0.391357	
-0.390808	
-0.391113	
-0.390747	
-0.390991	
-0.392029	
-0.391479	
-0.391357	
-0.390442	
-0.39032	
-0.390076	
-0.390564	
-0.390381	
-0.390686	
-0.390137	
-0.389343	
-0.390442	
-0.391357	
-0.389893	
-0.390198	
-0.389648	
-0.390015	
-0.389343	
-0.389832	
-0.389404	
-0.388672	
-0.38916	
-0.387695	
-0.388428	
-0.388916	
-0.387878	
-0.388672	
-0.387878	
-0.388367	
-0.388306	
-0.388428	
-0.388733	
-0.388672	
-0.389221	
-0.388062	
-0.389832	
-0.390259	
-0.389709	
-0.390869	
-0.390015	
-0.391357	
-0.391846	
-0.3927	
-0.391968	
-0.392883	
-0.392883	
-0.392639	
-0.393372	
-0.394592	
-0.393433	
-0.394104	
-0.394653	
-0.394958	
-0.395264	
-0.395081	
-0.394958	
-0.39447	
-0.394348	
-0.394287	
-0.394104	
-0.395264	
-0.394104	
-0.394897	
-0.394348	
-0.39386	
-0.394897	
-0.394531	
-0.394226	
-0.393982	
-0.394531	
-0.393982	
-0.394104	
-0.39447	
-0.393677	
	
