C:\DOCUMENTS AND SETTINGS\JASON\DESKTOP\UFRJ\UFRJ EPHYS\RSCI-BM 12 WK SERIES\070803-RSCI-BM-11\RSCI-BM-11-LEMG\070803-RSCI-BM-11-LEMG-0006.ACQ
0.025000 msec/sample
1 channel
Analog input
Volts
CH1	
2000	
-0.387695	
-0.390198	
-0.390015	
-0.390808	
-0.390625	
-0.391907	
-0.392761	
-0.392578	
-0.393005	
-0.393066	
-0.393921	
-0.393494	
-0.393433	
-0.394714	
-0.393555	
-0.394775	
-0.394897	
-0.394104	
-0.396179	
-0.396362	
-0.396362	
-0.39801	
-0.396362	
-0.395264	
-0.394897	
-0.394775	
-0.395569	
-0.39502	
-0.395142	
-0.394897	
-0.395752	
-0.395203	
-0.395203	
-0.395508	
-0.394653	
-0.395203	
-0.394592	
-0.393555	
-0.395081	
-0.394348	
-0.394958	
-0.393921	
-0.394165	
-0.39502	
-0.394653	
-0.393616	
-0.393555	
-0.393188	
-0.393005	
-0.3927	
-0.392273	
-0.390625	
-0.391602	
-0.391357	
-0.390381	
-0.391296	
-0.391724	
-0.391418	
-0.391418	
-0.389709	
-0.390015	
-0.390259	
-0.390198	
-0.391174	
-0.390747	
-0.391479	
-0.390747	
-0.391357	
-0.391968	
-0.391968	
-0.391785	
-0.391113	
-0.39209	
-0.390503	
-0.389709	
-0.391479	
-0.390503	
-0.391052	
-0.391602	
-0.391296	
-0.392517	
-0.392395	
-0.391724	
-0.391357	
-0.391113	
-0.391602	
-0.390869	
-0.391602	
-0.390686	
-0.390625	
-0.390991	
-0.389771	
-0.390625	
-0.391602	
-0.390991	
-0.391846	
-0.391479	
-0.391296	
-0.391113	
-0.391174	
-0.391541	
-0.390259	
-0.390625	
-0.390381	
-0.39032	
-0.390625	
-0.390381	
-0.389587	
-0.389526	
-0.389343	
-0.389343	
-0.388611	
-0.390564	
-0.389587	
-0.390259	
-0.390198	
-0.388733	
-0.390015	
-0.390991	
-0.389526	
-0.38916	
-0.389099	
-0.388794	
-0.38916	
-0.389587	
-0.389832	
-0.390198	
-0.389832	
-0.389404	
-0.390381	
-0.391418	
-0.390747	
-0.391174	
-0.390442	
-0.390808	
-0.390747	
-0.390991	
-0.391418	
-0.390015	
-0.390991	
-0.391663	
-0.393066	
-0.393494	
-0.393494	
-0.392822	
-0.392212	
-0.390991	
-0.392517	
-0.391418	
-0.393005	
-0.391663	
-0.392212	
-0.393005	
-0.392639	
-0.392578	
-0.393616	
-0.392761	
-0.392944	
-0.392395	
-0.391663	
-0.391785	
-0.392761	
-0.392029	
-0.390991	
-0.392334	
-0.392151	
-0.392334	
-0.393005	
-0.391663	
-0.39209	
-0.391541	
-0.390869	
-0.391968	
-0.392151	
-0.391052	
-0.390747	
-0.390747	
-0.390137	
-0.391235	
-0.391296	
-0.390869	
-0.391479	
-0.390625	
-0.388794	
-0.391357	
-0.389648	
-0.390686	
-0.391113	
-0.390747	
-0.390625	
-0.391235	
-0.391968	
-0.392639	
-0.391785	
-0.391357	
-0.390991	
-0.391846	
-0.367737	
-0.364868	
-0.367798	
-0.368652	
-0.368713	
-0.369446	
-0.401672	
-0.398743	
-0.395081	
-0.393677	
-0.392212	
-0.391602	
-0.392151	
-0.392517	
-0.391602	
-0.390686	
-0.391174	
-0.391479	
-0.391235	
-0.391663	
-0.392883	
-0.392334	
-0.391541	
-0.390503	
-0.361389	
-0.361938	
-0.365967	
-0.367188	
-0.36792	
-0.367859	
-0.400391	
-0.395874	
-0.3927	
-0.391541	
-0.390381	
-0.389526	
-0.388611	
-0.38916	
-0.389465	
-0.389343	
-0.38916	
-0.389282	
-0.388611	
-0.388306	
-0.388428	
-0.388245	
-0.387085	
-0.386719	
-0.386536	
-0.387329	
-0.387817	
-0.388794	
-0.390076	
-0.392578	
-0.395996	
-0.398499	
-0.40094	
-0.404358	
-0.406616	
-0.409729	
-0.413208	
-0.417236	
-0.420349	
-0.424683	
-0.429382	
-0.434082	
-0.439941	
-0.445251	
-0.450867	
-0.456177	
-0.460938	
-0.465942	
-0.470032	
-0.475464	
-0.478882	
-0.482056	
-0.485474	
-0.488403	
-0.489746	
-0.49176	
-0.493286	
-0.494629	
-0.495056	
-0.495605	
-0.49707	
-0.498291	
-0.499512	
-0.500122	
-0.501221	
-0.502258	
-0.503296	
-0.503967	
-0.506042	
-0.508667	
-0.510315	
-0.511353	
-0.513123	
-0.513916	
-0.515442	
-0.516357	
-0.517151	
-0.516052	
-0.517578	
-0.51709	
-0.517212	
-0.518555	
-0.517212	
-0.515808	
-0.515686	
-0.516296	
-0.516541	
-0.516418	
-0.516174	
-0.515015	
-0.516418	
-0.517395	
-0.518494	
-0.520203	
-0.519043	
-0.518799	
-0.518555	
-0.516113	
-0.51709	
-0.515442	
-0.513184	
-0.512634	
-0.510681	
-0.50824	
-0.505432	
-0.503113	
-0.49939	
-0.495239	
-0.49176	
-0.485107	
-0.483826	
-0.479187	
-0.473816	
-0.47052	
-0.466064	
-0.461609	
-0.456787	
-0.452637	
-0.447327	
-0.441406	
-0.435974	
-0.428162	
-0.422791	
-0.416687	
-0.409058	
-0.401733	
-0.392578	
-0.385071	
-0.376953	
-0.368591	
-0.361084	
-0.350647	
-0.339783	
-0.331177	
-0.321655	
-0.314697	
-0.305725	
-0.29834	
-0.29126	
-0.284363	
-0.278381	
-0.273926	
-0.270996	
-0.267273	
-0.263428	
-0.26178	
-0.258545	
-0.259521	
-0.25824	
-0.257141	
-0.258057	
-0.259216	
-0.261169	
-0.263306	
-0.267334	
-0.269836	
-0.272583	
-0.277161	
-0.279968	
-0.28479	
-0.289063	
-0.293884	
-0.298401	
-0.302734	
-0.307251	
-0.312622	
-0.316406	
-0.320313	
-0.324585	
-0.327454	
-0.331726	
-0.335938	
-0.338928	
-0.343018	
-0.345215	
-0.349182	
-0.352539	
-0.356567	
-0.358521	
-0.360779	
-0.364563	
-0.365601	
-0.369568	
-0.371277	
-0.374695	
-0.376648	
-0.379028	
-0.381287	
-0.382996	
-0.385681	
-0.386597	
-0.387756	
-0.388367	
-0.389648	
-0.390442	
-0.391235	
-0.3927	
-0.39209	
-0.3927	
-0.393372	
-0.394348	
-0.39386	
-0.392883	
-0.392761	
-0.393005	
-0.392517	
-0.391846	
-0.390259	
-0.390259	
-0.388733	
-0.389221	
-0.388062	
-0.388	
-0.387573	
-0.385986	
-0.384766	
-0.384216	
-0.38385	
-0.383301	
-0.381226	
-0.381165	
-0.378723	
-0.378113	
-0.377502	
-0.375793	
-0.373901	
-0.372314	
-0.371216	
-0.369141	
-0.367859	
-0.36792	
-0.366455	
-0.366211	
-0.364868	
-0.365967	
-0.365234	
-0.365479	
-0.36615	
-0.365479	
-0.365662	
-0.36676	
-0.366943	
-0.368591	
-0.369202	
-0.370605	
-0.370544	
-0.373047	
-0.374451	
-0.375488	
-0.377136	
-0.377747	
-0.377502	
-0.37738	
-0.378296	
-0.379761	
-0.380371	
-0.382324	
-0.382751	
-0.384155	
-0.385498	
-0.385864	
-0.387207	
-0.387024	
-0.387268	
-0.387146	
-0.388062	
-0.388489	
-0.387695	
-0.388672	
-0.388977	
-0.389221	
-0.389771	
-0.390015	
-0.390442	
-0.389587	
-0.390686	
-0.389465	
-0.390564	
-0.390625	
-0.390259	
-0.389954	
-0.390991	
-0.391479	
-0.390869	
-0.391357	
-0.390381	
-0.389404	
-0.390625	
-0.389343	
-0.389954	
-0.389221	
-0.388977	
-0.390015	
-0.388916	
-0.389526	
-0.387634	
-0.388794	
-0.386536	
-0.386292	
-0.386108	
-0.384705	
-0.385132	
-0.383789	
-0.383484	
-0.383728	
-0.38324	
-0.383118	
-0.38208	
-0.382385	
-0.38147	
-0.381165	
-0.381714	
-0.379333	
-0.380188	
-0.380249	
-0.379517	
-0.379272	
-0.379333	
-0.379639	
-0.378174	
-0.378296	
-0.37854	
-0.377014	
-0.378784	
-0.377136	
-0.377197	
-0.377197	
-0.376587	
-0.377625	
-0.377563	
-0.377441	
-0.376709	
-0.376282	
-0.376953	
-0.375977	
-0.378479	
-0.376831	
-0.377014	
-0.376709	
-0.376343	
-0.37738	
-0.377319	
-0.377686	
-0.377991	
-0.378784	
-0.379395	
-0.378174	
-0.379211	
-0.37793	
-0.379395	
-0.379822	
-0.378967	
-0.380981	
-0.381226	
-0.381348	
-0.381348	
-0.382324	
-0.382751	
-0.382019	
-0.382996	
-0.383423	
-0.382935	
-0.381592	
-0.381592	
-0.381409	
-0.382202	
-0.383484	
-0.383301	
-0.383667	
-0.383789	
-0.383179	
-0.383606	
-0.383545	
-0.382935	
-0.382874	
-0.382813	
-0.381958	
-0.382996	
-0.383423	
-0.384216	
-0.383728	
-0.383667	
-0.38324	
-0.38385	
-0.384277	
-0.382629	
-0.38446	
-0.383789	
-0.382996	
-0.384033	
-0.384155	
-0.385132	
-0.38501	
-0.384827	
-0.384338	
-0.384644	
-0.38562	
-0.383362	
-0.384766	
-0.38446	
-0.384033	
-0.384705	
-0.385681	
-0.385986	
-0.386536	
-0.385864	
-0.385132	
-0.384827	
-0.386108	
-0.385559	
-0.386353	
-0.385986	
-0.384827	
-0.385559	
-0.385925	
-0.386108	
-0.385864	
-0.385803	
-0.38623	
-0.38446	
-0.385498	
-0.385559	
-0.386047	
-0.383972	
-0.383728	
-0.384277	
-0.383606	
-0.384216	
-0.383362	
-0.383972	
-0.382446	
-0.381348	
-0.382507	
-0.381897	
-0.381958	
-0.381042	
-0.380432	
-0.38147	
-0.381409	
-0.38208	
-0.381897	
-0.382263	
-0.38208	
-0.381653	
-0.38324	
-0.382996	
-0.382935	
-0.38324	
-0.383179	
-0.385376	
-0.386047	
-0.387085	
-0.387085	
-0.387756	
-0.386963	
-0.386841	
-0.388	
-0.388489	
-0.388428	
-0.388367	
-0.388062	
-0.389526	
-0.389526	
-0.390503	
-0.391479	
-0.392151	
-0.391296	
-0.390747	
-0.391296	
-0.389343	
-0.388977	
-0.389038	
-0.388733	
-0.389648	
-0.389404	
-0.39032	
-0.390869	
-0.390137	
-0.389343	
-0.388489	
-0.390564	
-0.390076	
-0.389648	
-0.389404	
-0.388733	
-0.389404	
-0.389221	
-0.389832	
-0.390198	
-0.389465	
-0.388611	
-0.387451	
-0.388123	
-0.388489	
-0.387939	
-0.387512	
-0.387085	
-0.387329	
-0.387024	
-0.38739	
-0.387329	
-0.387878	
-0.386597	
-0.38562	
-0.385925	
-0.387573	
-0.386719	
-0.386475	
-0.385437	
-0.386475	
-0.38678	
-0.386963	
-0.387451	
-0.387878	
-0.387329	
-0.386475	
-0.386536	
-0.387878	
-0.387146	
-0.387024	
-0.385681	
-0.387573	
-0.387512	
-0.387573	
-0.388184	
-0.387878	
-0.387451	
-0.387756	
-0.386536	
-0.388062	
-0.387878	
-0.387817	
-0.38562	
-0.387451	
-0.387451	
-0.387451	
-0.388489	
-0.387634	
-0.386292	
-0.38739	
-0.387085	
-0.388	
-0.386902	
-0.387024	
-0.386536	
-0.387024	
-0.38739	
-0.387207	
-0.387695	
-0.388306	
-0.38623	
-0.385559	
-0.385681	
-0.386597	
-0.385437	
-0.385559	
-0.385437	
-0.385803	
-0.386292	
-0.386597	
-0.387512	
-0.387207	
-0.385986	
-0.385559	
-0.385254	
-0.386108	
-0.385864	
-0.385803	
-0.385437	
-0.384827	
-0.386169	
-0.386292	
-0.387146	
-0.387695	
-0.387024	
-0.38678	
-0.386963	
-0.387573	
-0.387512	
-0.387817	
-0.387512	
-0.387085	
-0.387939	
-0.388245	
-0.38916	
-0.389038	
-0.389282	
-0.389832	
-0.389832	
-0.389709	
-0.389709	
-0.389343	
-0.389038	
-0.388367	
-0.389221	
-0.389282	
-0.390503	
-0.39093	
-0.389587	
-0.389832	
-0.38916	
-0.389099	
-0.390808	
-0.390076	
-0.390198	
-0.38855	
-0.390076	
-0.389526	
-0.390015	
-0.390259	
-0.389832	
-0.389771	
-0.388062	
-0.388123	
-0.390869	
-0.389648	
-0.389221	
-0.389832	
-0.390381	
-0.389648	
-0.388977	
-0.389709	
-0.389099	
-0.38855	
-0.387207	
-0.387024	
-0.390076	
-0.388794	
-0.387939	
-0.388123	
-0.386963	
-0.38855	
-0.388916	
-0.389648	
-0.389465	
-0.389282	
-0.389221	
-0.388794	
-0.389832	
-0.389404	
-0.389648	
-0.389771	
-0.388	
-0.390076	
-0.390747	
-0.390686	
-0.390625	
-0.390259	
-0.389587	
-0.389343	
-0.390747	
-0.390564	
-0.390198	
-0.390076	
-0.390015	
-0.390198	
-0.390564	
-0.391541	
-0.390869	
-0.390137	
-0.389648	
-0.389221	
-0.390137	
-0.391418	
-0.389709	
-0.390076	
-0.388855	
-0.388489	
-0.388855	
-0.390076	
-0.389893	
-0.389099	
-0.388306	
-0.387695	
-0.387817	
-0.388855	
-0.388062	
-0.387634	
-0.387207	
-0.387146	
-0.387695	
-0.387817	
-0.387878	
-0.387756	
-0.387085	
-0.386169	
-0.385559	
-0.387817	
-0.386841	
-0.386841	
-0.386658	
-0.385254	
-0.387756	
-0.388245	
-0.388428	
-0.387512	
-0.387939	
-0.388855	
-0.389221	
-0.390076	
-0.391296	
-0.389648	
-0.389832	
-0.389282	
-0.390137	
-0.391541	
-0.391479	
-0.390808	
-0.39093	
-0.390808	
-0.391541	
-0.39093	
-0.392578	
-0.391479	
-0.39093	
-0.390625	
-0.389832	
-0.391541	
-0.391785	
-0.391418	
-0.391174	
-0.389709	
-0.390686	
-0.391357	
-0.391846	
-0.391052	
-0.391113	
-0.391296	
-0.390869	
-0.391541	
-0.392212	
-0.391968	
-0.390991	
-0.390625	
-0.389954	
-0.391479	
-0.391968	
-0.391724	
-0.390503	
-0.39093	
-0.390442	
-0.390808	
-0.391663	
-0.391846	
-0.390625	
-0.390076	
-0.389648	
-0.390564	
-0.391541	
-0.391724	
-0.391357	
-0.391357	
-0.391418	
-0.391785	
-0.393005	
-0.392029	
-0.391663	
-0.392456	
-0.391968	
-0.392334	
-0.394287	
-0.394714	
-0.394409	
-0.394958	
-0.394897	
-0.395386	
-0.395691	
-0.396057	
-0.395081	
-0.395386	
-0.395081	
-0.394775	
-0.395996	
-0.396057	
-0.396179	
-0.395142	
-0.394958	
-0.393799	
-0.39386	
-0.394958	
-0.393616	
-0.392456	
-0.390625	
-0.391785	
-0.390686	
-0.391052	
-0.390076	
-0.389587	
-0.388733	
-0.388184	
-0.388733	
-0.389404	
-0.389221	
-0.388062	
-0.386292	
-0.385864	
-0.386292	
-0.385925	
-0.385437	
-0.385803	
-0.385315	
-0.38501	
-0.385559	
-0.386108	
-0.388367	
-0.388245	
-0.386841	
-0.386047	
-0.386658	
-0.388245	
-0.388	
-0.388428	
-0.387329	
-0.387329	
-0.388184	
-0.387817	
-0.388306	
-0.388062	
-0.387939	
-0.387268	
-0.386963	
-0.38855	
-0.389587	
-0.388916	
-0.388794	
-0.388977	
-0.388977	
-0.390015	
-0.390259	
-0.390503	
-0.389587	
-0.39032	
-0.390564	
-0.391052	
-0.391663	
-0.39093	
-0.391785	
-0.391052	
-0.391541	
-0.392212	
-0.391846	
-0.392395	
-0.391541	
-0.391479	
-0.391479	
-0.391602	
-0.391846	
-0.391052	
-0.391479	
-0.390381	
-0.390259	
-0.391602	
-0.391479	
-0.391724	
-0.390808	
-0.389465	
-0.390137	
-0.390625	
-0.390991	
-0.390747	
-0.391052	
-0.390137	
-0.390198	
-0.390686	
-0.389954	
-0.390442	
-0.390381	
-0.389648	
-0.389954	
-0.389832	
-0.391602	
-0.39209	
-0.391418	
-0.391541	
-0.390808	
-0.391174	
-0.390869	
-0.390564	
-0.390808	
-0.390259	
-0.389771	
-0.390991	
-0.391663	
-0.392395	
-0.391724	
-0.392395	
-0.39209	
-0.392822	
-0.392822	
-0.392761	
-0.39325	
-0.392334	
-0.392029	
-0.391907	
-0.391296	
-0.392883	
-0.39209	
-0.393005	
-0.392334	
-0.392029	
-0.393433	
-0.39209	
-0.392456	
-0.391968	
-0.391418	
-0.391724	
-0.391235	
-0.391174	
-0.391113	
-0.391541	
-0.390503	
-0.389465	
-0.391357	
-0.390442	
-0.390564	
-0.390564	
-0.389343	
-0.389038	
-0.388367	
-0.387878	
-0.388123	
-0.38855	
-0.389404	
-0.388977	
-0.38916	
-0.388733	
-0.38916	
-0.389893	
-0.388062	
-0.388611	
-0.38855	
-0.388367	
-0.389343	
-0.388794	
-0.388733	
-0.387878	
-0.388367	
-0.389038	
-0.388489	
-0.388733	
-0.388062	
-0.388428	
-0.388977	
-0.38739	
-0.389893	
-0.388794	
-0.389099	
-0.389099	
-0.389587	
-0.390198	
-0.389221	
-0.389404	
-0.389404	
-0.389343	
-0.389038	
-0.390076	
-0.390686	
-0.389832	
-0.390259	
-0.390747	
-0.389343	
-0.390625	
-0.39032	
-0.390564	
-0.390381	
-0.389282	
-0.389099	
-0.389404	
-0.389221	
-0.389343	
-0.389648	
-0.389771	
-0.387756	
-0.388977	
-0.388489	
-0.388367	
-0.389343	
-0.387939	
-0.388428	
-0.388062	
-0.388672	
-0.389282	
-0.389282	
-0.389282	
-0.387878	
-0.388184	
-0.388977	
-0.388855	
-0.388977	
-0.388245	
-0.388245	
-0.388306	
-0.388489	
-0.390076	
-0.389038	
-0.389343	
-0.389099	
-0.389038	
-0.389343	
-0.388794	
-0.389099	
-0.389465	
-0.389221	
-0.38916	
-0.388855	
-0.390808	
-0.390076	
-0.389771	
-0.391418	
-0.390137	
-0.391541	
-0.39093	
-0.391296	
-0.391296	
-0.390198	
-0.390564	
-0.391052	
-0.392029	
-0.392151	
-0.39209	
-0.3927	
-0.391052	
-0.391907	
-0.392273	
-0.391357	
-0.39209	
-0.390869	
-0.390625	
-0.390503	
-0.389282	
-0.389587	
-0.389221	
-0.389526	
-0.388916	
-0.38916	
-0.389954	
-0.390076	
-0.389587	
-0.388611	
-0.388306	
-0.388306	
-0.388	
-0.388611	
-0.387756	
-0.387329	
-0.387878	
-0.387512	
-0.388367	
-0.388306	
-0.388062	
-0.387207	
-0.386597	
-0.38739	
-0.387329	
-0.388184	
-0.387451	
-0.387573	
-0.388123	
-0.386719	
-0.388123	
-0.387695	
-0.386841	
-0.387573	
-0.386597	
-0.386292	
-0.386841	
-0.388611	
-0.387512	
-0.387695	
-0.387878	
-0.387695	
-0.388123	
-0.388123	
-0.387817	
-0.388062	
-0.387817	
-0.388	
-0.388489	
-0.387939	
-0.388855	
-0.388	
-0.388	
-0.387207	
-0.386963	
-0.388367	
-0.387451	
-0.387512	
-0.386597	
-0.386536	
-0.386169	
-0.386841	
-0.386719	
-0.385254	
-0.385559	
-0.38562	
-0.384583	
-0.385376	
-0.383972	
-0.383362	
-0.383301	
-0.382568	
-0.382263	
-0.382629	
-0.384094	
-0.382996	
-0.383301	
-0.38269	
-0.38269	
-0.383301	
-0.384338	
-0.383362	
-0.383667	
-0.382996	
-0.384583	
-0.38446	
-0.385864	
-0.386475	
-0.387085	
-0.387695	
-0.388123	
-0.38855	
-0.38916	
-0.390198	
-0.390137	
-0.389282	
-0.389526	
-0.389282	
-0.390808	
-0.390869	
-0.390747	
-0.390991	
-0.392822	
-0.393433	
-0.393677	
-0.393127	
-0.392517	
-0.390381	
-0.390686	
-0.389465	
-0.390381	
-0.391968	
-0.390991	
-0.391235	
-0.391174	
-0.391479	
-0.391663	
-0.390991	
-0.391296	
-0.390991	
-0.390137	
-0.39032	
-0.389648	
-0.391418	
-0.390625	
-0.390015	
-0.389832	
-0.389893	
-0.390137	
-0.389404	
-0.390259	
-0.388855	
-0.388489	
-0.388367	
-0.387085	
-0.388367	
-0.388123	
-0.388062	
-0.387451	
-0.386475	
-0.387695	
-0.387329	
-0.387146	
-0.385681	
-0.386475	
-0.387024	
-0.385315	
-0.387512	
-0.387085	
-0.387085	
-0.387024	
-0.386353	
-0.38739	
-0.387939	
-0.38739	
-0.387634	
-0.387207	
-0.386902	
-0.386414	
-0.387817	
-0.387817	
-0.387695	
-0.387817	
-0.387451	
-0.388367	
-0.388306	
-0.387634	
-0.388855	
-0.387268	
-0.387329	
-0.387024	
-0.386353	
-0.388733	
-0.387695	
-0.387634	
-0.38678	
-0.386536	
-0.387512	
-0.387207	
-0.387939	
-0.386047	
-0.385864	
-0.386902	
-0.38678	
-0.388	
-0.387512	
-0.386902	
-0.386963	
-0.385803	
-0.386719	
-0.385925	
-0.386414	
-0.385925	
-0.384888	
-0.385803	
-0.38446	
-0.386047	
-0.38678	
-0.386475	
-0.38562	
-0.385803	
-0.386841	
-0.386902	
-0.385925	
-0.386108	
-0.385193	
-0.385925	
-0.384888	
-0.385193	
-0.387268	
-0.386292	
-0.386597	
-0.38678	
-0.387878	
-0.387817	
-0.387207	
-0.387695	
-0.386108	
-0.386353	
-0.387451	
-0.38678	
-0.388245	
-0.387817	
-0.387878	
-0.388489	
-0.389221	
-0.390381	
-0.390076	
-0.390015	
-0.388916	
-0.388428	
-0.388855	
-0.388306	
-0.389404	
-0.389221	
-0.388855	
-0.389648	
-0.389587	
-0.390747	
-0.389832	
-0.390198	
-0.390686	
-0.389465	
-0.388916	
-0.38916	
-0.389893	
-0.390137	
-0.389404	
-0.389038	
-0.388733	
-0.389343	
-0.389587	
-0.389404	
-0.389404	
-0.387756	
-0.389526	
-0.388	
-0.388733	
-0.389221	
-0.388794	
-0.388	
-0.387268	
-0.387024	
-0.389038	
-0.388367	
-0.387573	
-0.387207	
-0.387756	
-0.387146	
-0.386169	
-0.388	
-0.388733	
-0.388306	
-0.388794	
-0.388611	
-0.390259	
-0.389343	
-0.389587	
-0.38855	
-0.387817	
-0.388855	
-0.388794	
-0.390076	
-0.390015	
-0.390198	
-0.388916	
-0.388611	
-0.389771	
-0.389893	
-0.390015	
-0.389404	
-0.388062	
-0.38916	
-0.38916	
-0.39032	
-0.389709	
-0.389221	
-0.389282	
-0.388977	
-0.388306	
-0.390503	
-0.390198	
-0.390442	
-0.388977	
-0.387817	
-0.386475	
-0.388428	
-0.387817	
-0.388794	
-0.388245	
-0.388	
-0.387573	
-0.389221	
-0.388	
-0.388611	
-0.386841	
-0.385864	
-0.386414	
-0.386292	
-0.387085	
-0.387634	
-0.386597	
-0.385803	
-0.386047	
-0.386353	
-0.38623	
-0.387268	
-0.385925	
-0.384155	
-0.385498	
-0.384888	
-0.386597	
-0.38678	
-0.387329	
-0.387146	
-0.388428	
-0.388916	
-0.389709	
-0.389648	
-0.388428	
-0.38855	
-0.389099	
-0.387817	
-0.389526	
-0.389954	
-0.391296	
-0.390259	
-0.390442	
-0.390747	
-0.392334	
-0.39093	
-0.391174	
-0.389709	
-0.390015	
-0.389282	
-0.390625	
-0.391052	
-0.390686	
-0.390381	
-0.390442	
-0.39093	
-0.391357	
-0.390076	
-0.392517	
-0.390442	
-0.388855	
-0.39032	
-0.390869	
-0.391296	
-0.391052	
-0.39093	
-0.391174	
-0.390869	
-0.390625	
-0.391174	
-0.392273	
-0.390381	
-0.389587	
-0.390564	
-0.390381	
-0.390686	
-0.390747	
-0.390015	
-0.389954	
-0.390076	
-0.389709	
-0.391785	
-0.391418	
-0.391052	
-0.390442	
-0.39093	
-0.389832	
-0.391602	
-0.391418	
-0.392578	
-0.392212	
-0.392944	
-0.39325	
-0.394287	
-0.393921	
-0.393616	
-0.393677	
-0.393433	
-0.393433	
-0.395081	
-0.394531	
-0.396729	
-0.395447	
-0.394775	
-0.39502	
-0.396057	
-0.395813	
-0.396423	
-0.39447	
-0.393616	
-0.393921	
-0.39386	
-0.393677	
-0.393738	
-0.392639	
-0.392334	
-0.391113	
-0.390015	
-0.391418	
-0.391418	
-0.388733	
-0.387634	
-0.388123	
-0.387695	
-0.388977	
-0.388306	
-0.387939	
-0.388123	
-0.387512	
-0.385986	
-0.386047	
-0.386169	
-0.385681	
-0.385254	
-0.38501	
-0.383667	
-0.386353	
-0.387878	
-0.388306	
-0.388245	
-0.387756	
-0.387756	
-0.388306	
-0.388428	
-0.388245	
-0.387329	
-0.386841	
-0.38678	
-0.387817	
-0.388123	
-0.388733	
-0.388367	
-0.388245	
-0.388062	
-0.388916	
-0.389587	
-0.389709	
-0.388977	
-0.387878	
-0.388184	
-0.389465	
-0.389954	
-0.390625	
-0.390076	
-0.390137	
-0.390869	
-0.390137	
-0.391724	
-0.392822	
-0.391174	
-0.390442	
-0.389771	
-0.390137	
-0.391724	
-0.39209	
-0.391785	
-0.391357	
-0.391663	
-0.390991	
-0.392517	
-0.393127	
-0.391296	
-0.390747	
-0.39093	
-0.390564	
-0.391418	
-0.391296	
-0.392212	
-0.391418	
-0.390991	
-0.391174	
-0.391968	
-0.392151	
-0.391663	
-0.390076	
-0.390198	
-0.390198	
-0.39093	
-0.390991	
-0.391846	
-0.390991	
-0.39032	
-0.390625	
-0.391296	
-0.392639	
-0.391968	
-0.39093	
-0.390137	
-0.38916	
-0.390259	
-0.391418	
-0.391968	
-0.391418	
-0.391235	
-0.390869	
-0.391418	
-0.39209	
-0.392578	
-0.392639	
-0.392029	
-0.391785	
-0.392273	
-0.392883	
-0.393433	
-0.392578	
-0.391785	
-0.392029	
-0.391418	
-0.392822	
-0.394043	
-0.393982	
-0.392456	
-0.392456	
-0.392456	
-0.393188	
-0.392822	
-0.392334	
-0.392334	
-0.392212	
-0.391479	
-0.392822	
-0.394043	
-0.391785	
-0.390564	
-0.390625	
-0.390381	
-0.390015	
-0.390686	
-0.391052	
-0.390808	
-0.390381	
-0.388733	
-0.388733	
-0.389709	
-0.389404	
-0.388916	
-0.387695	
-0.387207	
-0.38916	
-0.389832	
-0.389771	
-0.389832	
-0.390015	
-0.389282	
-0.389282	
-0.390015	
-0.389893	
-0.389526	
-0.388062	
-0.388672	
-0.38855	
-0.388977	
-0.389648	
-0.389648	
-0.389099	
-0.388916	
-0.390015	
-0.39032	
-0.391479	
-0.390198	
-0.389526	
-0.389099	
-0.389099	
-0.389099	
-0.390625	
-0.390381	
-0.39032	
-0.390076	
-0.391174	
-0.39209	
-0.392273	
-0.391846	
-0.390686	
-0.390625	
-0.388733	
-0.389709	
-0.391235	
-0.390686	
-0.390747	
-0.390442	
-0.390198	
-0.391418	
-0.391113	
-0.390198	
-0.388855	
-0.388672	
-0.388428	
-0.389343	
-0.389526	
-0.389648	
-0.389526	
-0.389282	
-0.387939	
-0.389465	
-0.389893	
-0.391479	
-0.390076	
-0.388977	
-0.388855	
-0.389526	
-0.389099	
-0.389099	
-0.389526	
-0.389526	
-0.388428	
-0.389343	
-0.390259	
-0.391724	
-0.390442	
-0.389221	
-0.388428	
-0.388916	
-0.388489	
-0.390137	
-0.390564	
-0.390869	
-0.390442	
-0.391113	
-0.391296	
-0.391602	
-0.391541	
-0.391174	
-0.39032	
-0.388916	
-0.391235	
-0.392883	
-0.392273	
-0.391785	
-0.39209	
-0.392395	
-0.392822	
-0.393555	
-0.393555	
-0.393921	
-0.393127	
-0.39209	
-0.393005	
-0.393677	
-0.392578	
-0.392151	
-0.392151	
-0.391113	
-0.390625	
-0.391174	
-0.391785	
-0.39032	
-0.390442	
-0.388977	
-0.389954	
-0.389832	
-0.389954	
-0.389832	
-0.389587	
-0.388245	
-0.388855	
-0.388489	
-0.389771	
-0.388794	
-0.388184	
-0.387573	
-0.387573	
-0.387695	
-0.388733	
-0.388794	
-0.38916	
-0.388367	
-0.388733	
-0.388977	
-0.390442	
-0.389221	
-0.388367	
-0.388123	
-0.386963	
-0.388428	
-0.389465	
-0.388916	
-0.388611	
-0.388245	
-0.388977	
-0.388306	
-0.389954	
-0.389465	
-0.389526	
-0.388611	
-0.387695	
-0.388733	
-0.389221	
-0.389343	
-0.388916	
-0.388977	
-0.388489	
-0.389282	
-0.389038	
-0.390198	
-0.389526	
-0.388367	
-0.386597	
-0.387268	
-0.387024	
-0.38739	
-0.387939	
-0.387817	
-0.38739	
-0.387878	
-0.386902	
-0.387512	
-0.385437	
-0.385742	
-0.385498	
-0.383423	
-0.38446	
-0.385315	
-0.384644	
-0.384949	
-0.383789	
-0.384277	
-0.383972	
-0.385803	
-0.384583	
-0.384338	
-0.38385	
-0.383118	
-0.384399	
-0.38562	
-0.385071	
	
