E:\DOCUMENTS AND SETTINGS\JPOTAS\MEUS DOCUMENTOS\UFRJ\RSCI-BM 12 WK SERIES\070730-RSCI-BM-09\RSCI-BM-09-REMG\070730-RSCI-BM-09-REMG-0001.ACQ
0.025000 msec/sample
1 channel
Analog input
Volts
CH1	
2000	
-0.398132	
-0.397766	
-0.397644	
-0.398071	
-0.397949	
-0.396973	
-0.396729	
-0.397461	
-0.398376	
-0.397278	
-0.398193	
-0.39801	
-0.39856	
-0.399292	
-0.400208	
-0.401245	
-0.401306	
-0.400696	
-0.401855	
-0.402649	
-0.402466	
-0.402527	
-0.403137	
-0.402222	
-0.403381	
-0.404053	
-0.404602	
-0.404358	
-0.403503	
-0.403809	
-0.403748	
-0.404236	
-0.403503	
-0.402466	
-0.403809	
-0.403015	
-0.404297	
-0.404175	
-0.405396	
-0.404114	
-0.403748	
-0.403809	
-0.402771	
-0.403992	
-0.403687	
-0.404236	
-0.403931	
-0.403687	
-0.403931	
-0.404663	
-0.404419	
-0.404236	
-0.403809	
-0.403564	
-0.403198	
-0.404602	
-0.403809	
-0.403992	
-0.403809	
-0.403137	
-0.403442	
-0.40332	
-0.403992	
-0.402954	
-0.403076	
-0.401917	
-0.401672	
-0.402893	
-0.402466	
-0.402466	
-0.402161	
-0.402039	
-0.402649	
-0.403137	
-0.403259	
-0.40271	
-0.403015	
-0.400879	
-0.401672	
-0.403931	
-0.402039	
-0.403503	
-0.403564	
-0.403625	
-0.404419	
-0.40448	
-0.405945	
-0.404907	
-0.40509	
-0.403992	
-0.405334	
-0.405823	
-0.404297	
-0.40564	
-0.405518	
-0.405884	
-0.405884	
-0.406921	
-0.40741	
-0.406433	
-0.406677	
-0.404846	
-0.406616	
-0.406982	
-0.406067	
-0.406189	
-0.405701	
-0.405701	
-0.406128	
-0.40625	
-0.407715	
-0.406006	
-0.406921	
-0.405212	
-0.40625	
-0.406372	
-0.405212	
-0.40625	
-0.40564	
-0.405884	
-0.406311	
-0.406311	
-0.406799	
-0.406189	
-0.40686	
-0.403809	
-0.406128	
-0.406616	
-0.406006	
-0.405823	
-0.405518	
-0.405212	
-0.405273	
-0.405762	
-0.406128	
-0.404541	
-0.404846	
-0.402222	
-0.403076	
-0.403015	
-0.402161	
-0.401428	
-0.40094	
-0.400574	
-0.400635	
-0.401367	
-0.400635	
-0.399719	
-0.399658	
-0.398193	
-0.399597	
-0.400024	
-0.399597	
-0.399963	
-0.399597	
-0.399963	
-0.400452	
-0.402039	
-0.401672	
-0.401184	
-0.401062	
-0.400574	
-0.401001	
-0.402527	
-0.402405	
-0.402588	
-0.402527	
-0.403137	
-0.403625	
-0.40509	
-0.404297	
-0.403992	
-0.403992	
-0.402954	
-0.404358	
-0.405334	
-0.405396	
-0.405579	
-0.405396	
-0.405823	
-0.406433	
-0.407227	
-0.406555	
-0.406372	
-0.406128	
-0.404907	
-0.406616	
-0.406433	
-0.406616	
-0.406677	
-0.406616	
-0.406921	
-0.407104	
-0.408508	
-0.407593	
-0.406799	
-0.406311	
-0.404663	
-0.413879	
-0.406555	
-0.406799	
-0.406006	
-0.405212	
-0.405457	
-0.405334	
-0.40686	
-0.405273	
-0.404663	
-0.403564	
-0.403625	
-0.404419	
-0.404297	
-0.403992	
-0.404236	
-0.403992	
-0.404053	
-0.404114	
-0.405151	
-0.404053	
-0.404114	
-0.402893	
-0.402222	
-0.40332	
-0.40332	
-0.403381	
-0.403015	
-0.401733	
-0.40332	
-0.403625	
-0.404175	
-0.403442	
-0.404297	
-0.402649	
-0.403015	
-0.404053	
-0.404053	
-0.404419	
-0.403992	
-0.40271	
-0.404297	
-0.40509	
-0.405579	
-0.40509	
-0.40564	
-0.404297	
-0.404541	
-0.405273	
-0.404968	
-0.404907	
-0.404602	
-0.40387	
-0.404541	
-0.405029	
-0.405273	
-0.404968	
-0.404724	
-0.402222	
-0.403198	
-0.40448	
-0.404663	
-0.40448	
-0.404785	
-0.403809	
-0.404846	
-0.405457	
-0.405518	
-0.404907	
-0.404602	
-0.403748	
-0.404785	
-0.404175	
-0.404968	
-0.405212	
-0.404785	
-0.404419	
-0.405273	
-0.406189	
-0.405945	
-0.405884	
-0.405151	
-0.403625	
-0.403931	
-0.404175	
-0.404114	
-0.403503	
-0.403198	
-0.401184	
-0.401917	
-0.402527	
-0.4021	
-0.401367	
-0.399902	
-0.399475	
-0.400208	
-0.400513	
-0.400757	
-0.401367	
-0.402039	
-0.402222	
-0.403442	
-0.404846	
-0.405457	
-0.405945	
-0.405823	
-0.405884	
-0.407654	
-0.409485	
-0.409424	
-0.410583	
-0.411865	
-0.412354	
-0.414368	
-0.416382	
-0.417053	
-0.417297	
-0.416626	
-0.418457	
-0.418335	
-0.420044	
-0.419373	
-0.419556	
-0.419617	
-0.419373	
-0.420471	
-0.420532	
-0.419861	
-0.418884	
-0.418335	
-0.418823	
-0.419556	
-0.419189	
-0.419067	
-0.418518	
-0.418213	
-0.419128	
-0.420654	
-0.420471	
-0.420349	
-0.41925	
-0.4198	
-0.419861	
-0.421204	
-0.421143	
-0.42218	
-0.421936	
-0.421021	
-0.422607	
-0.422302	
-0.42218	
-0.421021	
-0.41864	
-0.4198	
-0.419495	
-0.420166	
-0.419006	
-0.418945	
-0.417786	
-0.417603	
-0.418152	
-0.416748	
-0.416321	
-0.414978	
-0.412659	
-0.412231	
-0.411987	
-0.412781	
-0.411621	
-0.411865	
-0.411682	
-0.411804	
-0.41394	
-0.412659	
-0.413391	
-0.412903	
-0.41333	
-0.412292	
-0.413391	
-0.41333	
-0.412109	
-0.411194	
-0.409973	
-0.409546	
-0.408386	
-0.407715	
-0.406128	
-0.402893	
-0.402161	
-0.400024	
-0.398743	
-0.395874	
-0.39386	
-0.391602	
-0.389099	
-0.388	
-0.386108	
-0.384216	
-0.382019	
-0.37738	
-0.37616	
-0.373047	
-0.37146	
-0.368835	
-0.366516	
-0.362854	
-0.358643	
-0.357483	
-0.353027	
-0.350708	
-0.346497	
-0.343079	
-0.34082	
-0.337402	
-0.337097	
-0.334534	
-0.332825	
-0.330811	
-0.329834	
-0.328979	
-0.327881	
-0.327454	
-0.325256	
-0.324524	
-0.324707	
-0.325134	
-0.32489	
-0.324402	
-0.323914	
-0.324219	
-0.325134	
-0.324951	
-0.325256	
-0.324646	
-0.323669	
-0.324829	
-0.326416	
-0.327393	
-0.328003	
-0.328674	
-0.329041	
-0.33136	
-0.33252	
-0.334167	
-0.334595	
-0.333313	
-0.33667	
-0.33728	
-0.340149	
-0.341064	
-0.342529	
-0.343262	
-0.345398	
-0.346497	
-0.3479	
-0.349304	
-0.348572	
-0.35083	
-0.351685	
-0.353821	
-0.354187	
-0.355042	
-0.355957	
-0.356934	
-0.359253	
-0.359436	
-0.359863	
-0.360046	
-0.361633	
-0.362	
-0.364014	
-0.365295	
-0.366699	
-0.367737	
-0.369324	
-0.371948	
-0.372253	
-0.37323	
-0.373901	
-0.37323	
-0.374146	
-0.376343	
-0.376831	
-0.37738	
-0.37738	
-0.377502	
-0.378845	
-0.380371	
-0.381042	
-0.379395	
-0.378418	
-0.379578	
-0.379333	
-0.380371	
-0.379456	
-0.379517	
-0.379089	
-0.379333	
-0.380676	
-0.379395	
-0.379333	
-0.378357	
-0.378662	
-0.377075	
-0.378601	
-0.378906	
-0.378723	
-0.37854	
-0.378235	
-0.379578	
-0.378601	
-0.380005	
-0.378235	
-0.376953	
-0.378418	
-0.378723	
-0.379578	
-0.379028	
-0.379089	
-0.379395	
-0.379272	
-0.380615	
-0.379944	
-0.38092	
-0.379517	
-0.379456	
-0.379883	
-0.380493	
-0.381409	
-0.38092	
-0.381348	
-0.381531	
-0.382324	
-0.38269	
-0.382263	
-0.38208	
-0.380493	
-0.382202	
-0.380859	
-0.382996	
-0.382935	
-0.382935	
-0.38324	
-0.382813	
-0.385498	
-0.384827	
-0.38446	
-0.383667	
-0.384277	
-0.38324	
-0.385376	
-0.385559	
-0.385864	
-0.386597	
-0.385925	
-0.388611	
-0.38855	
-0.387817	
-0.388184	
-0.387756	
-0.388123	
-0.389709	
-0.389832	
-0.390137	
-0.390076	
-0.389404	
-0.390686	
-0.3927	
-0.390991	
-0.390869	
-0.389954	
-0.391296	
-0.391113	
-0.390747	
-0.390808	
-0.391113	
-0.390381	
-0.39093	
-0.391907	
-0.390564	
-0.390259	
-0.388916	
-0.389282	
-0.391174	
-0.391724	
-0.391541	
-0.391296	
-0.391724	
-0.391663	
-0.393311	
-0.392395	
-0.391296	
-0.39032	
-0.390442	
-0.391968	
-0.391724	
-0.391296	
-0.391235	
-0.391235	
-0.39093	
-0.393066	
-0.392212	
-0.391418	
-0.391174	
-0.391052	
-0.390625	
-0.391724	
-0.391296	
-0.391846	
-0.391663	
-0.390808	
-0.392395	
-0.392395	
-0.392273	
-0.392639	
-0.391602	
-0.391785	
-0.394226	
-0.395081	
-0.394531	
-0.395203	
-0.395081	
-0.395996	
-0.397888	
-0.397827	
-0.396606	
-0.396484	
-0.396729	
-0.39801	
-0.398376	
-0.398438	
-0.398926	
-0.398621	
-0.3974	
-0.399536	
-0.399414	
-0.398865	
-0.397888	
-0.397278	
-0.397644	
-0.398743	
-0.399536	
-0.398376	
-0.398315	
-0.397827	
-0.398682	
-0.398865	
-0.397827	
-0.396729	
-0.396362	
-0.395325	
-0.396729	
-0.396606	
-0.395752	
-0.395447	
-0.394958	
-0.394958	
-0.395081	
-0.395386	
-0.39325	
-0.392456	
-0.391174	
-0.391785	
-0.391541	
-0.39093	
-0.39032	
-0.389771	
-0.390259	
-0.390991	
-0.391602	
-0.390015	
-0.389221	
-0.38916	
-0.389587	
-0.390381	
-0.390625	
-0.390137	
-0.39032	
-0.390503	
-0.391968	
-0.393005	
-0.392029	
-0.392029	
-0.392395	
-0.393677	
-0.394348	
-0.396057	
-0.395874	
-0.396545	
-0.396606	
-0.396301	
-0.398315	
-0.396973	
-0.397766	
-0.396301	
-0.397461	
-0.396667	
-0.398315	
-0.398254	
-0.398193	
-0.398438	
-0.397278	
-0.399536	
-0.399658	
-0.398804	
-0.398438	
-0.398193	
-0.398987	
-0.399292	
-0.399353	
-0.39917	
-0.399048	
-0.398132	
-0.399231	
-0.400574	
-0.399597	
-0.398926	
-0.39801	
-0.399597	
-0.399109	
-0.401062	
-0.400024	
-0.399902	
-0.399475	
-0.399963	
-0.401123	
-0.399719	
-0.400574	
-0.39917	
-0.39801	
-0.398438	
-0.39917	
-0.399353	
-0.398071	
-0.397949	
-0.397888	
-0.399231	
-0.398926	
-0.398804	
-0.397705	
-0.397156	
-0.398315	
-0.39856	
-0.399292	
-0.398743	
-0.398804	
-0.398987	
-0.399719	
-0.40094	
-0.39978	
-0.399536	
-0.399536	
-0.399658	
-0.400452	
-0.400574	
-0.40094	
-0.40094	
-0.401123	
-0.40094	
-0.402222	
-0.402832	
-0.40332	
-0.402344	
-0.400208	
-0.402588	
-0.402954	
-0.402832	
-0.403564	
-0.403381	
-0.403259	
-0.402283	
-0.405029	
-0.403137	
-0.403076	
-0.402344	
-0.40271	
-0.401978	
-0.403137	
-0.40387	
-0.403076	
-0.402771	
-0.402893	
-0.403931	
-0.40387	
-0.404053	
-0.403259	
-0.400818	
-0.403076	
-0.403503	
-0.403931	
-0.403625	
-0.403564	
-0.403442	
-0.403503	
-0.405212	
-0.403992	
-0.403259	
-0.402588	
-0.402344	
-0.402344	
-0.402954	
-0.403503	
-0.402466	
-0.402161	
-0.401978	
-0.401978	
-0.401978	
-0.401245	
-0.399902	
-0.397644	
-0.398499	
-0.398254	
-0.39801	
-0.397583	
-0.3974	
-0.397095	
-0.396118	
-0.398682	
-0.397217	
-0.397034	
-0.396912	
-0.396851	
-0.395996	
-0.398132	
-0.39856	
-0.397644	
-0.397705	
-0.398315	
-0.398865	
-0.399841	
-0.400146	
-0.399536	
-0.39856	
-0.399597	
-0.400391	
-0.400696	
-0.401001	
-0.400879	
-0.401184	
-0.400452	
-0.402954	
-0.402405	
-0.403198	
-0.402405	
-0.401611	
-0.402649	
-0.40332	
-0.404175	
-0.403809	
-0.403687	
-0.403748	
-0.404663	
-0.405457	
-0.404297	
-0.404419	
-0.402649	
-0.404846	
-0.404175	
-0.405396	
-0.405029	
-0.405151	
-0.40509	
-0.404236	
-0.405823	
-0.406006	
-0.405762	
-0.404907	
-0.402161	
-0.404541	
-0.404541	
-0.405457	
-0.404602	
-0.404419	
-0.404419	
-0.403931	
-0.405823	
-0.403076	
-0.404053	
-0.40271	
-0.402893	
-0.402405	
-0.402588	
-0.403503	
-0.40271	
-0.403015	
-0.402588	
-0.403076	
-0.403259	
-0.403198	
-0.402344	
-0.399841	
-0.402161	
-0.401917	
-0.402771	
-0.402161	
-0.402466	
-0.402466	
-0.40271	
-0.404236	
-0.403076	
-0.40387	
-0.402832	
-0.40155	
-0.402588	
-0.40332	
-0.403259	
-0.402771	
-0.402771	
-0.402771	
-0.404053	
-0.405273	
-0.404114	
-0.404419	
-0.402344	
-0.40387	
-0.403687	
-0.404541	
-0.403992	
-0.40387	
-0.403748	
-0.402649	
-0.404907	
-0.404419	
-0.404236	
-0.40332	
-0.402832	
-0.403625	
-0.403564	
-0.404114	
-0.403198	
-0.40387	
-0.40332	
-0.40387	
-0.404602	
-0.403748	
-0.403503	
-0.402954	
-0.403015	
-0.403137	
-0.404419	
-0.404236	
-0.403931	
-0.403809	
-0.403503	
-0.404297	
-0.404602	
-0.403625	
-0.403137	
-0.4021	
-0.402893	
-0.401184	
-0.402283	
-0.402161	
-0.401855	
-0.40155	
-0.400879	
-0.402405	
-0.401306	
-0.401367	
-0.399231	
-0.400208	
-0.400085	
-0.400391	
-0.401184	
-0.400146	
-0.400024	
-0.40033	
-0.401794	
-0.401123	
-0.400757	
-0.401489	
-0.400024	
-0.400757	
-0.401001	
-0.401733	
-0.401917	
-0.401794	
-0.402161	
-0.402283	
-0.404114	
-0.40332	
-0.403748	
-0.403381	
-0.40332	
-0.404602	
-0.404358	
-0.40564	
-0.405212	
-0.405457	
-0.405945	
-0.40564	
-0.407043	
-0.407349	
-0.408203	
-0.407043	
-0.40802	
-0.409241	
-0.410217	
-0.411255	
-0.410706	
-0.410645	
-0.411194	
-0.412354	
-0.412048	
-0.411499	
-0.411438	
-0.410156	
-0.411316	
-0.411011	
-0.411438	
-0.412109	
-0.411316	
-0.410889	
-0.410828	
-0.411987	
-0.410156	
-0.40979	
-0.408264	
-0.406616	
-0.40686	
-0.406799	
-0.406616	
-0.406128	
-0.405579	
-0.405518	
-0.405579	
-0.405701	
-0.405334	
-0.405334	
-0.404358	
-0.403809	
-0.404785	
-0.404785	
-0.40509	
-0.404846	
-0.405151	
-0.405212	
-0.404785	
-0.406006	
-0.405029	
-0.405273	
-0.402893	
-0.405029	
-0.404419	
-0.404541	
-0.404785	
-0.404419	
-0.404602	
-0.404602	
-0.406433	
-0.404846	
-0.404907	
-0.40448	
-0.405029	
-0.405518	
-0.404907	
-0.405334	
-0.405884	
-0.405273	
-0.405273	
-0.405457	
-0.406616	
-0.405762	
-0.406799	
-0.40448	
-0.406067	
-0.406128	
-0.406006	
-0.406616	
-0.407043	
-0.406616	
-0.407043	
-0.407104	
-0.406921	
-0.406555	
-0.407471	
-0.40387	
-0.407043	
-0.406738	
-0.40686	
-0.406799	
-0.406921	
-0.406799	
-0.406982	
-0.40802	
-0.405579	
-0.405334	
-0.404419	
-0.40509	
-0.404907	
-0.404175	
-0.404663	
-0.404541	
-0.404541	
-0.404297	
-0.40448	
-0.40448	
-0.403687	
-0.404236	
-0.4021	
-0.403442	
-0.403503	
-0.402161	
-0.402771	
-0.403625	
-0.403442	
-0.403748	
-0.404724	
-0.403198	
-0.403442	
-0.404907	
-0.402283	
-0.404419	
-0.403748	
-0.404175	
-0.404053	
-0.404785	
-0.404053	
-0.404358	
-0.405762	
-0.403809	
-0.403931	
-0.402893	
-0.403564	
-0.403809	
-0.402893	
-0.40387	
-0.40387	
-0.404663	
-0.403992	
-0.404236	
-0.404785	
-0.404175	
-0.404297	
-0.403137	
-0.404968	
-0.404785	
-0.404236	
-0.405762	
-0.406738	
-0.406982	
-0.407471	
-0.408752	
-0.408081	
-0.408936	
-0.409729	
-0.407715	
-0.40979	
-0.409607	
-0.410034	
-0.410706	
-0.4104	
-0.4104	
-0.410645	
-0.411987	
-0.409546	
-0.410034	
-0.409302	
-0.408691	
-0.409363	
-0.408752	
-0.408936	
-0.409058	
-0.40918	
-0.408325	
-0.408081	
-0.40918	
-0.407104	
-0.407288	
-0.405518	
-0.406677	
-0.406311	
-0.405579	
-0.406372	
-0.40625	
-0.406921	
-0.406189	
-0.406372	
-0.405151	
-0.404846	
-0.404663	
-0.402527	
-0.403503	
-0.403809	
-0.403564	
-0.403381	
-0.403809	
-0.403931	
-0.40332	
-0.403503	
-0.402405	
-0.402771	
-0.402039	
-0.400635	
-0.402649	
-0.402283	
-0.402771	
-0.403381	
-0.40332	
-0.403503	
-0.404175	
-0.404175	
-0.402161	
-0.403381	
-0.403809	
-0.404114	
-0.404053	
-0.403809	
-0.404724	
-0.405457	
-0.405579	
-0.406067	
-0.406677	
-0.406372	
-0.404907	
-0.40564	
-0.404907	
-0.40564	
-0.405701	
-0.406372	
-0.406616	
-0.406433	
-0.40686	
-0.407227	
-0.407043	
-0.407593	
-0.406494	
-0.407227	
-0.405396	
-0.406189	
-0.406433	
-0.406738	
-0.406616	
-0.40686	
-0.407715	
-0.407166	
-0.407654	
-0.407104	
-0.40686	
-0.406189	
-0.404907	
-0.406189	
-0.405273	
-0.40564	
-0.405273	
-0.405212	
-0.406189	
-0.405334	
-0.406006	
-0.404785	
-0.405212	
-0.404724	
-0.403931	
-0.405334	
-0.405334	
-0.405823	
-0.405762	
-0.405884	
-0.40625	
-0.405945	
-0.406311	
-0.404114	
-0.406189	
-0.404541	
-0.405518	
-0.40564	
-0.405396	
-0.405518	
-0.405273	
-0.406189	
-0.406006	
-0.405701	
-0.405579	
-0.404175	
-0.405273	
-0.404907	
-0.405212	
-0.404541	
-0.405579	
-0.405334	
-0.406006	
-0.407471	
-0.406982	
-0.407532	
-0.407227	
-0.407288	
-0.407532	
-0.407104	
-0.408203	
-0.408142	
-0.408691	
-0.408813	
-0.40918	
-0.410706	
-0.409424	
-0.410156	
-0.409424	
-0.409912	
-0.409485	
-0.40863	
-0.40918	
-0.408508	
-0.409424	
-0.409058	
-0.408875	
-0.410156	
-0.408997	
-0.409119	
-0.407104	
-0.408386	
-0.407654	
-0.406738	
-0.406982	
-0.406677	
-0.406616	
-0.406555	
-0.406677	
-0.406128	
-0.405823	
-0.405945	
-0.404053	
-0.404907	
-0.403015	
-0.403687	
-0.403076	
-0.402832	
-0.402588	
-0.401978	
-0.4021	
-0.400818	
-0.401123	
-0.400085	
-0.397827	
-0.399353	
-0.398315	
-0.398865	
-0.398621	
-0.399048	
-0.398682	
-0.398621	
-0.400818	
-0.399292	
-0.39917	
-0.398376	
-0.39978	
-0.399597	
-0.398499	
-0.399841	
-0.399597	
-0.40094	
-0.401855	
-0.402649	
-0.403503	
-0.403687	
-0.404114	
-0.403015	
-0.404419	
-0.403198	
-0.404541	
-0.404541	
-0.404968	
-0.405212	
-0.405457	
-0.405457	
-0.405823	
-0.405945	
-0.40625	
-0.404602	
-0.40625	
-0.404968	
-0.405701	
-0.405029	
-0.40564	
-0.405579	
-0.405884	
-0.406616	
-0.405212	
-0.406067	
-0.406128	
-0.404846	
-0.40625	
-0.404541	
-0.405518	
-0.405334	
-0.40564	
-0.405884	
-0.406189	
-0.406494	
-0.405762	
-0.406372	
-0.405151	
-0.404602	
-0.404724	
-0.405212	
-0.405457	
-0.404114	
-0.404541	
-0.404541	
-0.40448	
-0.40509	
-0.404724	
-0.404541	
-0.403015	
-0.404419	
-0.402893	
-0.403259	
-0.404053	
-0.403015	
-0.404358	
-0.403931	
-0.405334	
-0.405273	
-0.404907	
-0.405212	
-0.404663	
-0.404907	
-0.403625	
-0.404907	
-0.405151	
-0.405334	
-0.405701	
-0.406311	
-0.40741	
-0.406738	
-0.407227	
-0.407104	
-0.406372	
-0.40686	
-0.406738	
-0.407288	
-0.407104	
-0.407654	
-0.407715	
-0.408264	
-0.408447	
-0.40802	
-0.40863	
-0.407654	
-0.408081	
-0.407654	
-0.407654	
-0.408142	
-0.40686	
-0.407471	
-0.407593	
-0.407776	
-0.408875	
-0.407898	
-0.407837	
-0.407227	
-0.407471	
-0.406677	
-0.406372	
-0.407898	
-0.406555	
-0.407837	
-0.407715	
-0.408203	
-0.408691	
-0.408447	
-0.407898	
-0.406555	
-0.407715	
-0.407166	
-0.406494	
-0.407288	
-0.406067	
-0.406982	
-0.406921	
-0.40741	
-0.40686	
-0.406738	
-0.406189	
-0.404785	
-0.404663	
-0.403564	
-0.403137	
-0.402588	
-0.402649	
-0.4021	
-0.401855	
-0.402405	
-0.402161	
-0.401367	
-0.401428	
-0.400452	
-0.401123	
-0.400757	
-0.401184	
-0.401306	
-0.401367	
-0.401245	
-0.401672	
-0.403687	
-0.40271	
-0.402588	
-0.401917	
-0.402832	
-0.403198	
-0.40271	
-0.403992	
-0.40332	
-0.403992	
-0.404907	
-0.404846	
-0.40625	
-0.406189	
-0.406372	
-0.405518	
-0.40509	
-0.405762	
-0.406433	
-0.406616	
-0.406128	
-0.406677	
-0.407715	
-0.407471	
-0.408142	
-0.407654	
-0.408508	
-0.406311	
-0.407104	
-0.408264	
-0.408203	
-0.408691	
-0.407715	
-0.408447	
-0.408447	
-0.409302	
-0.409058	
-0.408142	
-0.408691	
-0.407898	
-0.407227	
-0.407654	
-0.407776	
-0.407898	
-0.407166	
-0.407654	
-0.407288	
-0.408386	
-0.407654	
-0.406738	
-0.405945	
-0.405273	
-0.406616	
-0.405273	
-0.405457	
-0.405396	
-0.404541	
-0.405579	
-0.405823	
-0.406555	
-0.406677	
-0.405518	
-0.404236	
-0.405151	
-0.406006	
-0.40509	
-0.404968	
-0.40448	
-0.404785	
-0.405151	
-0.405823	
-0.406372	
-0.406006	
-0.406189	
-0.405273	
-0.405334	
-0.405945	
-0.405518	
-0.406189	
-0.405396	
-0.405334	
-0.406128	
-0.406494	
-0.407471	
-0.406799	
-0.406921	
-0.407043	
-0.40625	
-0.406921	
-0.406921	
-0.406494	
-0.406006	
-0.406616	
-0.406555	
-0.407227	
-0.407227	
-0.406616	
-0.405579	
-0.406006	
-0.405579	
-0.405945	
-0.406494	
-0.406555	
-0.405823	
-0.406433	
-0.406555	
-0.407471	
-0.407898	
-0.40741	
-0.406799	
-0.405518	
-0.406616	
-0.406738	
-0.406921	
-0.406494	
-0.406311	
-0.407043	
-0.406921	
-0.407715	
-0.407227	
-0.407471	
-0.405396	
-0.404968	
-0.406067	
-0.405579	
-0.405029	
-0.404602	
-0.404175	
-0.404236	
-0.404358	
-0.405273	
-0.404053	
-0.403259	
-0.402588	
-0.401184	
-0.401672	
-0.402161	
-0.402588	
-0.402466	
-0.40155	
-0.402832	
-0.402832	
-0.404419	
-0.40332	
-0.403259	
-0.402039	
-0.403625	
-0.403076	
-0.404175	
-0.403992	
-0.403992	
-0.404419	
-0.404602	
-0.40564	
-0.407166	
-0.406738	
-0.405823	
-0.405212	
-0.405823	
-0.406982	
-0.407593	
-0.407166	
-0.406738	
-0.408569	
-0.408264	
-0.409363	
-0.410767	
-0.410522	
-0.409729	
-0.410461	
-0.411926	
-0.41217	
-0.412415	
-0.412598	
-0.412048	
-0.413269	
-0.413086	
-0.414734	
-0.414063	
-0.414063	
-0.412903	
-0.41217	
-0.414795	
-0.413269	
-0.413513	
-0.413452	
-0.413147	
-0.412659	
-0.412415	
-0.413635	
-0.412659	
-0.409912	
-0.409058	
-0.407837	
-0.40863	
-0.407837	
-0.407654	
-0.407532	
-0.407593	
-0.407837	
-0.407166	
-0.408569	
-0.407166	
-0.406555	
-0.406372	
-0.406006	
-0.406189	
-0.40686	
-0.406921	
-0.406433	
-0.406738	
-0.406982	
-0.407166	
-0.408264	
-0.407043	
-0.406189	
-0.406189	
-0.405823	
-0.407166	
-0.406799	
-0.406921	
-0.406494	
-0.40686	
-0.40686	
-0.407166	
-0.407837	
-0.407837	
-0.407043	
-0.404907	
-0.40741	
-0.407593	
-0.407593	
-0.407227	
-0.406189	
-0.407349	
-0.408203	
-0.408813	
-0.40918	
-0.408813	
-0.407776	
-0.407104	
-0.408447	
-0.408447	
-0.408997	
-0.408203	
-0.407288	
-0.408691	
-0.408691	
-0.409851	
-0.409973	
-0.408752	
-0.408203	
-0.408264	
-0.408142	
-0.408386	
-0.407837	
-0.408081	
-0.406799	
-0.407593	
-0.407471	
-0.408325	
-0.407776	
-0.406433	
-0.404541	
-0.40625	
-0.406006	
-0.406128	
-0.405701	
-0.405579	
-0.405273	
-0.405273	
-0.406006	
-0.405823	
-0.406494	
-0.404297	
-0.404236	
-0.404297	
-0.405518	
-0.404663	
-0.404419	
-0.404785	
-0.404602	
-0.40509	
-0.406372	
-0.405762	
-0.405334	
-0.404602	
-0.404358	
-0.403687	
-0.405396	
-0.404724	
-0.405273	
-0.404663	
-0.404968	
-0.40509	
-0.405151	
-0.40564	
-0.405029	
-0.403625	
-0.404114	
-0.402954	
-0.404968	
-0.40448	
-0.404724	
-0.404419	
-0.405273	
-0.405273	
-0.405701	
-0.407227	
-0.405762	
-0.405151	
-0.404663	
-0.406738	
-0.407654	
-0.407959	
-0.408264	
-0.408569	
-0.409241	
-0.410339	
-0.410583	
-0.412292	
-0.41095	
-0.411255	
-0.410461	
-0.411255	
-0.411438	
-0.411438	
-0.410889	
-0.411133	
-0.411133	
-0.411682	
-0.411255	
-0.411987	
-0.410095	
-0.409851	
-0.408752	
-0.410583	
-0.409302	
-0.409058	
-0.408936	
-0.408569	
-0.408386	
-0.409119	
-0.408691	
-0.40863	
-0.407227	
-0.407043	
-0.406494	
-0.406921	
-0.406433	
-0.406067	
-0.404846	
-0.405457	
-0.405762	
-0.405457	
-0.405579	
-0.405823	
-0.403625	
-0.404175	
-0.40271	
-0.404236	
-0.404053	
-0.403625	
-0.402954	
-0.403809	
-0.404175	
-0.403625	
-0.404358	
-0.403748	
-0.403015	
-0.403442	
-0.402893	
-0.404724	
-0.404236	
-0.404419	
-0.404724	
-0.405396	
-0.405762	
-0.40509	
-0.405762	
-0.405151	
-0.406067	
-0.405579	
-0.403809	
-0.406616	
-0.406311	
-0.406067	
-0.406982	
-0.406799	
-0.407715	
-0.407166	
-0.408569	
-0.406982	
-0.406921	
-0.407104	
-0.405701	
-0.407349	
-0.407349	
-0.407166	
-0.407654	
-0.407532	
-0.408508	
-0.407654	
-0.409302	
-0.407043	
-0.407654	
-0.407349	
-0.406128	
-0.407043	
-0.407288	
-0.406738	
-0.40741	
-0.407227	
-0.407104	
-0.407227	
-0.409119	
-0.405823	
-0.406555	
-0.406006	
-0.405029	
-0.405884	
-0.406006	
-0.405151	
-0.406128	
-0.406616	
-0.406372	
-0.406372	
-0.407898	
-0.405579	
-0.406433	
-0.406128	
-0.405579	
-0.406494	
-0.405945	
-0.406067	
-0.40625	
-0.407104	
-0.406311	
-0.406311	
-0.407715	
-0.405884	
-0.406067	
-0.405823	
-0.405884	
-0.406067	
-0.406128	
-0.406189	
-0.405884	
-0.406494	
-0.405823	
-0.406433	
-0.407837	
-0.406006	
-0.406006	
-0.406311	
-0.406738	
-0.407166	
-0.406921	
-0.407959	
-0.408081	
-0.40863	
-0.408325	
-0.409241	
-0.40979	
-0.408752	
-0.409302	
-0.408325	
-0.409668	
-0.409668	
-0.409485	
-0.4104	
-0.410339	
-0.409973	
-0.410278	
-0.410217	
-0.409607	
-0.409424	
-0.409729	
-0.407959	
-0.409363	
-0.408997	
-0.408447	
-0.408508	
-0.408997	
-0.408203	
-0.408264	
-0.408264	
-0.407532	
-0.407227	
-0.407288	
-0.404236	
-0.406372	
-0.406128	
-0.405029	
-0.405212	
-0.405151	
-0.404724	
-0.404419	
-0.405273	
-0.402344	
-0.40271	
-0.4021	
-0.399597	
-0.401184	
-0.400452	
-0.399109	
-0.400208	
-0.400085	
-0.39978	
	
