E:\DOCUMENTS AND SETTINGS\JPOTAS\MEUS DOCUMENTOS\UFRJ\RSCI-BM 12 WK SERIES\070730-RSCI-BM-09\RSCI-BM-09-REMG\070730-RSCI-BM-09-REMG-0004.ACQ
0.025000 msec/sample
1 channel
Analog input
Volts
CH1	
2000	
-0.405334	
-0.406067	
-0.405579	
-0.405334	
-0.404663	
-0.404968	
-0.406311	
-0.404358	
-0.404053	
-0.402649	
-0.401489	
-0.401978	
-0.401917	
-0.40094	
-0.400024	
-0.399536	
-0.400146	
-0.399353	
-0.400085	
-0.398438	
-0.398743	
-0.397278	
-0.396545	
-0.397095	
-0.397888	
-0.397217	
-0.397278	
-0.396118	
-0.397217	
-0.397766	
-0.399658	
-0.398071	
-0.398132	
-0.396729	
-0.397888	
-0.398315	
-0.399109	
-0.398987	
-0.398499	
-0.398804	
-0.399597	
-0.40155	
-0.40094	
-0.401917	
-0.401245	
-0.400574	
-0.402588	
-0.40271	
-0.403015	
-0.402832	
-0.402588	
-0.403564	
-0.403809	
-0.405029	
-0.404297	
-0.404175	
-0.403748	
-0.402527	
-0.403748	
-0.404724	
-0.404114	
-0.404663	
-0.404297	
-0.40509	
-0.405151	
-0.406189	
-0.405151	
-0.404785	
-0.40332	
-0.404724	
-0.404419	
-0.40509	
-0.404846	
-0.404541	
-0.404114	
-0.40448	
-0.405273	
-0.405273	
-0.404297	
-0.403198	
-0.402283	
-0.403503	
-0.404541	
-0.403748	
-0.403931	
-0.403564	
-0.403931	
-0.404236	
-0.404114	
-0.404419	
-0.403748	
-0.402649	
-0.402588	
-0.402954	
-0.404541	
-0.403503	
-0.403259	
-0.403198	
-0.403442	
-0.403748	
-0.404236	
-0.403748	
-0.403687	
-0.403564	
-0.403381	
-0.403259	
-0.404053	
-0.40387	
-0.403992	
-0.403076	
-0.40448	
-0.404785	
-0.406128	
-0.406006	
-0.404175	
-0.405396	
-0.40448	
-0.406799	
-0.405884	
-0.406067	
-0.405945	
-0.406189	
-0.406921	
-0.406494	
-0.407471	
-0.406799	
-0.406006	
-0.405945	
-0.406555	
-0.407898	
-0.40741	
-0.407227	
-0.407043	
-0.407227	
-0.407837	
-0.407532	
-0.408203	
-0.40741	
-0.406738	
-0.405884	
-0.406494	
-0.407593	
-0.407166	
-0.406677	
-0.405884	
-0.40741	
-0.407593	
-0.407471	
-0.407715	
-0.406006	
-0.405945	
-0.405334	
-0.406738	
-0.405762	
-0.405884	
-0.405579	
-0.404175	
-0.405334	
-0.405273	
-0.404968	
-0.403687	
-0.402588	
-0.401672	
-0.401917	
-0.402893	
-0.402161	
-0.401245	
-0.40094	
-0.40155	
-0.401062	
-0.401123	
-0.401367	
-0.400635	
-0.40033	
-0.399963	
-0.399902	
-0.401184	
-0.401184	
-0.401123	
-0.400635	
-0.401489	
-0.40271	
-0.402161	
-0.4021	
-0.402039	
-0.401794	
-0.401184	
-0.403015	
-0.403259	
-0.403564	
-0.403809	
-0.402954	
-0.404419	
-0.405273	
-0.406311	
-0.404846	
-0.404846	
-0.404175	
-0.413269	
-0.416992	
-0.416321	
-0.416321	
-0.416016	
-0.415955	
-0.408508	
-0.407654	
-0.408997	
-0.407104	
-0.40686	
-0.407104	
-0.406555	
-0.407715	
-0.407776	
-0.40802	
-0.407593	
-0.407898	
-0.408264	
-0.408813	
-0.409058	
-0.407349	
-0.406738	
-0.405518	
-0.407471	
-0.406921	
-0.406982	
-0.406372	
-0.404602	
-0.405579	
-0.405762	
-0.406067	
-0.405518	
-0.404907	
-0.405151	
-0.403137	
-0.405945	
-0.404785	
-0.404907	
-0.404175	
-0.41272	
-0.413879	
-0.4151	
-0.415527	
-0.413696	
-0.412476	
-0.404785	
-0.403564	
-0.40332	
-0.403687	
-0.403381	
-0.402283	
-0.403259	
-0.403442	
-0.404541	
-0.404724	
-0.403442	
-0.403076	
-0.40332	
-0.404358	
-0.404236	
-0.403992	
-0.40387	
-0.403809	
-0.404175	
-0.40448	
-0.405029	
-0.405701	
-0.404175	
-0.403137	
-0.403809	
-0.405029	
-0.404541	
-0.404297	
-0.403259	
-0.404358	
-0.404602	
-0.405334	
-0.406616	
-0.404846	
-0.404846	
-0.403992	
-0.405273	
-0.405273	
-0.405151	
-0.405212	
-0.405273	
-0.405334	
-0.405579	
-0.406738	
-0.406006	
-0.40509	
-0.404785	
-0.40332	
-0.40564	
-0.405884	
-0.406677	
-0.406311	
-0.407166	
-0.407898	
-0.409119	
-0.410339	
-0.411133	
-0.410889	
-0.411072	
-0.411377	
-0.413635	
-0.415222	
-0.416199	
-0.415588	
-0.417236	
-0.418945	
-0.420288	
-0.421875	
-0.421875	
-0.423035	
-0.423218	
-0.425903	
-0.426208	
-0.427551	
-0.428101	
-0.429688	
-0.429871	
-0.430847	
-0.432556	
-0.431091	
-0.430725	
-0.429443	
-0.43103	
-0.431274	
-0.432068	
-0.432129	
-0.431641	
-0.433594	
-0.434326	
-0.435425	
-0.435059	
-0.43457	
-0.434509	
-0.435791	
-0.437561	
-0.437561	
-0.438232	
-0.438721	
-0.440002	
-0.441223	
-0.442505	
-0.443726	
-0.443787	
-0.443726	
-0.44397	
-0.445618	
-0.446106	
-0.446106	
-0.446594	
-0.445801	
-0.446716	
-0.447083	
-0.447449	
-0.446411	
-0.44574	
-0.444824	
-0.444885	
-0.444214	
-0.444275	
-0.444336	
-0.443604	
-0.442749	
-0.443726	
-0.44458	
-0.445618	
-0.444763	
-0.444702	
-0.444214	
-0.44574	
-0.446594	
-0.446655	
-0.445984	
-0.445068	
-0.444702	
-0.444397	
-0.444702	
-0.444031	
-0.442139	
-0.440369	
-0.438965	
-0.438416	
-0.437256	
-0.43573	
-0.434204	
-0.432495	
-0.430786	
-0.428772	
-0.427368	
-0.423767	
-0.420471	
-0.417664	
-0.414551	
-0.413086	
-0.410645	
-0.407715	
-0.405457	
-0.402344	
-0.399658	
-0.396667	
-0.394653	
-0.390198	
-0.385864	
-0.380981	
-0.377686	
-0.375549	
-0.372192	
-0.368896	
-0.365295	
-0.363586	
-0.361816	
-0.359924	
-0.358337	
-0.355164	
-0.352539	
-0.349854	
-0.350281	
-0.348816	
-0.347595	
-0.346863	
-0.346191	
-0.345886	
-0.345825	
-0.346436	
-0.344849	
-0.343872	
-0.342346	
-0.343628	
-0.343872	
-0.344055	
-0.343689	
-0.34375	
-0.34491	
-0.346069	
-0.348145	
-0.347534	
-0.348633	
-0.347839	
-0.350281	
-0.351685	
-0.353027	
-0.354492	
-0.355835	
-0.357544	
-0.360413	
-0.36261	
-0.364258	
-0.366821	
-0.368286	
-0.371399	
-0.374695	
-0.377747	
-0.380066	
-0.381653	
-0.384521	
-0.387146	
-0.389343	
-0.391907	
-0.39325	
-0.394165	
-0.3974	
-0.398376	
-0.400452	
-0.402405	
-0.402527	
-0.405029	
-0.406799	
-0.407288	
-0.407715	
-0.407471	
-0.406006	
-0.406128	
-0.404907	
-0.40509	
-0.403625	
-0.401428	
-0.400635	
-0.399597	
-0.398499	
-0.395752	
-0.394104	
-0.391052	
-0.389404	
-0.388123	
-0.385132	
-0.38324	
-0.381531	
-0.380188	
-0.378967	
-0.377869	
-0.376526	
-0.375671	
-0.374146	
-0.371704	
-0.370789	
-0.369446	
-0.368713	
-0.366516	
-0.364197	
-0.363831	
-0.362549	
-0.361511	
-0.359619	
-0.358643	
-0.354553	
-0.355408	
-0.354492	
-0.353699	
-0.352661	
-0.351501	
-0.35144	
-0.351257	
-0.350586	
-0.349365	
-0.348694	
-0.34491	
-0.345642	
-0.343567	
-0.343201	
-0.341248	
-0.339417	
-0.338989	
-0.33844	
-0.338135	
-0.336609	
-0.336426	
-0.333862	
-0.3349	
-0.334351	
-0.334351	
-0.334473	
-0.333862	
-0.335205	
-0.336182	
-0.337952	
-0.338318	
-0.338684	
-0.338562	
-0.3396	
-0.339966	
-0.341736	
-0.343323	
-0.343567	
-0.34552	
-0.346802	
-0.34845	
-0.349792	
-0.351257	
-0.351929	
-0.352173	
-0.35437	
-0.356262	
-0.357178	
-0.358154	
-0.360413	
-0.362305	
-0.364258	
-0.366455	
-0.36792	
-0.368286	
-0.368103	
-0.370544	
-0.371643	
-0.373047	
-0.373596	
-0.375122	
-0.376099	
-0.376892	
-0.379028	
-0.379211	
-0.379822	
-0.378601	
-0.380859	
-0.380859	
-0.382446	
-0.382874	
-0.383179	
-0.384338	
-0.38501	
-0.386658	
-0.38562	
-0.386108	
-0.385254	
-0.385437	
-0.385681	
-0.386292	
-0.386169	
-0.385498	
-0.386658	
-0.386475	
-0.386841	
-0.387329	
-0.386475	
-0.386536	
-0.385742	
-0.387207	
-0.385681	
-0.386597	
-0.386353	
-0.38678	
-0.386536	
-0.38678	
-0.387695	
-0.387634	
-0.388367	
-0.387512	
-0.387878	
-0.387939	
-0.388733	
-0.388672	
-0.388428	
-0.389282	
-0.389709	
-0.391113	
-0.390564	
-0.390564	
-0.390198	
-0.389343	
-0.391724	
-0.391357	
-0.391602	
-0.391724	
-0.392334	
-0.392639	
-0.39325	
-0.394104	
-0.393738	
-0.393494	
-0.392334	
-0.394409	
-0.39447	
-0.394897	
-0.394348	
-0.394348	
-0.39502	
-0.395203	
-0.396301	
-0.396484	
-0.395813	
-0.394531	
-0.396301	
-0.396851	
-0.397095	
-0.396667	
-0.397278	
-0.397705	
-0.397583	
-0.399353	
-0.397461	
-0.397583	
-0.396973	
-0.398376	
-0.398376	
-0.398621	
-0.39801	
-0.398682	
-0.398682	
-0.398804	
-0.401306	
-0.399048	
-0.398865	
-0.398071	
-0.399536	
-0.398682	
-0.398682	
-0.398132	
-0.398621	
-0.39856	
-0.398865	
-0.401062	
-0.398438	
-0.397949	
-0.39679	
-0.398804	
-0.397461	
-0.397034	
-0.396118	
-0.395874	
-0.395508	
-0.395874	
-0.395508	
-0.394226	
-0.393555	
-0.390259	
-0.39447	
-0.392883	
-0.393127	
-0.392944	
-0.392761	
-0.393005	
-0.394165	
-0.392944	
-0.392883	
-0.391907	
-0.392151	
-0.393066	
-0.3927	
-0.393188	
-0.393066	
-0.393066	
-0.39325	
-0.395691	
-0.393616	
-0.393677	
-0.393005	
-0.394104	
-0.395081	
-0.395569	
-0.395752	
-0.395752	
-0.396179	
-0.397339	
-0.399048	
-0.397278	
-0.3974	
-0.396301	
-0.39801	
-0.398193	
-0.398254	
-0.398071	
-0.398376	
-0.39856	
-0.399475	
-0.401245	
-0.398743	
-0.399048	
-0.397339	
-0.398682	
-0.398926	
-0.398499	
-0.398376	
-0.398376	
-0.398071	
-0.398499	
-0.400024	
-0.39801	
-0.397705	
-0.397156	
-0.395569	
-0.396973	
-0.397278	
-0.397156	
-0.396912	
-0.395691	
-0.395752	
-0.396484	
-0.397705	
-0.395508	
-0.395203	
-0.394531	
-0.395508	
-0.395691	
-0.394958	
-0.394653	
-0.394714	
-0.394897	
-0.395264	
-0.396362	
-0.394897	
-0.395081	
-0.394958	
-0.394592	
-0.395874	
-0.396667	
-0.396362	
-0.396301	
-0.395935	
-0.397156	
-0.398621	
-0.398376	
-0.397949	
-0.397949	
-0.397034	
-0.399109	
-0.399475	
-0.399963	
-0.400574	
-0.400024	
-0.401123	
-0.4021	
-0.402588	
-0.401367	
-0.401367	
-0.401855	
-0.400879	
-0.402466	
-0.402405	
-0.403076	
-0.402283	
-0.403564	
-0.404785	
-0.404297	
-0.405151	
-0.404053	
-0.404236	
-0.403564	
-0.405396	
-0.405151	
-0.40509	
-0.40448	
-0.405823	
-0.406494	
-0.406433	
-0.407043	
-0.40564	
-0.405273	
-0.404907	
-0.406433	
-0.405762	
-0.40564	
-0.405212	
-0.40509	
-0.405762	
-0.405212	
-0.405579	
-0.404358	
-0.403992	
-0.403076	
-0.403748	
-0.403687	
-0.403015	
-0.402161	
-0.400696	
-0.401978	
-0.401123	
-0.40094	
-0.400635	
-0.398804	
-0.398071	
-0.398193	
-0.398865	
-0.39856	
-0.398376	
-0.397583	
-0.398987	
-0.399292	
-0.399414	
-0.399658	
-0.398254	
-0.398315	
-0.398438	
-0.399353	
-0.398804	
-0.398926	
-0.398682	
-0.399658	
-0.400574	
-0.400269	
-0.40155	
-0.400085	
-0.400696	
-0.40033	
-0.402161	
-0.401489	
-0.402039	
-0.401611	
-0.402466	
-0.40332	
-0.402405	
-0.404297	
-0.40332	
-0.404358	
-0.404175	
-0.402954	
-0.405029	
-0.405151	
-0.405273	
-0.404846	
-0.40564	
-0.405579	
-0.406433	
-0.407654	
-0.405273	
-0.406189	
-0.405884	
-0.407776	
-0.40625	
-0.406433	
-0.406372	
-0.407043	
-0.407288	
-0.406433	
-0.407532	
-0.405823	
-0.405823	
-0.405884	
-0.404541	
-0.405334	
-0.404968	
-0.40448	
-0.403748	
-0.403625	
-0.403625	
-0.404114	
-0.404053	
-0.402588	
-0.403076	
-0.401184	
-0.403259	
-0.403198	
-0.402832	
-0.401917	
-0.402649	
-0.402954	
-0.403259	
-0.403564	
-0.401428	
-0.402588	
-0.401062	
-0.402588	
-0.401917	
-0.402161	
-0.401855	
-0.402039	
-0.402771	
-0.402466	
-0.403503	
-0.401978	
-0.401794	
-0.401367	
-0.401611	
-0.402954	
-0.40271	
-0.403198	
-0.402161	
-0.403503	
-0.403564	
-0.403625	
-0.404297	
-0.402954	
-0.40332	
-0.403259	
-0.403992	
-0.403381	
-0.40387	
-0.403015	
-0.40387	
-0.404358	
-0.403809	
-0.404968	
-0.403503	
-0.403503	
-0.403015	
-0.403381	
-0.403442	
-0.403687	
-0.403381	
-0.403442	
-0.404541	
-0.404053	
-0.404907	
-0.40448	
-0.403748	
-0.403748	
-0.403748	
-0.403564	
-0.404297	
-0.40387	
-0.402893	
-0.404236	
-0.403809	
-0.40387	
-0.405457	
-0.403687	
-0.403809	
-0.402832	
-0.403687	
-0.403015	
-0.402649	
-0.402283	
-0.402344	
-0.401794	
-0.401428	
-0.401428	
-0.401062	
-0.399963	
-0.400024	
-0.397705	
-0.399353	
-0.399475	
-0.399719	
-0.399902	
-0.39978	
-0.399841	
-0.400024	
-0.401245	
-0.398743	
-0.400208	
-0.398987	
-0.39917	
-0.400146	
-0.40033	
-0.399902	
-0.401001	
-0.401367	
-0.400879	
-0.402649	
-0.401611	
-0.401306	
-0.401428	
-0.402466	
-0.401672	
-0.402832	
-0.402893	
-0.403625	
-0.403992	
-0.404358	
-0.40448	
-0.406433	
-0.405457	
-0.406311	
-0.406128	
-0.407715	
-0.40802	
-0.408997	
-0.408081	
-0.410156	
-0.410034	
-0.409729	
-0.410461	
-0.410522	
-0.409973	
-0.409363	
-0.409912	
-0.410095	
-0.410156	
-0.410217	
-0.410156	
-0.410461	
-0.410034	
-0.410217	
-0.410278	
-0.409607	
-0.409363	
-0.40802	
-0.408752	
-0.408386	
-0.408264	
-0.407166	
-0.407471	
-0.407532	
-0.406494	
-0.406616	
-0.405457	
-0.404663	
-0.404175	
-0.40332	
-0.403503	
-0.404724	
-0.404236	
-0.403687	
-0.403931	
-0.40387	
-0.403625	
-0.403931	
-0.402222	
-0.402893	
-0.401611	
-0.401794	
-0.403015	
-0.403198	
-0.401855	
-0.402893	
-0.403259	
-0.402954	
-0.403809	
-0.403809	
-0.402893	
-0.402527	
-0.402283	
-0.403198	
-0.403381	
-0.40332	
-0.403625	
-0.404419	
-0.404053	
-0.404724	
-0.405029	
-0.40448	
-0.404236	
-0.402832	
-0.403992	
-0.404236	
-0.404236	
-0.403259	
-0.404114	
-0.404297	
-0.403931	
-0.40509	
-0.404968	
-0.404236	
-0.404053	
-0.403687	
-0.404236	
-0.404236	
-0.404297	
-0.404358	
-0.404724	
-0.404419	
-0.404724	
-0.406128	
-0.403442	
-0.404602	
-0.403748	
-0.404053	
-0.404358	
-0.403442	
-0.403381	
-0.403259	
-0.404053	
-0.402893	
-0.403748	
-0.402039	
-0.401428	
-0.401367	
-0.40094	
-0.401733	
-0.401794	
-0.401245	
-0.401367	
-0.401367	
-0.402161	
-0.401123	
-0.401794	
-0.400269	
-0.400269	
-0.399536	
-0.400024	
-0.400513	
-0.400085	
-0.399536	
-0.400452	
-0.400757	
-0.400513	
-0.401184	
-0.40094	
-0.400208	
-0.400269	
-0.399597	
-0.400391	
-0.400635	
-0.399841	
-0.400574	
-0.400879	
-0.401917	
-0.401733	
-0.401855	
-0.401001	
-0.401123	
-0.399963	
-0.401245	
-0.401611	
-0.40155	
-0.401794	
-0.402527	
-0.403442	
-0.403992	
-0.405884	
-0.405273	
-0.404114	
-0.405029	
-0.405396	
-0.405884	
-0.405945	
-0.406067	
-0.406372	
-0.406555	
-0.407715	
-0.406738	
-0.407898	
-0.406494	
-0.406494	
-0.405823	
-0.406677	
-0.406616	
-0.40625	
-0.406616	
-0.406128	
-0.406433	
-0.405762	
-0.406921	
-0.405823	
-0.404175	
-0.404663	
-0.404297	
-0.404419	
-0.404236	
-0.403625	
-0.403687	
-0.403564	
-0.404175	
-0.403564	
-0.403564	
-0.401978	
-0.401428	
-0.401184	
-0.400024	
-0.401062	
-0.399963	
-0.398865	
-0.399902	
-0.400391	
-0.399963	
-0.400208	
-0.400452	
-0.398438	
-0.398438	
-0.398926	
-0.398987	
-0.398743	
-0.398865	
-0.398682	
-0.399109	
-0.400146	
-0.399841	
-0.400696	
-0.399719	
-0.400024	
-0.398987	
-0.399658	
-0.40033	
-0.400879	
-0.399963	
-0.401672	
-0.401855	
-0.401733	
-0.402527	
-0.402527	
-0.401184	
-0.401184	
-0.401794	
-0.4021	
-0.402222	
-0.401855	
-0.401733	
-0.402222	
-0.403137	
-0.403137	
-0.403198	
-0.402832	
-0.402466	
-0.40271	
-0.40271	
-0.402832	
-0.402954	
-0.402466	
-0.403564	
-0.403076	
-0.40332	
-0.403442	
-0.403992	
-0.40271	
-0.402954	
-0.402466	
-0.403259	
-0.40332	
-0.40332	
-0.403076	
-0.403259	
-0.404175	
-0.403503	
-0.404053	
-0.402527	
-0.402161	
-0.402161	
-0.401855	
-0.402405	
-0.40271	
-0.402283	
-0.402466	
-0.402832	
-0.403442	
-0.402649	
-0.403809	
-0.401978	
-0.401306	
-0.402527	
-0.402832	
-0.402588	
-0.402283	
-0.401489	
-0.402405	
-0.402405	
-0.402771	
-0.402893	
-0.401794	
-0.402039	
-0.40094	
-0.401917	
-0.4021	
-0.402344	
-0.402344	
-0.402405	
-0.402771	
-0.403687	
-0.403564	
-0.404175	
-0.402771	
-0.40332	
-0.402405	
-0.403992	
-0.403442	
-0.403442	
-0.403381	
-0.404114	
-0.405029	
-0.406067	
-0.406555	
-0.406677	
-0.405396	
-0.405945	
-0.406372	
-0.406677	
-0.406616	
-0.406555	
-0.406311	
-0.406799	
-0.407837	
-0.407349	
-0.40741	
-0.40625	
-0.406738	
-0.405945	
-0.406616	
-0.406006	
-0.405945	
-0.40509	
-0.405457	
-0.405762	
-0.405823	
-0.406738	
-0.405762	
-0.40332	
-0.403564	
-0.404297	
-0.403687	
-0.403503	
-0.403076	
-0.4021	
-0.402649	
-0.402344	
-0.402588	
-0.401245	
-0.400574	
-0.398499	
-0.398499	
-0.399109	
-0.397949	
-0.39801	
-0.397095	
-0.397217	
-0.396912	
-0.397217	
-0.397034	
-0.39679	
-0.395508	
-0.39624	
-0.395447	
-0.396606	
-0.396179	
-0.396484	
-0.396545	
-0.396912	
-0.397461	
-0.397522	
-0.397705	
-0.397583	
-0.397278	
-0.39624	
-0.397766	
-0.398132	
-0.398376	
-0.397888	
-0.399719	
-0.400696	
-0.401978	
-0.402527	
-0.401794	
-0.401794	
-0.402283	
-0.401672	
-0.401489	
-0.402588	
-0.402283	
-0.402344	
-0.403198	
-0.403748	
-0.403625	
-0.403992	
-0.404602	
-0.403442	
-0.402344	
-0.403748	
-0.403809	
-0.403809	
-0.403259	
-0.403625	
-0.403748	
-0.40448	
-0.40509	
-0.403931	
-0.403442	
-0.404297	
-0.40387	
-0.403137	
-0.403503	
-0.402954	
-0.402954	
-0.403259	
-0.403198	
-0.402649	
-0.403687	
-0.402588	
-0.401245	
-0.402649	
-0.403198	
-0.401733	
-0.403137	
-0.402527	
-0.402954	
-0.402771	
-0.403748	
-0.403015	
-0.403198	
-0.402649	
-0.401611	
-0.402161	
-0.402161	
-0.402161	
-0.402344	
-0.401123	
-0.402771	
-0.403564	
-0.403259	
-0.403076	
-0.402649	
-0.402771	
-0.401794	
-0.403687	
-0.402161	
-0.402771	
-0.403198	
-0.403687	
-0.404602	
-0.404846	
-0.405396	
-0.405457	
-0.404297	
-0.404724	
-0.40509	
-0.405396	
-0.405151	
-0.405212	
-0.405151	
-0.405762	
-0.406128	
-0.406494	
-0.406067	
-0.406677	
-0.405212	
-0.406189	
-0.406067	
-0.405457	
-0.406433	
-0.406006	
-0.406616	
-0.406494	
-0.406677	
-0.407104	
-0.406921	
-0.406067	
-0.405579	
-0.405823	
-0.406128	
-0.404724	
-0.405945	
-0.405029	
-0.406067	
-0.406494	
-0.406006	
-0.405884	
-0.406006	
-0.405823	
-0.404602	
-0.405212	
-0.404968	
-0.404907	
-0.404297	
-0.402161	
-0.403564	
-0.403381	
-0.402771	
-0.401794	
-0.401306	
-0.400818	
-0.400513	
-0.400085	
-0.399475	
-0.400269	
-0.400208	
-0.400085	
-0.400085	
-0.400391	
-0.400818	
-0.400818	
-0.400085	
-0.39978	
-0.400085	
-0.399658	
-0.400208	
-0.400269	
-0.400024	
-0.400635	
-0.401917	
-0.401367	
-0.40155	
-0.402039	
-0.402222	
-0.401367	
-0.403137	
-0.402161	
-0.402771	
-0.402954	
-0.403442	
-0.403564	
-0.40448	
-0.405518	
-0.405273	
-0.405396	
-0.405518	
-0.406006	
-0.406067	
-0.40686	
-0.406799	
-0.405945	
-0.40686	
-0.407166	
-0.407349	
-0.407837	
-0.408325	
-0.407837	
-0.407593	
-0.408081	
-0.407166	
-0.407654	
-0.407837	
-0.407715	
-0.407898	
-0.408325	
-0.408264	
-0.407715	
-0.407043	
-0.40686	
-0.406494	
-0.405151	
-0.405334	
-0.405945	
-0.404968	
-0.40509	
-0.404968	
-0.405334	
-0.405151	
-0.405396	
-0.40509	
-0.404358	
-0.40509	
-0.404907	
-0.404907	
-0.405029	
-0.404236	
-0.404541	
-0.404663	
-0.404602	
-0.404724	
-0.403931	
-0.404053	
-0.40332	
-0.40387	
-0.402649	
-0.403809	
-0.403259	
-0.403625	
-0.403687	
-0.404297	
-0.404053	
-0.403809	
-0.403687	
-0.403748	
-0.403076	
-0.40387	
-0.404053	
-0.404297	
-0.404602	
-0.404541	
-0.404541	
-0.404846	
-0.404663	
-0.404358	
-0.403442	
-0.404297	
-0.403503	
-0.404114	
-0.404663	
-0.403992	
-0.404358	
-0.404358	
-0.404968	
-0.405334	
-0.405151	
-0.403992	
-0.404236	
-0.404541	
-0.404785	
-0.403625	
-0.404419	
-0.404358	
-0.404846	
-0.405762	
-0.40509	
-0.405518	
-0.405151	
-0.405457	
-0.403931	
-0.404785	
-0.404724	
-0.404724	
-0.403503	
-0.404419	
-0.404541	
-0.404602	
-0.405212	
-0.404785	
-0.404053	
-0.403992	
-0.404419	
-0.403564	
-0.402588	
-0.402954	
-0.402405	
-0.401917	
-0.401794	
-0.401306	
-0.401672	
-0.400818	
-0.400574	
-0.400452	
-0.400391	
-0.40033	
-0.399292	
-0.39978	
-0.400391	
-0.400635	
-0.401184	
-0.40033	
-0.401001	
-0.400085	
-0.40155	
-0.401001	
-0.400818	
-0.400635	
-0.401428	
-0.401794	
-0.401245	
-0.402344	
-0.402466	
-0.402893	
-0.403503	
-0.402527	
-0.402954	
-0.404114	
-0.404053	
-0.40448	
-0.404053	
-0.405029	
-0.406006	
-0.407349	
-0.407104	
-0.407715	
-0.408203	
-0.408508	
-0.408386	
-0.408203	
-0.408813	
-0.409485	
-0.409302	
-0.410461	
-0.410645	
-0.410583	
-0.411377	
-0.411194	
-0.410645	
-0.410889	
-0.411865	
-0.410339	
-0.409729	
-0.410095	
-0.410645	
-0.41095	
-0.411255	
-0.410889	
-0.410034	
-0.410645	
-0.410095	
-0.408569	
-0.408752	
-0.408325	
-0.407654	
-0.40625	
-0.406799	
-0.40686	
-0.406555	
-0.406433	
-0.405212	
-0.405334	
-0.404785	
-0.405212	
-0.403748	
-0.403809	
-0.40387	
-0.403809	
-0.403809	
-0.404541	
-0.403931	
-0.404236	
-0.404846	
-0.403809	
-0.403198	
-0.403748	
-0.403198	
-0.403015	
-0.4021	
-0.403442	
-0.403809	
-0.404724	
-0.404602	
-0.404114	
-0.405029	
-0.404053	
-0.404846	
-0.404297	
-0.403198	
-0.404419	
-0.403687	
-0.405029	
-0.40509	
-0.405945	
-0.405701	
-0.404968	
-0.405334	
-0.404724	
-0.405457	
-0.404419	
-0.404297	
-0.403992	
-0.404602	
-0.404846	
-0.40509	
-0.405212	
-0.405945	
-0.406067	
-0.404602	
-0.405273	
-0.404663	
-0.404846	
-0.405151	
-0.405334	
-0.405334	
-0.405151	
-0.405579	
-0.405762	
-0.405151	
-0.406433	
-0.404297	
-0.405334	
-0.403748	
-0.404114	
-0.403625	
-0.403259	
-0.403076	
-0.402954	
-0.403687	
-0.403381	
-0.403625	
-0.402344	
-0.402039	
-0.401917	
-0.401184	
-0.402527	
-0.400818	
-0.401794	
-0.401917	
-0.402039	
-0.401428	
-0.402222	
-0.401733	
-0.400696	
-0.401001	
-0.401001	
-0.400452	
-0.401489	
-0.401489	
-0.402039	
-0.401489	
-0.401978	
-0.402466	
-0.401733	
-0.402039	
-0.401367	
-0.401428	
-0.400452	
-0.401855	
-0.40094	
-0.401855	
-0.402039	
-0.402344	
-0.4021	
-0.403076	
-0.403442	
-0.401672	
-0.402771	
-0.403015	
-0.403076	
-0.404175	
-0.404846	
-0.405518	
-0.405701	
-0.407104	
-0.407043	
-0.407104	
-0.40741	
-0.407532	
-0.406616	
-0.406555	
-0.407104	
-0.406677	
-0.40802	
-0.407837	
-0.407898	
-0.408752	
-0.408813	
-0.408813	
-0.408142	
-0.408386	
-0.407043	
-0.406433	
-0.406738	
-0.407166	
-0.406555	
-0.406616	
-0.406982	
-0.406738	
-0.406494	
-0.405823	
-0.405518	
-0.404907	
-0.403809	
-0.403687	
-0.404236	
-0.404297	
-0.403992	
-0.403809	
-0.403259	
-0.403625	
-0.402527	
-0.401062	
-0.401123	
-0.400879	
-0.400818	
-0.400208	
-0.400146	
-0.400452	
-0.400879	
-0.400696	
-0.40094	
-0.400635	
-0.401001	
-0.399353	
-0.401367	
-0.400269	
-0.399902	
-0.400513	
-0.400757	
-0.400635	
-0.401001	
-0.402344	
-0.401794	
-0.401978	
-0.402832	
-0.401794	
-0.402893	
-0.401306	
-0.402832	
-0.40332	
-0.403259	
-0.402954	
-0.403687	
-0.403687	
-0.403625	
-0.404114	
-0.40332	
-0.402893	
-0.403442	
-0.402405	
-0.40387	
-0.403625	
-0.404297	
-0.403992	
-0.404541	
-0.404724	
-0.403931	
-0.405212	
-0.403748	
-0.40509	
-0.404175	
-0.403687	
-0.404541	
-0.404785	
-0.405457	
-0.405151	
-0.405518	
-0.404907	
-0.405029	
-0.404907	
-0.403992	
-0.405396	
-0.40332	
-0.404663	
-0.404053	
-0.40509	
-0.40448	
-0.404114	
-0.404968	
-0.404297	
-0.404297	
-0.403809	
-0.40448	
-0.404297	
-0.401794	
-0.403625	
-0.404114	
-0.404419	
-0.404114	
-0.405029	
-0.404541	
-0.404053	
-0.405396	
-0.403076	
-0.404602	
-0.403015	
-0.403809	
-0.403564	
-0.403503	
-0.403931	
-0.404236	
-0.404663	
-0.404114	
-0.404297	
-0.403015	
-0.403931	
-0.404297	
-0.403198	
-0.404053	
-0.403931	
-0.40448	
-0.404297	
-0.40509	
-0.405579	
-0.404785	
-0.406616	
-0.404053	
-0.405518	
-0.405762	
-0.40686	
-0.40686	
-0.407104	
-0.407593	
-0.408081	
-0.408508	
-0.408142	
-0.408386	
-0.409363	
-0.407654	
-0.408936	
-0.407227	
-0.408264	
-0.408142	
-0.40863	
-0.408508	
-0.408508	
-0.408997	
-0.408081	
-0.409119	
-0.406372	
-0.407715	
-0.407227	
-0.40686	
-0.407043	
	
