E:\DOCUMENTS AND SETTINGS\JPOTAS\MEUS DOCUMENTOS\UFRJ\RSCI-BM 12 WK SERIES\070730-RSCI-BM-09\RSCI-BM-09-REMG\070730-RSCI-BM-09-REMG-0007.ACQ
0.025000 msec/sample
1 channel
Analog input
Volts
CH1	
2000	
-0.405518	
-0.40564	
-0.405579	
-0.404053	
-0.406311	
-0.40509	
-0.40509	
-0.404968	
-0.405396	
-0.404602	
-0.404236	
-0.404358	
-0.403198	
-0.403687	
-0.402832	
-0.403625	
-0.40448	
-0.403503	
-0.403381	
-0.403381	
-0.403625	
-0.403381	
-0.403442	
-0.403992	
-0.403381	
-0.403198	
-0.402527	
-0.403015	
-0.403015	
-0.403076	
-0.403748	
-0.402893	
-0.404053	
-0.40332	
-0.403931	
-0.404724	
-0.404053	
-0.404297	
-0.403809	
-0.40564	
-0.405212	
-0.405334	
-0.405701	
-0.40625	
-0.405945	
-0.405701	
-0.406616	
-0.406311	
-0.406433	
-0.406128	
-0.407471	
-0.408386	
-0.407654	
-0.408081	
-0.409058	
-0.409424	
-0.408813	
-0.409546	
-0.410889	
-0.409302	
-0.409729	
-0.409851	
-0.410645	
-0.410522	
-0.411194	
-0.411194	
-0.410706	
-0.411621	
-0.411316	
-0.411682	
-0.412292	
-0.411194	
-0.411499	
-0.4104	
-0.411987	
-0.411072	
-0.411072	
-0.410645	
-0.41095	
-0.409546	
-0.409485	
-0.408936	
-0.409058	
-0.409119	
-0.408508	
-0.408081	
-0.40918	
-0.408142	
-0.407898	
-0.408081	
-0.40802	
-0.406982	
-0.406555	
-0.407166	
-0.406616	
-0.406738	
-0.406433	
-0.405334	
-0.407166	
-0.407043	
-0.407166	
-0.406677	
-0.407959	
-0.407471	
-0.407898	
-0.408691	
-0.407349	
-0.407959	
-0.407959	
-0.408752	
-0.408203	
-0.408447	
-0.408691	
-0.407654	
-0.407837	
-0.407898	
-0.407349	
-0.408081	
-0.407532	
-0.407227	
-0.406128	
-0.407654	
-0.406738	
-0.406738	
-0.407227	
-0.407349	
-0.406799	
-0.406677	
-0.406982	
-0.40625	
-0.406494	
-0.406494	
-0.405579	
-0.406494	
-0.406311	
-0.406067	
-0.406311	
-0.407288	
-0.406799	
-0.406311	
-0.407104	
-0.406738	
-0.406494	
-0.405762	
-0.406799	
-0.406921	
-0.406738	
-0.40686	
-0.405273	
-0.406494	
-0.406067	
-0.40625	
-0.406677	
-0.406433	
-0.405701	
-0.404297	
-0.406067	
-0.405579	
-0.404907	
-0.405396	
-0.405273	
-0.404846	
-0.403809	
-0.404358	
-0.403931	
-0.40387	
-0.403564	
-0.403931	
-0.404114	
-0.403748	
-0.403992	
-0.403076	
-0.404114	
-0.403259	
-0.402344	
-0.402954	
-0.402466	
-0.402283	
-0.401306	
-0.401611	
-0.401978	
-0.401367	
-0.402344	
-0.400574	
-0.401367	
-0.40094	
-0.401123	
-0.400574	
-0.40094	
-0.400513	
-0.400208	
-0.400696	
-0.400391	
-0.400208	
-0.399536	
-0.399475	
-0.399048	
-0.397034	
-0.407898	
-0.408142	
-0.40802	
-0.407654	
-0.407776	
-0.407654	
-0.399292	
-0.398743	
-0.396851	
-0.398071	
-0.397705	
-0.398254	
-0.399292	
-0.399902	
-0.399231	
-0.399292	
-0.400269	
-0.400391	
-0.400818	
-0.402039	
-0.400574	
-0.401794	
-0.40094	
-0.402405	
-0.402344	
-0.4021	
-0.402283	
-0.401855	
-0.402161	
-0.401855	
-0.402588	
-0.401428	
-0.401672	
-0.401428	
-0.401978	
-0.402161	
-0.401245	
-0.401245	
-0.401001	
-0.400879	
-0.401001	
-0.400696	
-0.401062	
-0.400024	
-0.401489	
-0.400696	
-0.400879	
-0.401672	
-0.402283	
-0.401062	
-0.401123	
-0.401672	
-0.401672	
-0.401855	
-0.401306	
-0.401245	
-0.4021	
-0.40033	
-0.401489	
-0.402039	
-0.401428	
-0.401733	
-0.401611	
-0.401978	
-0.4021	
-0.402588	
-0.402466	
-0.402222	
-0.401917	
-0.4021	
-0.402649	
-0.402039	
-0.402344	
-0.402344	
-0.401672	
-0.402344	
-0.402832	
-0.403137	
-0.402344	
-0.402954	
-0.403381	
-0.403809	
-0.404663	
-0.40387	
-0.404114	
-0.403931	
-0.40332	
-0.404297	
-0.404419	
-0.403442	
-0.403259	
-0.403076	
-0.402344	
-0.402893	
-0.404358	
-0.402832	
-0.403992	
-0.404358	
-0.406189	
-0.406738	
-0.408264	
-0.408569	
-0.410339	
-0.410767	
-0.412415	
-0.41394	
-0.415161	
-0.416565	
-0.417908	
-0.418762	
-0.421936	
-0.424072	
-0.424988	
-0.426025	
-0.428833	
-0.430115	
-0.432495	
-0.43512	
-0.434448	
-0.437012	
-0.437927	
-0.440918	
-0.441772	
-0.442383	
-0.442627	
-0.443909	
-0.444458	
-0.445618	
-0.446289	
-0.446045	
-0.446838	
-0.447388	
-0.446899	
-0.448914	
-0.450256	
-0.449341	
-0.449951	
-0.450439	
-0.4505	
-0.45105	
-0.452393	
-0.451355	
-0.452393	
-0.452576	
-0.454407	
-0.454834	
-0.455566	
-0.455383	
-0.456299	
-0.457092	
-0.456787	
-0.458008	
-0.456177	
-0.456055	
-0.455261	
-0.454102	
-0.454529	
-0.453918	
-0.452576	
-0.451294	
-0.451721	
-0.450562	
-0.45105	
-0.45105	
-0.447998	
-0.44873	
-0.447815	
-0.448364	
-0.447266	
-0.447144	
-0.446045	
-0.446899	
-0.447144	
-0.447083	
-0.448486	
-0.447083	
-0.447083	
-0.446289	
-0.446411	
-0.445374	
-0.443787	
-0.442139	
-0.441467	
-0.439575	
-0.438232	
-0.435974	
-0.43335	
-0.431213	
-0.428833	
-0.424622	
-0.42395	
-0.421082	
-0.417419	
-0.414001	
-0.411438	
-0.409058	
-0.405762	
-0.402771	
-0.398499	
-0.393921	
-0.400024	
-0.396484	
-0.394958	
-0.39209	
-0.387817	
-0.383545	
-0.371521	
-0.367188	
-0.362915	
-0.359924	
-0.355286	
-0.352478	
-0.349121	
-0.347351	
-0.344482	
-0.342102	
-0.339417	
-0.338074	
-0.337341	
-0.335022	
-0.334595	
-0.333496	
-0.333069	
-0.332458	
-0.331177	
-0.33252	
-0.332214	
-0.332153	
-0.330322	
-0.331665	
-0.331665	
-0.331726	
-0.332153	
-0.330505	
-0.33136	
-0.331421	
-0.333496	
-0.333252	
-0.333679	
-0.333496	
-0.335388	
-0.337219	
-0.336731	
-0.338745	
-0.338562	
-0.339905	
-0.340759	
-0.342529	
-0.34375	
-0.34552	
-0.34552	
-0.347229	
-0.349976	
-0.350769	
-0.353027	
-0.353088	
-0.354675	
-0.355835	
-0.357056	
-0.358337	
-0.358826	
-0.360046	
-0.360046	
-0.361877	
-0.36261	
-0.364136	
-0.362976	
-0.364563	
-0.365723	
-0.366333	
-0.367676	
-0.367615	
-0.368164	
-0.369141	
-0.370239	
-0.370911	
-0.372986	
-0.37146	
-0.372986	
-0.373962	
-0.374451	
-0.375427	
-0.375854	
-0.376343	
-0.376648	
-0.377014	
-0.377319	
-0.379211	
-0.377869	
-0.378662	
-0.379456	
-0.379639	
-0.380981	
-0.381042	
-0.382629	
-0.38324	
-0.383789	
-0.385437	
-0.387756	
-0.388245	
-0.389404	
-0.391174	
-0.392273	
-0.394043	
-0.394348	
-0.396667	
-0.397583	
-0.400024	
-0.401978	
-0.404419	
-0.406189	
-0.408386	
-0.410706	
-0.411438	
-0.414368	
-0.416138	
-0.417542	
-0.418945	
-0.421875	
-0.422913	
-0.424438	
-0.426636	
-0.426758	
-0.427979	
-0.428467	
-0.430664	
-0.430847	
-0.431152	
-0.432434	
-0.434814	
-0.435608	
-0.436157	
-0.4375	
-0.437622	
-0.437805	
-0.437378	
-0.440063	
-0.43988	
-0.439575	
-0.440857	
-0.442444	
-0.441895	
-0.442566	
-0.441956	
-0.441406	
-0.440613	
-0.4375	
-0.439209	
-0.437683	
-0.436401	
-0.435669	
-0.435669	
-0.434143	
-0.4328	
-0.430542	
-0.431152	
-0.430298	
-0.427795	
-0.429382	
-0.42804	
-0.428223	
-0.427856	
-0.428223	
-0.428894	
-0.429016	
-0.429077	
-0.429443	
-0.430237	
-0.428955	
-0.430847	
-0.430481	
-0.430908	
-0.430847	
-0.430786	
-0.430725	
-0.430481	
-0.429321	
-0.427979	
-0.426331	
-0.423462	
-0.422668	
-0.419312	
-0.416687	
-0.414612	
-0.41156	
-0.408447	
-0.405762	
-0.403381	
-0.400024	
-0.397461	
-0.393372	
-0.391724	
-0.388	
-0.384766	
-0.381836	
-0.378052	
-0.374695	
-0.370422	
-0.368225	
-0.364502	
-0.360596	
-0.3573	
-0.353821	
-0.351013	
-0.348145	
-0.345703	
-0.343262	
-0.341553	
-0.34021	
-0.338318	
-0.338623	
-0.336914	
-0.336182	
-0.333679	
-0.333862	
-0.332214	
-0.331543	
-0.331726	
-0.330261	
-0.329712	
-0.329102	
-0.329895	
-0.329773	
-0.330627	
-0.329895	
-0.332397	
-0.332764	
-0.33313	
-0.334778	
-0.3349	
-0.336121	
-0.33667	
-0.337769	
-0.338684	
-0.340088	
-0.339966	
-0.34198	
-0.343323	
-0.344849	
-0.346558	
-0.347473	
-0.348755	
-0.350403	
-0.351929	
-0.35376	
-0.355225	
-0.355774	
-0.357056	
-0.358459	
-0.360291	
-0.361816	
-0.362305	
-0.363159	
-0.363892	
-0.365112	
-0.365845	
-0.367432	
-0.366394	
-0.367126	
-0.368225	
-0.369995	
-0.369629	
-0.371338	
-0.37207	
-0.372314	
-0.374817	
-0.374573	
-0.374817	
-0.375061	
-0.374756	
-0.375488	
-0.376892	
-0.376831	
-0.377441	
-0.377747	
-0.378601	
-0.379089	
-0.379028	
-0.379333	
-0.378845	
-0.37854	
-0.378052	
-0.379639	
-0.3797	
-0.37915	
-0.379578	
-0.378967	
-0.379822	
-0.380066	
-0.381042	
-0.380554	
-0.380615	
-0.380859	
-0.381226	
-0.381348	
-0.380981	
-0.381714	
-0.381836	
-0.383179	
-0.382568	
-0.382996	
-0.383179	
-0.382629	
-0.384155	
-0.383911	
-0.38446	
-0.385864	
-0.386169	
-0.386902	
-0.38678	
-0.38855	
-0.388489	
-0.388977	
-0.389709	
-0.389038	
-0.388855	
-0.39032	
-0.391418	
-0.391296	
-0.391602	
-0.391724	
-0.393433	
-0.394348	
-0.394165	
-0.394958	
-0.394043	
-0.394592	
-0.395752	
-0.396118	
-0.396973	
-0.396973	
-0.397156	
-0.398254	
-0.398926	
-0.398804	
-0.398743	
-0.398193	
-0.400146	
-0.400146	
-0.40094	
-0.401062	
-0.40094	
-0.401123	
-0.402344	
-0.401733	
-0.40094	
-0.400818	
-0.400269	
-0.400757	
-0.40033	
-0.400269	
-0.399902	
-0.399353	
-0.400391	
-0.401611	
-0.400085	
-0.399658	
-0.398621	
-0.398743	
-0.399353	
-0.398926	
-0.399109	
-0.399109	
-0.399414	
-0.400146	
-0.400574	
-0.400208	
-0.400635	
-0.397766	
-0.400391	
-0.400208	
-0.400757	
-0.400452	
-0.400818	
-0.401306	
-0.402283	
-0.403076	
-0.402466	
-0.402466	
-0.400879	
-0.402222	
-0.402588	
-0.4021	
-0.402222	
-0.401489	
-0.402649	
-0.402405	
-0.401978	
-0.401184	
-0.40094	
-0.400269	
-0.400574	
-0.40033	
-0.40094	
-0.401001	
-0.399902	
-0.400879	
-0.401672	
-0.401245	
-0.401123	
-0.400391	
-0.399719	
-0.401184	
-0.401245	
-0.401245	
-0.401062	
-0.400391	
-0.40155	
-0.401978	
-0.401611	
-0.40155	
-0.401001	
-0.399292	
-0.400879	
-0.400818	
-0.401062	
-0.401062	
-0.400452	
-0.400879	
-0.401794	
-0.403809	
-0.401855	
-0.400757	
-0.399963	
-0.400696	
-0.400879	
-0.400574	
-0.399963	
-0.398865	
-0.399719	
-0.399353	
-0.400024	
-0.400269	
-0.399048	
-0.398499	
-0.396118	
-0.399719	
-0.399231	
-0.398865	
-0.398132	
-0.397827	
-0.39801	
-0.398376	
-0.397827	
-0.397278	
-0.396484	
-0.394043	
-0.397278	
-0.396729	
-0.396423	
-0.39624	
-0.395325	
-0.396179	
-0.396606	
-0.396729	
-0.395691	
-0.39502	
-0.394409	
-0.395508	
-0.395081	
-0.394775	
-0.39447	
-0.393799	
-0.394348	
-0.395142	
-0.395142	
-0.394043	
-0.393188	
-0.393066	
-0.392761	
-0.393738	
-0.393494	
-0.393738	
-0.393494	
-0.393494	
-0.394104	
-0.394287	
-0.394409	
-0.394287	
-0.39386	
-0.39447	
-0.395935	
-0.396362	
-0.39624	
-0.397034	
-0.396973	
-0.39801	
-0.399048	
-0.398438	
-0.39801	
-0.397705	
-0.396179	
-0.398315	
-0.398499	
-0.39856	
-0.398315	
-0.398438	
-0.399292	
-0.399536	
-0.398621	
-0.397827	
-0.396973	
-0.396851	
-0.398621	
-0.397644	
-0.398132	
-0.397705	
-0.397705	
-0.397522	
-0.398987	
-0.398438	
-0.397705	
-0.397278	
-0.396851	
-0.398865	
-0.398743	
-0.398865	
-0.398865	
-0.399048	
-0.399292	
-0.400818	
-0.400146	
-0.39978	
-0.399048	
-0.398315	
-0.400208	
-0.401001	
-0.400635	
-0.400635	
-0.399597	
-0.400635	
-0.401794	
-0.402405	
-0.400818	
-0.400757	
-0.400757	
-0.40155	
-0.401794	
-0.4021	
-0.401978	
-0.401062	
-0.401672	
-0.401978	
-0.403076	
-0.40155	
-0.4021	
-0.400818	
-0.401245	
-0.403748	
-0.403015	
-0.40271	
-0.402893	
-0.402588	
-0.403137	
-0.403931	
-0.403442	
-0.402466	
-0.401306	
-0.399536	
-0.401245	
-0.402039	
-0.401001	
-0.401184	
-0.400879	
-0.400879	
-0.40155	
-0.402466	
-0.401184	
-0.400269	
-0.398438	
-0.401001	
-0.402222	
-0.401123	
-0.401367	
-0.401367	
-0.40155	
-0.4021	
-0.40387	
-0.401917	
-0.401978	
-0.399292	
-0.401855	
-0.402649	
-0.402405	
-0.402039	
-0.402344	
-0.402832	
-0.403198	
-0.405212	
-0.403381	
-0.403076	
-0.402771	
-0.401733	
-0.403931	
-0.403564	
-0.40332	
-0.40332	
-0.402832	
-0.403809	
-0.404602	
-0.405579	
-0.403809	
-0.403442	
-0.401245	
-0.40448	
-0.404785	
-0.403992	
-0.404846	
-0.404297	
-0.404785	
-0.405396	
-0.408325	
-0.404968	
-0.405396	
-0.404114	
-0.405884	
-0.406189	
-0.406189	
-0.406311	
-0.40625	
-0.404907	
-0.406616	
-0.409058	
-0.406189	
-0.405396	
-0.404785	
-0.405396	
-0.405396	
-0.405518	
-0.405212	
-0.404968	
-0.404602	
-0.405396	
-0.40686	
-0.405457	
-0.404724	
-0.403625	
-0.402588	
-0.403442	
-0.404114	
-0.403442	
-0.402832	
-0.402283	
-0.401489	
-0.402527	
-0.403381	
-0.40155	
-0.401245	
-0.399414	
-0.399475	
-0.40033	
-0.401184	
-0.399719	
-0.399353	
-0.399414	
-0.399475	
-0.399963	
-0.399231	
-0.398438	
-0.397644	
-0.394897	
-0.397827	
-0.397888	
-0.397156	
-0.396912	
-0.396729	
-0.396667	
-0.397522	
-0.398376	
-0.396362	
-0.396423	
-0.395752	
-0.396057	
-0.396545	
-0.397095	
-0.396667	
-0.396851	
-0.396729	
-0.398193	
-0.398621	
-0.398926	
-0.397949	
-0.398132	
-0.396057	
-0.398682	
-0.399414	
-0.399353	
-0.39978	
-0.399719	
-0.399353	
-0.400513	
-0.401978	
-0.400391	
-0.399963	
-0.40033	
-0.400757	
-0.401123	
-0.401733	
-0.400574	
-0.400696	
-0.400208	
-0.401367	
-0.401428	
-0.400818	
-0.400146	
-0.400146	
-0.398254	
-0.400024	
-0.400879	
-0.399597	
-0.39978	
-0.39978	
-0.39978	
-0.400452	
-0.401978	
-0.399841	
-0.398682	
-0.399475	
-0.399902	
-0.400513	
-0.401428	
-0.401062	
-0.401489	
-0.401306	
-0.401855	
-0.401611	
-0.402344	
-0.401489	
-0.401245	
-0.398804	
-0.40155	
-0.401855	
-0.401917	
-0.401855	
-0.401672	
-0.402039	
-0.4021	
-0.404419	
-0.401855	
-0.400574	
-0.400757	
-0.4021	
-0.401917	
-0.401672	
-0.401917	
-0.402405	
-0.401367	
-0.403503	
-0.40509	
-0.402344	
-0.402161	
-0.401672	
-0.402771	
-0.402832	
-0.403687	
-0.402771	
-0.402466	
-0.402344	
-0.403137	
-0.404541	
-0.403931	
-0.402954	
-0.402649	
-0.40271	
-0.403931	
-0.404053	
-0.404846	
-0.404419	
-0.404785	
-0.403625	
-0.406067	
-0.405945	
-0.404724	
-0.404907	
-0.404541	
-0.404968	
-0.405457	
-0.406494	
-0.406128	
-0.406433	
-0.406067	
-0.407166	
-0.408325	
-0.407471	
-0.406982	
-0.40625	
-0.40625	
-0.407471	
-0.407898	
-0.407837	
-0.407288	
-0.407227	
-0.407593	
-0.408997	
-0.408936	
-0.408447	
-0.408203	
-0.407043	
-0.407837	
-0.409241	
-0.409607	
-0.409119	
-0.409424	
-0.409363	
-0.409729	
-0.411011	
-0.410767	
-0.40979	
-0.409241	
-0.407227	
-0.410095	
-0.409668	
-0.40918	
-0.408569	
-0.407654	
-0.406616	
-0.407349	
-0.409241	
-0.406799	
-0.406128	
-0.404602	
-0.405579	
-0.405334	
-0.405945	
-0.405457	
-0.405334	
-0.404846	
-0.40564	
-0.407043	
-0.405151	
-0.405457	
-0.404968	
-0.404724	
-0.406006	
-0.406494	
-0.406494	
-0.406738	
-0.406494	
-0.406555	
-0.407593	
-0.409241	
-0.407043	
-0.406982	
-0.405945	
-0.406921	
-0.407227	
-0.407959	
-0.407043	
-0.406677	
-0.406555	
-0.406738	
-0.407959	
-0.407227	
-0.406677	
-0.406128	
-0.403442	
-0.406372	
-0.406738	
-0.406433	
-0.40625	
-0.405945	
-0.406372	
-0.406372	
-0.407898	
-0.406006	
-0.405945	
-0.403809	
-0.406616	
-0.406677	
-0.406311	
-0.406555	
-0.406372	
-0.405701	
-0.406799	
-0.409241	
-0.406128	
-0.406067	
-0.405212	
-0.405396	
-0.405579	
-0.406067	
-0.405334	
-0.405579	
-0.404907	
-0.405273	
-0.405579	
-0.406616	
-0.405212	
-0.405396	
-0.403564	
-0.405823	
-0.406311	
-0.406799	
-0.406738	
-0.406372	
-0.406189	
-0.406921	
-0.408752	
-0.407104	
-0.406677	
-0.406128	
-0.404785	
-0.407166	
-0.407898	
-0.406616	
-0.406555	
-0.406067	
-0.406677	
-0.407288	
-0.408264	
-0.406311	
-0.40625	
-0.405762	
-0.406006	
-0.406372	
-0.406128	
-0.406128	
-0.406372	
-0.404846	
-0.406311	
-0.40686	
-0.406494	
-0.405396	
-0.403442	
-0.404053	
-0.404724	
-0.405579	
-0.404602	
-0.404846	
-0.404724	
-0.404907	
-0.405518	
-0.406189	
-0.404419	
-0.40448	
-0.403687	
-0.405029	
-0.404602	
-0.404053	
-0.404236	
-0.404114	
-0.403564	
-0.403931	
-0.405029	
-0.403198	
-0.402954	
-0.401123	
-0.401611	
-0.402832	
-0.402893	
-0.402588	
-0.402039	
-0.401123	
-0.402466	
-0.403442	
-0.402588	
-0.402039	
-0.401611	
-0.400757	
-0.401306	
-0.402405	
-0.402466	
-0.402222	
-0.401978	
-0.402527	
-0.402771	
-0.402832	
-0.402954	
-0.402222	
-0.401367	
-0.400208	
-0.403625	
-0.403687	
-0.404053	
-0.403992	
-0.403687	
-0.40448	
-0.405457	
-0.406799	
-0.404968	
-0.404846	
-0.404114	
-0.405884	
-0.407104	
-0.406128	
-0.406311	
-0.406616	
-0.406982	
-0.407654	
-0.408508	
-0.408508	
-0.407654	
-0.407227	
-0.407532	
-0.409119	
-0.408813	
-0.409363	
-0.409363	
-0.409302	
-0.409973	
-0.411194	
-0.411255	
-0.410767	
-0.409973	
-0.409973	
-0.409363	
-0.411621	
-0.410828	
-0.41095	
-0.410645	
-0.410034	
-0.410156	
-0.410583	
-0.410706	
-0.408875	
-0.407715	
-0.407654	
-0.408447	
-0.408325	
-0.407898	
-0.40741	
-0.405945	
-0.407349	
-0.407654	
-0.407104	
-0.40686	
-0.406006	
-0.405334	
-0.405212	
-0.406433	
-0.406555	
-0.405823	
-0.405029	
-0.406128	
-0.406677	
-0.406677	
-0.406738	
-0.406311	
-0.405762	
-0.405457	
-0.406799	
-0.407227	
-0.407471	
-0.407104	
-0.407104	
-0.407471	
-0.407898	
-0.408569	
-0.408081	
-0.406921	
-0.406982	
-0.40564	
-0.407532	
-0.40625	
-0.405945	
-0.405762	
-0.405762	
-0.406311	
-0.40625	
-0.406189	
-0.405823	
-0.404358	
-0.405457	
-0.404236	
-0.405518	
-0.405396	
-0.405273	
-0.405029	
-0.405029	
-0.406677	
-0.406677	
-0.406921	
-0.40509	
-0.405457	
-0.405457	
-0.40625	
-0.405151	
-0.405518	
-0.404968	
-0.405457	
-0.406128	
-0.406067	
-0.406128	
-0.405457	
-0.404236	
-0.404907	
-0.40509	
-0.405884	
-0.405029	
-0.405151	
-0.404419	
-0.404968	
-0.404968	
-0.40448	
-0.404968	
-0.403687	
-0.403442	
-0.403259	
-0.403442	
-0.403259	
-0.403076	
-0.403015	
-0.403442	
-0.403442	
-0.402649	
-0.403198	
-0.403503	
-0.4021	
-0.40155	
-0.401367	
-0.402039	
-0.401367	
-0.401489	
-0.401611	
-0.401428	
-0.401611	
-0.40094	
-0.401245	
-0.400085	
-0.400269	
-0.399536	
-0.399963	
-0.400269	
-0.400024	
-0.399841	
-0.399597	
-0.399841	
-0.399414	
-0.400208	
-0.399597	
-0.397217	
-0.39801	
-0.397644	
-0.39801	
-0.398193	
-0.398193	
-0.396729	
-0.398193	
-0.398621	
-0.398621	
-0.398315	
-0.397156	
-0.398071	
-0.398438	
-0.39801	
-0.398926	
-0.399048	
-0.399231	
-0.400269	
-0.401428	
-0.401001	
-0.401917	
-0.401428	
-0.401123	
-0.401184	
-0.401672	
-0.401672	
-0.401733	
-0.401917	
-0.401672	
-0.4021	
-0.401733	
-0.402466	
-0.402649	
-0.401001	
-0.401062	
-0.400818	
-0.401428	
-0.401428	
-0.400696	
-0.400696	
-0.400635	
-0.40094	
-0.400513	
-0.400146	
-0.400696	
-0.400085	
-0.400269	
-0.399414	
-0.400635	
-0.40094	
-0.401062	
-0.401489	
-0.40155	
-0.401306	
-0.401245	
-0.4021	
-0.40033	
-0.400024	
-0.401367	
-0.400146	
-0.401489	
-0.401062	
-0.400391	
-0.401855	
-0.402222	
-0.402283	
-0.4021	
-0.402283	
-0.40155	
-0.40155	
-0.400879	
-0.402344	
-0.402344	
-0.402039	
-0.401062	
-0.402405	
-0.402466	
-0.402893	
-0.402588	
-0.401733	
-0.401794	
-0.402466	
-0.401978	
-0.403076	
-0.402893	
-0.402771	
-0.403381	
-0.404114	
-0.404053	
-0.403503	
-0.404114	
-0.402649	
-0.402405	
-0.401794	
-0.402161	
-0.401855	
-0.401611	
-0.400574	
-0.4021	
-0.401306	
-0.401123	
-0.401855	
-0.400452	
-0.400208	
-0.401184	
-0.399841	
-0.401489	
-0.401428	
-0.401428	
-0.401794	
-0.402588	
-0.401672	
-0.401672	
-0.403015	
-0.401184	
-0.401489	
-0.40155	
-0.401611	
-0.40155	
-0.401733	
-0.401489	
-0.401978	
-0.403564	
-0.403015	
-0.403198	
-0.403259	
-0.402222	
-0.403442	
-0.401978	
-0.402954	
-0.403259	
-0.403198	
-0.40332	
-0.403931	
-0.403748	
-0.40332	
-0.404419	
-0.403137	
-0.402405	
-0.403381	
-0.40448	
-0.403809	
-0.403809	
-0.403687	
-0.404297	
-0.405151	
-0.405396	
-0.405518	
-0.406738	
-0.405334	
-0.406128	
-0.40564	
-0.406494	
-0.406372	
-0.406006	
-0.404907	
-0.406677	
-0.406738	
-0.406311	
-0.406616	
-0.404602	
-0.404907	
-0.405945	
-0.404724	
-0.405884	
-0.405823	
-0.405945	
-0.405823	
-0.406372	
-0.406311	
-0.405762	
-0.405945	
-0.404785	
-0.405212	
-0.404236	
-0.404785	
-0.404053	
-0.404114	
-0.403381	
-0.403809	
-0.403931	
-0.403992	
-0.403137	
-0.402954	
-0.402283	
-0.402405	
-0.400452	
-0.401611	
-0.40155	
-0.401184	
-0.400696	
-0.401489	
-0.400818	
-0.40033	
-0.400696	
-0.399841	
-0.39917	
-0.398987	
-0.399475	
-0.399231	
-0.398132	
-0.398071	
-0.398438	
-0.398071	
-0.398804	
-0.398193	
-0.398621	
-0.398071	
-0.397827	
-0.397888	
-0.398621	
-0.397949	
-0.398376	
-0.399109	
-0.399353	
-0.399658	
-0.400696	
-0.399231	
-0.399597	
-0.399475	
-0.399597	
-0.399902	
-0.40094	
-0.401367	
-0.401672	
-0.402405	
-0.401855	
-0.40271	
-0.402405	
-0.402771	
-0.402161	
-0.401733	
-0.401001	
-0.402771	
-0.402039	
-0.402222	
-0.4021	
-0.402832	
-0.402283	
-0.403015	
-0.402283	
-0.401428	
-0.401123	
-0.400635	
-0.400208	
-0.400757	
-0.400757	
-0.400879	
-0.400879	
-0.401062	
-0.401367	
-0.401917	
-0.401672	
-0.401184	
-0.40033	
-0.401367	
-0.401611	
-0.401917	
-0.4021	
-0.4021	
-0.403137	
-0.402588	
-0.403198	
-0.403076	
-0.403381	
-0.402466	
-0.402466	
-0.402649	
-0.402893	
-0.402771	
-0.402954	
-0.4021	
-0.402832	
-0.402893	
-0.403259	
-0.402954	
-0.402466	
-0.402161	
-0.401672	
-0.403625	
-0.40271	
-0.403076	
-0.40332	
-0.403625	
-0.403564	
-0.404358	
-0.40448	
-0.403564	
-0.403564	
-0.403015	
-0.402649	
-0.404419	
-0.403809	
-0.404602	
-0.403442	
-0.40509	
-0.40448	
-0.405212	
-0.405701	
-0.404724	
-0.404663	
-0.404724	
-0.40625	
-0.40564	
-0.405518	
-0.405273	
-0.405884	
-0.405701	
-0.406067	
-0.406311	
-0.405701	
-0.406128	
-0.405762	
-0.405762	
-0.408203	
-0.407349	
-0.407654	
-0.407532	
-0.408508	
-0.408203	
-0.40918	
-0.410034	
-0.408508	
-0.408142	
-0.407959	
-0.408813	
-0.408936	
-0.40863	
-0.408997	
-0.408447	
-0.410034	
-0.410217	
-0.410522	
-0.410706	
-0.410583	
-0.409424	
-0.410217	
-0.411682	
-0.410828	
-0.410461	
-0.4104	
-0.410645	
-0.411011	
-0.411255	
-0.411987	
-0.410522	
-0.410828	
-0.40918	
-0.410339	
-0.410889	
-0.409668	
-0.408875	
-0.408386	
-0.408508	
-0.408142	
-0.40863	
-0.407471	
-0.406799	
-0.406799	
-0.406189	
-0.406982	
-0.407104	
-0.407349	
-0.406677	
-0.406433	
-0.407959	
-0.407837	
-0.408081	
-0.407532	
-0.407898	
-0.407104	
-0.406677	
-0.408997	
-0.408386	
-0.408447	
-0.408569	
-0.409363	
-0.408752	
-0.408997	
-0.410095	
-0.408997	
-0.40863	
-0.407043	
-0.408081	
-0.408691	
-0.408081	
-0.407776	
-0.407715	
-0.408386	
-0.408264	
-0.409058	
-0.408142	
-0.407898	
-0.407593	
-0.40686	
-0.408264	
-0.407898	
-0.407715	
-0.407349	
-0.407349	
-0.407654	
-0.408081	
-0.408203	
-0.407166	
-0.407532	
-0.406677	
-0.406921	
-0.407898	
-0.40741	
-0.407715	
-0.406799	
-0.407959	
-0.407349	
-0.407776	
-0.408508	
-0.406799	
-0.406738	
-0.404724	
-0.40686	
-0.406555	
-0.405884	
-0.405945	
-0.405151	
-0.407227	
-0.406555	
-0.408997	
-0.408325	
-0.408081	
-0.407471	
-0.407959	
-0.409119	
-0.408264	
-0.408081	
-0.407898	
-0.408203	
-0.408203	
-0.408142	
-0.409058	
-0.407043	
-0.407837	
-0.406738	
-0.407715	
-0.407715	
-0.407532	
-0.407593	
-0.406921	
-0.408203	
-0.407837	
-0.408508	
-0.408081	
-0.407715	
-0.407715	
-0.407043	
-0.408264	
-0.407349	
-0.407532	
-0.407288	
-0.407166	
-0.406677	
-0.406921	
-0.408142	
-0.406677	
-0.406555	
-0.405762	
-0.406433	
-0.406921	
-0.406616	
-0.40625	
-0.404968	
-0.406921	
-0.406311	
	
