E:\DOCUMENTS AND SETTINGS\JPOTAS\MEUS DOCUMENTOS\UFRJ\RSCI-BM 12 WK SERIES\070730-RSCI-BM-09\RSCI-BM-09-REMG\070730-RSCI-BM-09-REMG-0008.ACQ
0.025000 msec/sample
1 channel
Analog input
Volts
CH1	
2000	
-0.403809	
-0.402649	
-0.402832	
-0.403748	
-0.403015	
-0.403503	
-0.402344	
-0.40332	
-0.403381	
-0.40332	
-0.403992	
-0.403381	
-0.403625	
-0.402771	
-0.403503	
-0.403931	
-0.403564	
-0.403687	
-0.402344	
-0.402893	
-0.402954	
-0.402954	
-0.403809	
-0.403076	
-0.402771	
-0.402466	
-0.403381	
-0.402039	
-0.402832	
-0.402527	
-0.401672	
-0.402161	
-0.401794	
-0.403259	
-0.403198	
-0.403503	
-0.402832	
-0.402649	
-0.403625	
-0.403137	
-0.403687	
-0.402039	
-0.402405	
-0.402893	
-0.403381	
-0.403564	
-0.403564	
-0.404724	
-0.403809	
-0.40332	
-0.404602	
-0.404785	
-0.405884	
-0.40448	
-0.40625	
-0.406189	
-0.406616	
-0.406799	
-0.407471	
-0.406921	
-0.406799	
-0.405823	
-0.407227	
-0.406799	
-0.406616	
-0.405396	
-0.406616	
-0.405518	
-0.40625	
-0.407227	
-0.406616	
-0.406006	
-0.405396	
-0.405579	
-0.404602	
-0.404724	
-0.403992	
-0.402954	
-0.403564	
-0.401489	
-0.402222	
-0.401733	
-0.400696	
-0.400452	
-0.399719	
-0.39917	
-0.398926	
-0.399109	
-0.397827	
-0.398071	
-0.39801	
-0.397888	
-0.398315	
-0.398743	
-0.397461	
-0.397156	
-0.397034	
-0.397888	
-0.397095	
-0.397095	
-0.396851	
-0.396912	
-0.396729	
-0.397156	
-0.398315	
-0.397278	
-0.396851	
-0.397156	
-0.397095	
-0.397583	
-0.39801	
-0.397827	
-0.397339	
-0.398621	
-0.397949	
-0.398987	
-0.400024	
-0.399414	
-0.40033	
-0.400146	
-0.400452	
-0.401428	
-0.401367	
-0.400818	
-0.402588	
-0.402588	
-0.402283	
-0.40332	
-0.404114	
-0.403381	
-0.403503	
-0.403076	
-0.404419	
-0.403748	
-0.404541	
-0.403931	
-0.404297	
-0.403809	
-0.404053	
-0.404663	
-0.40387	
-0.403809	
-0.40387	
-0.403259	
-0.403809	
-0.403259	
-0.403503	
-0.402161	
-0.402161	
-0.402039	
-0.402222	
-0.40332	
-0.401733	
-0.401917	
-0.401733	
-0.403076	
-0.401733	
-0.401917	
-0.400574	
-0.402344	
-0.401978	
-0.40155	
-0.402344	
-0.402588	
-0.402405	
-0.402588	
-0.402527	
-0.402832	
-0.402283	
-0.403381	
-0.401978	
-0.402283	
-0.402283	
-0.401733	
-0.403381	
-0.402222	
-0.401917	
-0.401855	
-0.402466	
-0.40271	
-0.402466	
-0.403015	
-0.401672	
-0.402466	
-0.40271	
-0.403137	
-0.404602	
-0.403259	
-0.403381	
-0.402954	
-0.404358	
-0.40332	
-0.403503	
-0.402161	
-0.403564	
-0.403687	
-0.403381	
-0.403687	
-0.412292	
-0.414001	
-0.414124	
-0.413452	
-0.414795	
-0.413879	
-0.406311	
-0.404724	
-0.404846	
-0.405273	
-0.40509	
-0.406799	
-0.405212	
-0.405518	
-0.404846	
-0.404602	
-0.404968	
-0.40509	
-0.405884	
-0.403931	
-0.404968	
-0.404724	
-0.404785	
-0.406128	
-0.404297	
-0.40387	
-0.40387	
-0.404663	
-0.403687	
-0.403625	
-0.403687	
-0.402954	
-0.402283	
-0.401978	
-0.401611	
-0.401611	
-0.400635	
-0.400574	
-0.40033	
-0.400574	
-0.399536	
-0.399292	
-0.399475	
-0.399292	
-0.399109	
-0.398376	
-0.399597	
-0.400208	
-0.399292	
-0.399475	
-0.399353	
-0.399902	
-0.39978	
-0.399841	
-0.398804	
-0.399841	
-0.400146	
-0.400696	
-0.401184	
-0.400635	
-0.400818	
-0.401184	
-0.400879	
-0.401428	
-0.401978	
-0.402832	
-0.402771	
-0.403625	
-0.403931	
-0.404602	
-0.406189	
-0.405579	
-0.405701	
-0.406067	
-0.405945	
-0.40686	
-0.406921	
-0.407532	
-0.407471	
-0.407288	
-0.407166	
-0.408264	
-0.409363	
-0.408325	
-0.408264	
-0.408203	
-0.408569	
-0.408203	
-0.40802	
-0.406921	
-0.408142	
-0.407227	
-0.407288	
-0.408447	
-0.408264	
-0.40863	
-0.409546	
-0.408203	
-0.410156	
-0.411011	
-0.412781	
-0.412842	
-0.414001	
-0.414246	
-0.415649	
-0.417786	
-0.418152	
-0.419678	
-0.421265	
-0.422974	
-0.424927	
-0.42572	
-0.428101	
-0.429749	
-0.431702	
-0.433289	
-0.435547	
-0.436829	
-0.43811	
-0.440979	
-0.441467	
-0.443298	
-0.444275	
-0.444824	
-0.445862	
-0.446411	
-0.447449	
-0.448792	
-0.450012	
-0.44989	
-0.450195	
-0.450073	
-0.451233	
-0.452759	
-0.452332	
-0.453796	
-0.45459	
-0.453796	
-0.455383	
-0.45636	
-0.455322	
-0.455627	
-0.457153	
-0.456421	
-0.45697	
-0.45752	
-0.458069	
-0.458191	
-0.457886	
-0.457703	
-0.458557	
-0.459167	
-0.457336	
-0.457642	
-0.456604	
-0.456238	
-0.455383	
-0.4552	
-0.45343	
-0.453552	
-0.452576	
-0.452454	
-0.452454	
-0.45166	
-0.450684	
-0.450562	
-0.449341	
-0.449463	
-0.449585	
-0.448242	
-0.449036	
-0.449402	
-0.449097	
-0.449768	
-0.450012	
-0.449951	
-0.450623	
-0.44812	
-0.448547	
-0.44812	
-0.446838	
-0.44574	
-0.444458	
-0.44281	
-0.440979	
-0.440247	
-0.436707	
-0.434448	
-0.430969	
-0.427673	
-0.425781	
-0.422974	
-0.419678	
-0.417175	
-0.413879	
-0.411011	
-0.408752	
-0.407471	
-0.402588	
-0.400146	
-0.396545	
-0.393127	
-0.389954	
-0.386353	
-0.381836	
-0.379211	
-0.375366	
-0.371704	
-0.369019	
-0.36554	
-0.361816	
-0.358521	
-0.35437	
-0.3526	
-0.349976	
-0.348083	
-0.346863	
-0.345276	
-0.343384	
-0.343933	
-0.344177	
-0.342285	
-0.342041	
-0.341431	
-0.340271	
-0.339355	
-0.340576	
-0.339172	
-0.339661	
-0.338989	
-0.339172	
-0.3396	
-0.339417	
-0.3396	
-0.340027	
-0.34021	
-0.340759	
-0.342957	
-0.342529	
-0.343994	
-0.344788	
-0.345764	
-0.34668	
-0.3479	
-0.348389	
-0.349243	
-0.349365	
-0.351318	
-0.353638	
-0.353027	
-0.355408	
-0.356384	
-0.357361	
-0.358643	
-0.35907	
-0.359436	
-0.359985	
-0.360046	
-0.361206	
-0.362305	
-0.361328	
-0.362671	
-0.362549	
-0.363892	
-0.366089	
-0.36554	
-0.365601	
-0.366211	
-0.367554	
-0.367004	
-0.368835	
-0.369751	
-0.370483	
-0.370178	
-0.372253	
-0.374329	
-0.372864	
-0.374695	
-0.374573	
-0.37439	
-0.383362	
-0.385742	
-0.386902	
-0.387634	
-0.38678	
-0.388916	
-0.382019	
-0.379456	
-0.3797	
-0.379272	
-0.379333	
-0.379761	
-0.379944	
-0.380249	
-0.380615	
-0.380188	
-0.381714	
-0.383057	
-0.381592	
-0.382507	
-0.38208	
-0.382019	
-0.382263	
-0.383972	
-0.382568	
-0.383545	
-0.383667	
-0.384216	
-0.385803	
-0.385864	
-0.386658	
-0.385803	
-0.386658	
-0.386292	
-0.386841	
-0.386597	
-0.386719	
-0.387024	
-0.38623	
-0.387756	
-0.388794	
-0.387695	
-0.387817	
-0.387146	
-0.388306	
-0.388367	
-0.388733	
-0.388	
-0.388428	
-0.388062	
-0.388306	
-0.389465	
-0.388062	
-0.388855	
-0.387329	
-0.387817	
-0.386963	
-0.386902	
-0.385803	
-0.386108	
-0.385742	
-0.384949	
-0.385376	
-0.385132	
-0.385193	
-0.383911	
-0.384705	
-0.384766	
-0.384888	
-0.38562	
-0.385498	
-0.385742	
-0.386108	
-0.387512	
-0.387756	
-0.388245	
-0.387024	
-0.388794	
-0.389587	
-0.390564	
-0.391479	
-0.39032	
-0.391785	
-0.391907	
-0.393005	
-0.393616	
-0.395142	
-0.393982	
-0.395874	
-0.395996	
-0.396484	
-0.39801	
-0.396851	
-0.398621	
-0.39917	
-0.399963	
-0.400757	
-0.401978	
-0.402466	
-0.404419	
-0.405029	
-0.407288	
-0.408875	
-0.408997	
-0.410889	
-0.411743	
-0.414612	
-0.416138	
-0.416504	
-0.417725	
-0.419495	
-0.420898	
-0.421936	
-0.423706	
-0.424805	
-0.425964	
-0.42627	
-0.429504	
-0.429993	
-0.430054	
-0.430054	
-0.43042	
-0.431396	
-0.431946	
-0.431335	
-0.4328	
-0.433472	
-0.434387	
-0.436035	
-0.435913	
-0.435913	
-0.436707	
-0.436829	
-0.437988	
-0.438965	
-0.438293	
-0.440063	
-0.43988	
-0.441711	
-0.443054	
-0.443726	
-0.44397	
-0.444031	
-0.444397	
-0.445618	
-0.445862	
-0.445313	
-0.445068	
-0.444397	
-0.44397	
-0.443359	
-0.44342	
-0.440918	
-0.43988	
-0.43866	
-0.438232	
-0.4375	
-0.43634	
-0.434692	
-0.434937	
-0.43396	
-0.434143	
-0.43457	
-0.43457	
-0.433777	
-0.434387	
-0.432983	
-0.434265	
-0.434692	
-0.43457	
-0.434875	
-0.434937	
-0.43512	
-0.435608	
-0.436523	
-0.434326	
-0.433167	
-0.432251	
-0.43042	
-0.429871	
-0.427185	
-0.424866	
-0.423279	
-0.419922	
-0.418213	
-0.416931	
-0.413147	
-0.409302	
-0.406067	
-0.402039	
-0.400452	
-0.397461	
-0.393921	
-0.391296	
-0.387695	
-0.385803	
-0.382935	
-0.38031	
-0.37616	
-0.372742	
-0.369141	
-0.364868	
-0.362854	
-0.358826	
-0.355103	
-0.352356	
-0.348206	
-0.346558	
-0.344971	
-0.343445	
-0.340637	
-0.338989	
-0.336731	
-0.336487	
-0.335205	
-0.332397	
-0.33197	
-0.331116	
-0.330444	
-0.330322	
-0.330078	
-0.328796	
-0.328369	
-0.327698	
-0.329163	
-0.330017	
-0.328613	
-0.329956	
-0.3302	
-0.331848	
-0.333191	
-0.333862	
-0.334045	
-0.335266	
-0.335876	
-0.337952	
-0.339233	
-0.339905	
-0.341187	
-0.341919	
-0.34491	
-0.347839	
-0.349243	
-0.350464	
-0.351257	
-0.353149	
-0.355225	
-0.356567	
-0.357361	
-0.358704	
-0.359741	
-0.361389	
-0.362671	
-0.362732	
-0.363586	
-0.36499	
-0.365295	
-0.365234	
-0.366394	
-0.366882	
-0.367493	
-0.367981	
-0.369507	
-0.370483	
-0.370056	
-0.370728	
-0.37146	
-0.371643	
-0.371155	
-0.370239	
-0.371643	
-0.371338	
-0.37085	
-0.372253	
-0.372131	
-0.371887	
-0.371704	
-0.372498	
-0.371887	
-0.37146	
-0.372131	
-0.372925	
-0.372925	
-0.372131	
-0.373535	
-0.374146	
-0.374268	
-0.373718	
-0.375	
-0.374207	
-0.374023	
-0.37616	
-0.375671	
-0.375916	
-0.37616	
-0.377014	
-0.377075	
-0.378174	
-0.376953	
-0.378723	
-0.378296	
-0.378479	
-0.38031	
-0.379333	
-0.380859	
-0.381165	
-0.38208	
-0.382385	
-0.383667	
-0.38324	
-0.384399	
-0.384827	
-0.385132	
-0.386292	
-0.386108	
-0.386902	
-0.386963	
-0.387085	
-0.387634	
-0.38916	
-0.388916	
-0.387756	
-0.389587	
-0.389404	
-0.388306	
-0.389526	
-0.389771	
-0.389648	
-0.389587	
-0.390625	
-0.390991	
-0.390198	
-0.38916	
-0.390381	
-0.389526	
-0.388672	
-0.389771	
-0.388977	
-0.389221	
-0.38916	
-0.389221	
-0.390381	
-0.389832	
-0.389709	
-0.390198	
-0.389587	
-0.388489	
-0.39032	
-0.390625	
-0.39093	
-0.391113	
-0.39093	
-0.391846	
-0.391663	
-0.391968	
-0.391907	
-0.391296	
-0.391846	
-0.39209	
-0.391541	
-0.392212	
-0.392761	
-0.392456	
-0.392639	
-0.3927	
-0.392517	
-0.393188	
-0.392883	
-0.393127	
-0.393494	
-0.392883	
-0.393799	
-0.394287	
-0.39447	
-0.395081	
-0.394592	
-0.394836	
-0.394836	
-0.395081	
-0.395142	
-0.396179	
-0.394775	
-0.396362	
-0.396179	
-0.396484	
-0.397156	
-0.396118	
-0.396606	
-0.397339	
-0.397278	
-0.397949	
-0.39856	
-0.398071	
-0.399048	
-0.398804	
-0.399109	
-0.400208	
-0.399902	
-0.399414	
-0.399841	
-0.399048	
-0.399658	
-0.399963	
-0.399597	
-0.399536	
-0.399109	
-0.399658	
-0.40033	
-0.39917	
-0.399475	
-0.399414	
-0.39917	
-0.398499	
-0.398926	
-0.399292	
-0.398804	
-0.399902	
-0.398376	
-0.399658	
-0.398132	
-0.397766	
-0.397278	
-0.39624	
-0.395569	
-0.39624	
-0.39624	
-0.395752	
-0.395813	
-0.39563	
-0.395996	
-0.395569	
-0.395813	
-0.395752	
-0.395203	
-0.395081	
-0.39563	
-0.395081	
-0.395752	
-0.395996	
-0.395691	
-0.395813	
-0.396484	
-0.396912	
-0.396362	
-0.397095	
-0.396729	
-0.397278	
-0.398071	
-0.397949	
-0.398376	
-0.39801	
-0.398743	
-0.399475	
-0.400024	
-0.399658	
-0.400635	
-0.400452	
-0.401428	
-0.401917	
-0.401978	
-0.40271	
-0.402466	
-0.402893	
-0.403809	
-0.404114	
-0.403442	
-0.403687	
-0.403442	
-0.404175	
-0.403992	
-0.403992	
-0.40448	
-0.404114	
-0.402893	
-0.404236	
-0.404358	
-0.403748	
-0.404114	
-0.403564	
-0.404053	
-0.403687	
-0.404419	
-0.403625	
-0.403015	
-0.402466	
-0.402771	
-0.402527	
-0.402771	
-0.4021	
-0.401611	
-0.400208	
-0.401428	
-0.40094	
-0.401245	
-0.402222	
-0.401489	
-0.401062	
-0.401062	
-0.401306	
-0.401611	
-0.401855	
-0.399841	
-0.400757	
-0.401367	
-0.401184	
-0.401611	
-0.40094	
-0.401245	
-0.401245	
-0.401001	
-0.401062	
-0.401001	
-0.39917	
-0.40094	
-0.401428	
-0.400635	
-0.401001	
-0.40094	
-0.401489	
-0.401489	
-0.401367	
-0.402039	
-0.402283	
-0.400513	
-0.402344	
-0.402527	
-0.402161	
-0.402283	
-0.401611	
-0.401367	
-0.401611	
-0.401917	
-0.401428	
-0.401611	
-0.400696	
-0.401367	
-0.401367	
-0.402344	
-0.402161	
-0.402039	
-0.401489	
-0.401917	
-0.401917	
-0.401917	
-0.402161	
-0.40155	
-0.401367	
-0.402466	
-0.401978	
-0.403015	
-0.403015	
-0.402466	
-0.403076	
-0.403015	
-0.402649	
-0.403198	
-0.40332	
-0.402466	
-0.402832	
-0.403076	
-0.402832	
-0.403137	
-0.403442	
-0.402954	
-0.403015	
-0.403198	
-0.402771	
-0.402893	
-0.40155	
-0.402466	
-0.402283	
-0.402161	
-0.402161	
-0.402954	
-0.400818	
-0.401123	
-0.401917	
-0.400879	
-0.400452	
-0.399963	
-0.399475	
-0.39978	
-0.399902	
-0.399841	
-0.400146	
-0.399475	
-0.399963	
-0.400818	
-0.399841	
-0.399963	
-0.400513	
-0.400146	
-0.400391	
-0.399597	
-0.401611	
-0.401489	
-0.401917	
-0.400391	
-0.4021	
-0.403503	
-0.402893	
-0.404541	
-0.403931	
-0.404602	
-0.405457	
-0.406128	
-0.406433	
-0.407654	
-0.406189	
-0.407471	
-0.408264	
-0.407776	
-0.40802	
-0.407959	
-0.407715	
-0.408386	
-0.407837	
-0.408447	
-0.40863	
-0.407654	
-0.408875	
-0.409241	
-0.408325	
-0.408875	
-0.409302	
-0.408203	
-0.408875	
-0.408691	
-0.408447	
-0.408752	
-0.408569	
-0.408447	
-0.408936	
-0.408691	
-0.408386	
-0.408875	
-0.408081	
-0.40802	
-0.40863	
-0.407227	
-0.406555	
-0.406311	
-0.406372	
-0.406067	
-0.405518	
-0.403748	
-0.404846	
-0.403564	
-0.40271	
-0.403687	
-0.402954	
-0.40387	
-0.403748	
-0.403076	
-0.403503	
-0.404297	
-0.40332	
-0.402649	
-0.403137	
-0.402161	
-0.403564	
-0.403931	
-0.403503	
-0.403748	
-0.40387	
-0.404236	
-0.404602	
-0.40509	
-0.403809	
-0.404846	
-0.403503	
-0.404968	
-0.406006	
-0.403992	
-0.405334	
-0.40509	
-0.406006	
-0.40564	
-0.406128	
-0.404663	
-0.404114	
-0.404846	
-0.403503	
-0.404602	
-0.403931	
-0.404114	
-0.403931	
-0.404114	
-0.404724	
-0.404663	
-0.404602	
-0.402588	
-0.403381	
-0.403625	
-0.403748	
-0.404541	
-0.403198	
-0.403564	
-0.403809	
-0.404968	
-0.404358	
-0.404724	
-0.403687	
-0.403381	
-0.403381	
-0.402893	
-0.403076	
-0.402405	
-0.402405	
-0.401917	
-0.402466	
-0.403564	
-0.403381	
-0.402161	
-0.401855	
-0.402283	
-0.401123	
-0.401978	
-0.402161	
-0.400635	
-0.401672	
-0.400452	
-0.401428	
-0.401245	
-0.401611	
-0.400574	
-0.400574	
-0.400574	
-0.399109	
-0.401001	
-0.399902	
-0.399658	
-0.399719	
-0.400269	
-0.400146	
-0.401123	
-0.400574	
-0.398804	
-0.400085	
-0.400452	
-0.401001	
-0.401794	
-0.400696	
-0.401184	
-0.401062	
-0.402832	
-0.402283	
-0.40271	
-0.402283	
-0.4021	
-0.402222	
-0.403076	
-0.404114	
-0.403809	
-0.404358	
-0.404968	
-0.40564	
-0.406677	
-0.407166	
-0.406555	
-0.406372	
-0.405701	
-0.406128	
-0.407043	
-0.406738	
-0.406372	
-0.406799	
-0.405823	
-0.407654	
-0.407959	
-0.407532	
-0.40625	
-0.406494	
-0.407043	
-0.406372	
-0.406677	
-0.406128	
-0.406006	
-0.405701	
-0.406006	
-0.405518	
-0.406067	
-0.404846	
-0.404114	
-0.404053	
-0.403931	
-0.40387	
-0.402771	
-0.401855	
-0.401917	
-0.400024	
-0.401428	
-0.400696	
-0.400513	
-0.399414	
-0.399048	
-0.398621	
-0.399109	
-0.399414	
-0.397827	
-0.398682	
-0.39856	
-0.399109	
-0.39917	
-0.399414	
-0.39856	
-0.397644	
-0.398315	
-0.398621	
-0.399353	
-0.398987	
-0.399231	
-0.399536	
-0.399414	
-0.400879	
-0.400757	
-0.401001	
-0.40033	
-0.400757	
-0.400269	
-0.401306	
-0.401917	
-0.400879	
-0.401672	
-0.401733	
-0.402344	
-0.402405	
-0.403687	
-0.402649	
-0.401611	
-0.40271	
-0.402649	
-0.402893	
-0.402222	
-0.402832	
-0.402588	
-0.402649	
-0.403198	
-0.403625	
-0.402954	
-0.40271	
-0.403809	
-0.401978	
-0.403564	
-0.403198	
-0.404053	
-0.403381	
-0.402466	
-0.403931	
-0.404053	
-0.404236	
-0.403198	
-0.402649	
-0.401978	
-0.402954	
-0.403503	
-0.401672	
-0.402222	
-0.402039	
-0.402344	
-0.403137	
-0.403015	
-0.402771	
-0.402466	
-0.402954	
-0.400879	
-0.402771	
-0.403015	
-0.402527	
-0.402832	
-0.401733	
-0.403137	
-0.403564	
-0.403687	
-0.402466	
-0.401794	
-0.401855	
-0.402588	
-0.402954	
-0.401306	
-0.402222	
-0.40155	
-0.402405	
-0.402954	
-0.402771	
-0.402283	
-0.401978	
-0.402466	
-0.400085	
-0.403198	
-0.402161	
-0.4021	
-0.402161	
-0.402527	
-0.403137	
-0.402344	
-0.403687	
-0.402283	
-0.402893	
-0.402222	
-0.402893	
-0.403625	
-0.402649	
-0.403564	
-0.40332	
-0.403931	
-0.404907	
-0.405457	
-0.405273	
-0.40509	
-0.406067	
-0.405029	
-0.406372	
-0.406006	
-0.406067	
-0.406006	
-0.406128	
-0.406677	
-0.406677	
-0.40686	
-0.405701	
-0.405884	
-0.405457	
-0.405945	
-0.405701	
-0.404663	
-0.405396	
-0.404236	
-0.405151	
-0.405334	
-0.405029	
-0.404602	
-0.402649	
-0.40387	
-0.402466	
-0.402161	
-0.401001	
-0.400757	
-0.39978	
-0.398254	
-0.399353	
-0.398804	
-0.398682	
-0.397278	
-0.397339	
-0.396667	
-0.397705	
-0.397766	
-0.395813	
-0.396606	
-0.396667	
-0.396484	
-0.397522	
-0.397644	
-0.396606	
-0.396179	
-0.396973	
-0.395996	
-0.396729	
-0.395813	
-0.396179	
-0.39624	
-0.396179	
-0.396851	
-0.397278	
-0.397827	
-0.396729	
-0.398376	
-0.396729	
-0.398193	
-0.399109	
-0.398376	
-0.39856	
-0.398865	
-0.399597	
-0.400452	
-0.401611	
-0.40155	
-0.400513	
-0.401978	
-0.40094	
-0.4021	
-0.402649	
-0.402771	
-0.402588	
-0.40271	
-0.40387	
-0.403503	
-0.403931	
-0.403564	
-0.403015	
-0.401855	
-0.403503	
-0.404053	
-0.403503	
-0.403381	
-0.403564	
-0.403809	
-0.404236	
-0.403687	
-0.402527	
-0.4021	
-0.401733	
-0.401611	
-0.401367	
-0.401001	
-0.401306	
-0.401306	
-0.401245	
-0.402283	
-0.402344	
-0.402039	
-0.40155	
-0.402344	
-0.401245	
-0.401489	
-0.401001	
-0.401855	
-0.401978	
-0.4021	
-0.401489	
-0.402039	
-0.403259	
-0.401794	
-0.401123	
-0.401245	
-0.40033	
-0.401917	
-0.401611	
-0.401611	
-0.401855	
-0.40155	
-0.402893	
-0.402527	
-0.40271	
-0.401917	
-0.402954	
-0.4021	
-0.402283	
-0.402344	
-0.403076	
-0.403015	
-0.403076	
-0.402832	
-0.403198	
-0.403076	
-0.403748	
-0.403564	
-0.402161	
-0.402771	
-0.402527	
-0.403687	
-0.403625	
-0.403931	
-0.403625	
-0.403809	
-0.404907	
-0.404907	
-0.403931	
-0.404724	
-0.404724	
-0.405151	
-0.405212	
-0.40625	
-0.405457	
-0.405579	
-0.406311	
-0.406128	
-0.405884	
-0.406311	
-0.405945	
-0.404419	
-0.405334	
-0.404785	
-0.404358	
-0.405029	
-0.404419	
-0.404053	
-0.40387	
-0.404724	
-0.403809	
-0.403625	
-0.403931	
-0.403198	
-0.402222	
-0.401978	
-0.402771	
-0.401733	
-0.400879	
-0.401184	
-0.401001	
-0.401062	
-0.400146	
-0.400513	
-0.399231	
-0.39917	
-0.399536	
-0.39978	
-0.399292	
-0.399292	
-0.399292	
-0.399048	
-0.399048	
-0.399353	
-0.398743	
-0.400208	
-0.398987	
-0.398315	
-0.400024	
-0.400146	
-0.400085	
-0.400146	
-0.400452	
-0.400818	
-0.401672	
-0.401611	
-0.400818	
-0.401367	
-0.402222	
-0.402222	
-0.404053	
-0.403931	
-0.404053	
-0.404968	
-0.406128	
-0.405884	
-0.405945	
-0.406372	
-0.406372	
-0.405334	
-0.40564	
-0.406006	
-0.407166	
-0.407104	
-0.406982	
-0.407043	
-0.406982	
-0.408081	
-0.408142	
-0.407898	
-0.407166	
-0.406677	
-0.406799	
-0.407715	
-0.407288	
-0.406555	
-0.406372	
-0.407104	
-0.406799	
-0.406494	
-0.405945	
-0.406555	
-0.404968	
-0.405579	
-0.405334	
-0.404419	
-0.404663	
-0.403931	
-0.403992	
-0.404175	
-0.404968	
-0.404602	
-0.404724	
-0.403809	
-0.402344	
-0.403503	
-0.404297	
-0.403259	
-0.403687	
-0.40387	
-0.403748	
-0.403992	
-0.404175	
-0.40332	
-0.403625	
-0.403137	
-0.402527	
-0.402283	
-0.402893	
-0.403198	
-0.403381	
-0.402954	
-0.403503	
-0.404358	
-0.403625	
-0.403381	
-0.403625	
-0.403076	
-0.404175	
-0.403992	
-0.404724	
-0.404358	
-0.40448	
-0.404297	
-0.404175	
-0.404602	
-0.403076	
-0.404663	
-0.40387	
-0.402527	
-0.403625	
-0.404419	
-0.403625	
-0.403748	
-0.404419	
-0.403992	
-0.404297	
-0.404663	
-0.404541	
-0.403931	
-0.403564	
-0.404541	
-0.403564	
-0.403992	
-0.404358	
-0.404785	
-0.404419	
-0.40448	
-0.405579	
-0.404358	
-0.405334	
-0.403809	
-0.404419	
-0.404541	
-0.404846	
-0.404053	
-0.404419	
-0.404907	
-0.40448	
-0.404358	
-0.405457	
-0.404175	
-0.403931	
-0.402954	
-0.403748	
-0.402832	
-0.403381	
-0.403381	
-0.403687	
-0.402344	
-0.402588	
-0.402527	
-0.400879	
-0.401917	
-0.400696	
-0.399841	
-0.400452	
-0.401733	
-0.40094	
-0.400513	
-0.401001	
-0.40033	
-0.400818	
-0.401245	
-0.400696	
-0.400757	
-0.399414	
-0.400818	
-0.40033	
-0.40155	
-0.401245	
-0.401855	
-0.401306	
-0.402283	
-0.403687	
-0.402466	
-0.404236	
-0.404114	
-0.403625	
-0.40509	
-0.406799	
-0.407104	
-0.407349	
-0.40802	
-0.408447	
-0.408752	
-0.410095	
-0.409119	
-0.40918	
-0.408569	
-0.40918	
-0.409424	
-0.410034	
-0.409973	
-0.409973	
-0.409729	
-0.409912	
-0.410767	
-0.409912	
-0.41095	
-0.409912	
-0.408875	
-0.410217	
-0.410278	
-0.409912	
-0.410156	
-0.409485	
-0.410278	
-0.40979	
-0.41156	
-0.408936	
-0.409912	
-0.408997	
-0.409363	
-0.408997	
-0.408691	
-0.408203	
-0.407654	
-0.408081	
-0.407532	
-0.406738	
-0.406921	
-0.406189	
-0.40509	
-0.403625	
-0.404175	
-0.405029	
-0.403992	
-0.403931	
-0.403564	
-0.403748	
-0.403687	
-0.405029	
-0.402954	
-0.404297	
-0.403564	
-0.403564	
-0.404053	
-0.404053	
-0.40387	
-0.40387	
-0.404419	
-0.404114	
-0.404602	
-0.405212	
-0.40387	
-0.405212	
-0.405334	
-0.405823	
-0.405457	
-0.405579	
-0.405151	
-0.404968	
-0.406494	
-0.405884	
-0.406555	
-0.405701	
-0.406067	
-0.405334	
-0.404053	
-0.405029	
-0.405029	
-0.405273	
-0.404663	
-0.405334	
-0.405273	
-0.405334	
-0.406677	
-0.40448	
-0.405212	
-0.403992	
-0.405212	
-0.404724	
-0.405518	
-0.40564	
-0.405212	
-0.405823	
-0.405701	
-0.406555	
-0.405945	
-0.405334	
-0.404724	
-0.404541	
-0.405701	
-0.404724	
-0.404053	
-0.404175	
-0.404419	
-0.404846	
-0.404236	
-0.404297	
-0.403748	
-0.404114	
-0.40271	
-0.402954	
-0.402771	
-0.403381	
-0.402649	
-0.402588	
-0.403625	
-0.402527	
-0.402832	
-0.402954	
-0.40271	
-0.401306	
-0.401062	
-0.401917	
-0.40155	
-0.401489	
-0.401123	
-0.401001	
-0.402649	
-0.401611	
-0.402161	
-0.401917	
-0.402893	
-0.40094	
-0.401794	
-0.402588	
-0.403076	
-0.402588	
-0.402283	
-0.403503	
-0.403259	
-0.403809	
-0.403809	
-0.403564	
-0.403625	
-0.403259	
-0.405334	
-0.404846	
-0.405945	
-0.406494	
-0.406311	
-0.407532	
-0.407532	
-0.409058	
-0.40686	
-0.408386	
-0.407227	
-0.407593	
-0.408142	
-0.407349	
-0.40802	
-0.407471	
-0.408203	
-0.407898	
-0.408325	
-0.408142	
-0.407288	
-0.408386	
-0.406738	
-0.407593	
-0.406738	
-0.407166	
-0.406555	
-0.405334	
-0.406921	
-0.406067	
-0.406372	
-0.405518	
-0.405762	
-0.404541	
-0.403748	
-0.404724	
-0.403687	
-0.402832	
-0.402344	
-0.402649	
-0.401672	
-0.40155	
-0.401672	
-0.40094	
-0.401428	
-0.398743	
-0.400574	
-0.400574	
-0.400269	
-0.399719	
-0.399414	
-0.40033	
-0.400269	
-0.402161	
-0.399658	
-0.400208	
-0.400452	
-0.40033	
-0.401062	
-0.399536	
-0.400696	
-0.400818	
-0.401367	
-0.401794	
-0.402344	
-0.401978	
-0.400757	
-0.403015	
-0.402344	
-0.403259	
-0.402954	
-0.403137	
-0.403137	
-0.402954	
-0.404724	
-0.403625	
-0.404297	
-0.403809	
-0.403931	
-0.403687	
-0.402405	
-0.403992	
-0.403564	
-0.404114	
-0.403931	
-0.40387	
-0.404419	
-0.404541	
-0.405212	
-0.403687	
-0.40448	
-0.403259	
-0.404724	
-0.405212	
-0.404358	
-0.404602	
-0.404114	
-0.40564	
-0.404907	
-0.405273	
-0.40448	
-0.40448	
-0.404541	
	
