E:\DOCUMENTS AND SETTINGS\JPOTAS\MEUS DOCUMENTOS\UFRJ\RSCI-BM 12 WK SERIES\070730-RSCI-BM-09\RSCI-BM-09-REMG\070730-RSCI-BM-09-REMG-0000.ACQ
0.025000 msec/sample
1 channel
Analog input
Volts
CH1	
2000	
-0.406738	
-0.407654	
-0.407959	
-0.407593	
-0.408264	
-0.408447	
-0.408447	
-0.408936	
-0.407776	
-0.408691	
-0.407959	
-0.408386	
-0.409424	
-0.407349	
-0.408386	
-0.408325	
-0.407959	
-0.408447	
-0.408325	
-0.408203	
-0.408203	
-0.408691	
-0.408813	
-0.408875	
-0.408081	
-0.40802	
-0.407471	
-0.406616	
-0.40686	
-0.40741	
-0.407593	
-0.407959	
-0.407959	
-0.407654	
-0.408203	
-0.407715	
-0.408203	
-0.408081	
-0.405945	
-0.405579	
-0.404114	
-0.403137	
-0.404541	
-0.404297	
-0.404114	
-0.404114	
-0.403687	
-0.404114	
-0.403259	
-0.40332	
-0.404907	
-0.402527	
-0.402771	
-0.401428	
-0.399658	
-0.401978	
-0.401855	
-0.401978	
-0.402039	
-0.402954	
-0.40271	
-0.402527	
-0.403564	
-0.402649	
-0.402771	
-0.402649	
-0.402039	
-0.402161	
-0.402405	
-0.402466	
-0.402954	
-0.403259	
-0.403564	
-0.40271	
-0.403198	
-0.403076	
-0.403076	
-0.404114	
-0.403442	
-0.403992	
-0.403137	
-0.402649	
-0.404053	
-0.403564	
-0.404541	
-0.404724	
-0.404846	
-0.405579	
-0.405212	
-0.40625	
-0.406982	
-0.407288	
-0.407227	
-0.40863	
-0.408264	
-0.409119	
-0.409485	
-0.4104	
-0.409668	
-0.410339	
-0.409851	
-0.410706	
-0.409973	
-0.409241	
-0.410339	
-0.408875	
-0.409058	
-0.408691	
-0.409058	
-0.408447	
-0.408081	
-0.408203	
-0.407288	
-0.407471	
-0.407776	
-0.406921	
-0.407349	
-0.407959	
-0.407227	
-0.407043	
-0.406616	
-0.406189	
-0.408325	
-0.406311	
-0.407104	
-0.406189	
-0.405701	
-0.406433	
-0.405273	
-0.406921	
-0.406799	
-0.405823	
-0.406128	
-0.406433	
-0.405945	
-0.406372	
-0.406494	
-0.406128	
-0.405396	
-0.405396	
-0.405212	
-0.405396	
-0.405396	
-0.405273	
-0.405945	
-0.405334	
-0.405334	
-0.40509	
-0.405273	
-0.405945	
-0.404968	
-0.404358	
-0.405334	
-0.404968	
-0.404846	
-0.404175	
-0.404785	
-0.406311	
-0.405457	
-0.405518	
-0.406128	
-0.405457	
-0.40564	
-0.405334	
-0.405579	
-0.405945	
-0.405457	
-0.405396	
-0.405273	
-0.404236	
-0.406128	
-0.405579	
-0.405884	
-0.405212	
-0.40564	
-0.404846	
-0.403809	
-0.40448	
-0.40509	
-0.403748	
-0.40271	
-0.4021	
-0.401367	
-0.401855	
-0.402283	
-0.401917	
-0.401672	
-0.40033	
-0.400024	
-0.399963	
-0.398621	
-0.400024	
-0.39978	
-0.399353	
-0.398743	
-0.398621	
-0.398926	
-0.399353	
-0.406128	
-0.408325	
-0.408447	
-0.406555	
-0.408142	
-0.408264	
-0.401794	
-0.400208	
-0.399658	
-0.399963	
-0.400879	
-0.400696	
-0.401489	
-0.401245	
-0.399841	
-0.39978	
-0.399597	
-0.399902	
-0.401489	
-0.401123	
-0.401306	
-0.401428	
-0.401245	
-0.401794	
-0.403137	
-0.403076	
-0.402161	
-0.402405	
-0.401978	
-0.401672	
-0.403381	
-0.404358	
-0.404297	
-0.404907	
-0.405457	
-0.404663	
-0.406799	
-0.406677	
-0.408386	
-0.407715	
-0.406494	
-0.407898	
-0.407288	
-0.407776	
-0.409241	
-0.408691	
-0.409058	
-0.409241	
-0.408813	
-0.409363	
-0.40863	
-0.409241	
-0.407898	
-0.408508	
-0.407715	
-0.407227	
-0.407288	
-0.407654	
-0.407471	
-0.407288	
-0.406982	
-0.407349	
-0.406921	
-0.407776	
-0.407288	
-0.407043	
-0.406433	
-0.405762	
-0.406433	
-0.406067	
-0.406189	
-0.405701	
-0.405884	
-0.405823	
-0.406433	
-0.40564	
-0.406311	
-0.405334	
-0.404968	
-0.404053	
-0.404419	
-0.404297	
-0.404114	
-0.403625	
-0.403076	
-0.402832	
-0.401306	
-0.403015	
-0.402344	
-0.401184	
-0.400269	
-0.400269	
-0.399353	
-0.40033	
-0.400024	
-0.40094	
-0.400513	
-0.399841	
-0.400269	
-0.400513	
-0.400696	
-0.401733	
-0.402222	
-0.401917	
-0.40271	
-0.404724	
-0.404846	
-0.405884	
-0.406372	
-0.406067	
-0.408142	
-0.408203	
-0.409424	
-0.410583	
-0.409851	
-0.410767	
-0.411377	
-0.412048	
-0.413574	
-0.412964	
-0.414001	
-0.41333	
-0.411865	
-0.412598	
-0.411987	
-0.411926	
-0.410156	
-0.408447	
-0.40625	
-0.406311	
-0.405334	
-0.404846	
-0.402954	
-0.402588	
-0.401184	
-0.399597	
-0.399658	
-0.400757	
-0.39917	
-0.399048	
-0.398499	
-0.397766	
-0.398254	
-0.398132	
-0.399475	
-0.398926	
-0.398499	
-0.398193	
-0.398315	
-0.399292	
-0.399414	
-0.399353	
-0.399963	
-0.400208	
-0.400879	
-0.401367	
-0.401123	
-0.401184	
-0.402405	
-0.401489	
-0.401184	
-0.400635	
-0.400879	
-0.399292	
-0.398926	
-0.397766	
-0.397339	
-0.397705	
-0.396484	
-0.396118	
-0.395935	
-0.396912	
-0.395874	
-0.397095	
-0.397888	
-0.39624	
-0.398682	
-0.399292	
-0.398743	
-0.39917	
-0.399109	
-0.398987	
-0.398865	
-0.397339	
-0.398499	
-0.396118	
-0.394958	
-0.395508	
-0.392029	
-0.392212	
-0.39032	
-0.387634	
-0.387695	
-0.385071	
-0.383301	
-0.381348	
-0.380005	
-0.377686	
-0.374817	
-0.373047	
-0.368958	
-0.366943	
-0.36438	
-0.360291	
-0.359253	
-0.35675	
-0.353516	
-0.35022	
-0.347534	
-0.345642	
-0.342346	
-0.339172	
-0.336365	
-0.333191	
-0.330261	
-0.328125	
-0.327515	
-0.325928	
-0.323792	
-0.32251	
-0.321167	
-0.321533	
-0.320068	
-0.320129	
-0.3172	
-0.316101	
-0.31604	
-0.314453	
-0.31543	
-0.314819	
-0.315491	
-0.315002	
-0.315674	
-0.316467	
-0.316223	
-0.318298	
-0.317566	
-0.316956	
-0.318176	
-0.31781	
-0.320068	
-0.321533	
-0.32251	
-0.323914	
-0.325073	
-0.326721	
-0.327698	
-0.329956	
-0.330444	
-0.33136	
-0.332886	
-0.334534	
-0.336243	
-0.337524	
-0.339539	
-0.341125	
-0.34314	
-0.344849	
-0.34613	
-0.347534	
-0.348267	
-0.348267	
-0.348694	
-0.350464	
-0.349609	
-0.351685	
-0.352844	
-0.353821	
-0.354492	
-0.356262	
-0.357117	
-0.357605	
-0.357727	
-0.358459	
-0.358276	
-0.360596	
-0.361389	
-0.361389	
-0.362854	
-0.363159	
-0.363281	
-0.364746	
-0.365967	
-0.365784	
-0.366333	
-0.36615	
-0.366333	
-0.368164	
-0.368835	
-0.369019	
-0.369019	
-0.36908	
-0.369568	
-0.369507	
-0.369934	
-0.369568	
-0.36969	
-0.368835	
-0.3703	
-0.370728	
-0.371094	
-0.37146	
-0.37207	
-0.372192	
-0.37262	
-0.37323	
-0.373718	
-0.37323	
-0.373657	
-0.372925	
-0.374207	
-0.375916	
-0.37616	
-0.377075	
-0.377686	
-0.378662	
-0.3797	
-0.380798	
-0.381897	
-0.381348	
-0.38147	
-0.380737	
-0.382141	
-0.384277	
-0.384277	
-0.385376	
-0.385437	
-0.385803	
-0.386475	
-0.387878	
-0.389465	
-0.388	
-0.387878	
-0.386841	
-0.387024	
-0.387695	
-0.388672	
-0.387817	
-0.387268	
-0.387573	
-0.386414	
-0.388123	
-0.388062	
-0.387573	
-0.386169	
-0.386719	
-0.385742	
-0.386292	
-0.386597	
-0.386536	
-0.386719	
-0.386658	
-0.386414	
-0.387817	
-0.387939	
-0.387207	
-0.386902	
-0.386841	
-0.387146	
-0.386841	
-0.387085	
-0.387756	
-0.387451	
-0.387207	
-0.387329	
-0.388062	
-0.387085	
-0.386414	
-0.385193	
-0.385803	
-0.385742	
-0.385559	
-0.385254	
-0.385254	
-0.384521	
-0.384827	
-0.385498	
-0.385376	
-0.383972	
-0.383606	
-0.384033	
-0.383057	
-0.38501	
-0.385193	
-0.385803	
-0.386292	
-0.385559	
-0.386536	
-0.386719	
-0.386719	
-0.386841	
-0.385498	
-0.386047	
-0.387268	
-0.386841	
-0.387085	
-0.387085	
-0.387634	
-0.387207	
-0.387817	
-0.388245	
-0.388367	
-0.387451	
-0.38739	
-0.387634	
-0.38739	
-0.388672	
-0.389099	
-0.388977	
-0.389771	
-0.390442	
-0.390564	
-0.391113	
-0.391663	
-0.391113	
-0.391907	
-0.392517	
-0.391968	
-0.393677	
-0.394104	
-0.394226	
-0.39502	
-0.396973	
-0.396606	
-0.396729	
-0.397034	
-0.395813	
-0.396362	
-0.397522	
-0.396851	
-0.397888	
-0.397766	
-0.397766	
-0.398132	
-0.398682	
-0.399109	
-0.397339	
-0.397461	
-0.396484	
-0.395142	
-0.397095	
-0.396851	
-0.397278	
-0.397278	
-0.397156	
-0.397156	
-0.398438	
-0.398499	
-0.397583	
-0.397827	
-0.397522	
-0.396301	
-0.396912	
-0.395935	
-0.396484	
-0.396729	
-0.397217	
-0.397339	
-0.398193	
-0.398376	
-0.397949	
-0.3974	
-0.398315	
-0.397156	
-0.398071	
-0.397644	
-0.396118	
-0.397888	
-0.398499	
-0.398987	
-0.399231	
-0.399841	
-0.400208	
-0.398315	
-0.39978	
-0.400513	
-0.398438	
-0.399353	
-0.399231	
-0.399719	
-0.400391	
-0.400879	
-0.400757	
-0.400696	
-0.400757	
-0.400269	
-0.399841	
-0.401123	
-0.400757	
-0.401001	
-0.400818	
-0.400818	
-0.400818	
-0.401489	
-0.401855	
-0.401245	
-0.400879	
-0.401123	
-0.401611	
-0.401672	
-0.40094	
-0.399963	
-0.402039	
-0.401245	
-0.401489	
-0.401733	
-0.400452	
-0.40033	
-0.400024	
-0.399597	
-0.398987	
-0.398987	
-0.398682	
-0.398315	
-0.398193	
-0.397827	
-0.398315	
-0.398071	
-0.397461	
-0.396606	
-0.397217	
-0.396423	
-0.397095	
-0.397278	
-0.397034	
-0.396606	
-0.396484	
-0.397705	
-0.398254	
-0.39801	
-0.397705	
-0.397705	
-0.397095	
-0.397217	
-0.39801	
-0.398804	
-0.398743	
-0.398376	
-0.398193	
-0.39801	
-0.39917	
-0.399109	
-0.399414	
-0.398315	
-0.397644	
-0.397827	
-0.398499	
-0.400269	
-0.400696	
-0.399353	
-0.399902	
-0.399719	
-0.401001	
-0.401245	
-0.401123	
-0.401672	
-0.401855	
-0.401611	
-0.402954	
-0.402954	
-0.40564	
-0.404724	
-0.405029	
-0.405701	
-0.405029	
-0.406616	
-0.406311	
-0.406677	
-0.406433	
-0.405945	
-0.406921	
-0.407043	
-0.406738	
-0.407776	
-0.406494	
-0.406616	
-0.406067	
-0.406128	
-0.405579	
-0.405334	
-0.404663	
-0.403809	
-0.405334	
-0.404724	
-0.405151	
-0.405579	
-0.404541	
-0.404785	
-0.403931	
-0.403503	
-0.403687	
-0.402954	
-0.403625	
-0.403076	
-0.403931	
-0.404297	
-0.403931	
-0.404236	
-0.404297	
-0.404114	
-0.403931	
-0.403503	
-0.403381	
-0.403015	
-0.403625	
-0.403442	
-0.403503	
-0.403076	
-0.403748	
-0.404541	
-0.404724	
-0.404846	
-0.402832	
-0.402466	
-0.402466	
-0.402405	
-0.402954	
-0.403015	
-0.40271	
-0.403076	
-0.402832	
-0.403259	
-0.404053	
-0.403931	
-0.403259	
-0.403442	
-0.40155	
-0.402954	
-0.403015	
-0.403687	
-0.403564	
-0.403625	
-0.403381	
-0.403625	
-0.403809	
-0.404358	
-0.403992	
-0.403198	
-0.402283	
-0.403259	
-0.401245	
-0.402649	
-0.402405	
-0.40271	
-0.4021	
-0.401917	
-0.402039	
-0.402405	
-0.40094	
-0.402344	
-0.400391	
-0.398438	
-0.399414	
-0.3974	
-0.397522	
-0.39856	
-0.398682	
-0.398071	
-0.397827	
-0.398315	
-0.397461	
-0.3974	
-0.397217	
-0.396729	
-0.397034	
-0.395447	
-0.396362	
-0.396973	
-0.398071	
-0.397766	
-0.39856	
-0.398743	
-0.399292	
-0.399231	
-0.398438	
-0.399414	
-0.399109	
-0.39856	
-0.399414	
-0.399658	
-0.399353	
-0.398926	
-0.399841	
-0.400513	
-0.400391	
-0.400269	
-0.400024	
-0.40033	
-0.400208	
-0.400024	
-0.400879	
-0.401428	
-0.401367	
-0.402039	
-0.402283	
-0.401855	
-0.402649	
-0.403748	
-0.403076	
-0.403381	
-0.404541	
-0.403687	
-0.405029	
-0.405579	
-0.406067	
-0.406982	
-0.407288	
-0.407959	
-0.407898	
-0.407715	
-0.408081	
-0.408203	
-0.408264	
-0.407776	
-0.408569	
-0.408325	
-0.40802	
-0.407043	
-0.408325	
-0.408691	
-0.40741	
-0.407532	
-0.407104	
-0.407104	
-0.406616	
-0.406311	
-0.407104	
-0.406677	
-0.406982	
-0.406372	
-0.406311	
-0.406738	
-0.40741	
-0.406555	
-0.407288	
-0.405518	
-0.404663	
-0.405151	
-0.405579	
-0.406067	
-0.405396	
-0.405212	
-0.405151	
-0.405518	
-0.404602	
-0.404419	
-0.404724	
-0.401978	
-0.402527	
-0.4021	
-0.400208	
-0.401855	
-0.401978	
-0.401184	
-0.400757	
-0.400391	
-0.399963	
-0.399902	
-0.39978	
-0.400269	
-0.399536	
-0.399719	
-0.398865	
-0.399719	
-0.399597	
-0.400024	
-0.400146	
-0.400574	
-0.400513	
-0.400818	
-0.400818	
-0.401428	
-0.401062	
-0.401978	
-0.400879	
-0.400696	
-0.401489	
-0.400757	
-0.401733	
-0.401245	
-0.401428	
-0.400696	
-0.401367	
-0.400879	
-0.401672	
-0.401062	
-0.400879	
-0.400269	
-0.401062	
-0.401245	
-0.401001	
-0.400696	
-0.400635	
-0.400452	
-0.400452	
-0.399902	
-0.401489	
-0.400024	
-0.400085	
-0.399475	
-0.399353	
-0.399719	
-0.400146	
-0.399963	
-0.398987	
-0.399475	
-0.399353	
-0.398438	
-0.400391	
-0.400208	
-0.399719	
-0.399414	
-0.399414	
-0.399292	
-0.399292	
-0.399353	
-0.399475	
-0.398865	
-0.398438	
-0.398499	
-0.399963	
-0.399536	
-0.398743	
-0.398743	
-0.399109	
-0.397949	
-0.399292	
-0.399719	
-0.399414	
-0.399475	
-0.399292	
-0.398926	
-0.399475	
-0.399353	
-0.400208	
-0.399475	
-0.398438	
-0.399658	
-0.400024	
-0.400696	
-0.402039	
-0.4021	
-0.402283	
-0.402039	
-0.402771	
-0.401978	
-0.40332	
-0.403809	
-0.403625	
-0.403564	
-0.403015	
-0.404724	
-0.405457	
-0.404968	
-0.405334	
-0.406006	
-0.404846	
-0.406311	
-0.405762	
-0.404968	
-0.405029	
-0.405212	
-0.404907	
-0.405212	
-0.405212	
-0.405212	
-0.405457	
-0.405151	
-0.40564	
-0.405579	
-0.404968	
-0.405029	
-0.403809	
-0.403687	
-0.404968	
-0.403931	
-0.40509	
-0.404907	
-0.404663	
-0.404236	
-0.404419	
-0.40564	
-0.405151	
-0.404236	
-0.404175	
-0.401855	
-0.403137	
-0.402954	
-0.403015	
-0.402954	
-0.401978	
-0.402588	
-0.401367	
-0.401184	
-0.401794	
-0.400146	
-0.400635	
-0.399048	
-0.398499	
-0.398743	
-0.397522	
-0.398987	
-0.398499	
-0.398865	
-0.39856	
-0.398071	
-0.39978	
-0.400024	
-0.399414	
-0.400208	
-0.400513	
-0.39917	
-0.399963	
-0.400024	
-0.399719	
-0.400696	
-0.400452	
-0.399902	
-0.401306	
-0.400757	
-0.401794	
-0.401367	
-0.400818	
-0.401306	
-0.401978	
-0.401184	
-0.401794	
-0.401184	
-0.400452	
-0.401306	
-0.40271	
-0.402039	
-0.401855	
-0.402466	
-0.401917	
-0.401794	
-0.401917	
-0.402222	
-0.402893	
-0.402466	
-0.402466	
-0.402039	
-0.402039	
-0.402466	
-0.402344	
-0.402771	
-0.402161	
-0.403137	
-0.40332	
-0.403137	
-0.404175	
-0.404419	
-0.403809	
-0.403931	
-0.403442	
-0.40387	
-0.403564	
-0.403503	
-0.403687	
-0.405701	
-0.404236	
-0.403076	
-0.403198	
-0.401855	
-0.40332	
-0.403931	
-0.402161	
-0.403748	
-0.403076	
-0.402954	
-0.403992	
-0.403748	
-0.404663	
-0.40332	
-0.403503	
-0.403931	
-0.403625	
-0.403748	
-0.404541	
-0.40625	
-0.405029	
-0.405884	
-0.406311	
-0.404602	
-0.407471	
-0.407715	
-0.407715	
-0.408569	
-0.406921	
-0.408081	
-0.408325	
-0.408997	
-0.409424	
-0.409607	
-0.409485	
-0.408752	
-0.409851	
-0.410095	
-0.410706	
-0.410645	
-0.409424	
-0.408691	
-0.40863	
-0.408691	
-0.409363	
-0.408752	
-0.408325	
-0.407898	
-0.40802	
-0.407959	
-0.408081	
-0.40863	
-0.407471	
-0.407532	
-0.407349	
-0.40625	
-0.408203	
-0.407166	
-0.407288	
-0.407166	
-0.407532	
-0.40686	
-0.407471	
-0.406921	
-0.406738	
-0.406067	
-0.405762	
-0.405151	
-0.40509	
-0.405212	
-0.405029	
-0.404358	
-0.40448	
-0.404297	
-0.404541	
-0.403931	
-0.40387	
-0.402832	
-0.401123	
-0.400696	
-0.401367	
-0.399841	
-0.400391	
-0.400146	
-0.398987	
-0.399536	
-0.399353	
-0.400085	
-0.4021	
-0.400024	
-0.400513	
-0.39978	
-0.397278	
-0.400391	
-0.399353	
-0.40033	
-0.399841	
-0.400635	
-0.400879	
-0.401062	
-0.401306	
-0.401794	
-0.401489	
-0.401917	
-0.401001	
-0.401794	
-0.400024	
-0.400513	
-0.401733	
-0.402039	
-0.4021	
-0.40271	
-0.403381	
-0.402649	
-0.402466	
-0.402832	
-0.403625	
-0.403931	
-0.403992	
-0.404175	
-0.40271	
-0.404541	
-0.405457	
-0.406372	
-0.406555	
-0.406433	
-0.406982	
-0.407043	
-0.406616	
-0.408936	
-0.407776	
-0.408203	
-0.408264	
-0.406921	
-0.408142	
-0.408569	
-0.409058	
-0.408936	
-0.408813	
-0.408997	
-0.408203	
-0.408386	
-0.408264	
-0.406921	
-0.40802	
-0.407166	
-0.406433	
-0.406555	
-0.405518	
-0.407288	
-0.406494	
-0.406616	
-0.406494	
-0.406494	
-0.407288	
-0.406494	
-0.406372	
-0.406433	
-0.407043	
-0.406006	
-0.406616	
-0.407043	
-0.405701	
-0.40741	
-0.406677	
-0.406494	
-0.408142	
-0.407166	
-0.406616	
-0.407104	
-0.406921	
-0.407715	
-0.40802	
-0.408386	
-0.407776	
-0.40802	
-0.407471	
-0.408752	
-0.40979	
-0.408813	
-0.408691	
-0.408081	
-0.408447	
-0.407654	
-0.40863	
-0.409302	
-0.410645	
-0.409058	
-0.409058	
-0.408813	
-0.408875	
-0.408875	
-0.409424	
-0.408752	
-0.407654	
-0.409302	
-0.408691	
-0.408447	
-0.409424	
-0.40863	
-0.409424	
-0.408325	
-0.407837	
-0.408569	
-0.407227	
-0.408264	
-0.407837	
-0.40863	
-0.40863	
-0.408142	
-0.408203	
-0.408081	
-0.407166	
-0.407043	
-0.40686	
-0.407715	
-0.405945	
-0.405579	
-0.404175	
-0.404419	
-0.404968	
-0.405457	
-0.404541	
-0.404785	
-0.403625	
-0.40271	
-0.403381	
-0.404175	
-0.404358	
-0.402954	
-0.402832	
-0.401245	
-0.400513	
-0.40332	
-0.404175	
-0.404663	
-0.403503	
-0.403564	
-0.402527	
-0.402832	
-0.403687	
-0.40448	
-0.404663	
-0.402771	
-0.403748	
-0.403198	
-0.402893	
-0.404846	
-0.403931	
-0.403564	
-0.403748	
-0.402527	
-0.405457	
-0.40448	
-0.404541	
-0.404175	
-0.404785	
-0.40509	
-0.404785	
-0.405334	
-0.40564	
-0.405762	
-0.405823	
-0.405945	
-0.407654	
-0.407043	
-0.408386	
-0.408264	
-0.409241	
-0.410339	
-0.408752	
-0.410461	
-0.410339	
-0.410645	
-0.411804	
-0.411072	
-0.411194	
-0.410889	
-0.410889	
-0.411316	
-0.40979	
-0.410645	
-0.410034	
-0.410522	
-0.410034	
-0.408691	
-0.40918	
-0.408447	
-0.408691	
-0.409241	
-0.408447	
-0.408569	
-0.408875	
-0.407532	
-0.407715	
-0.407532	
-0.408508	
-0.408142	
-0.407288	
-0.407593	
-0.408386	
-0.407166	
-0.407471	
-0.406921	
-0.407532	
-0.406067	
-0.407166	
-0.407104	
-0.406921	
-0.406982	
-0.407043	
-0.406982	
-0.405579	
-0.407471	
-0.407471	
-0.406555	
-0.40625	
-0.405884	
-0.406799	
-0.406616	
-0.406738	
-0.404602	
-0.405579	
-0.405823	
-0.405151	
-0.405701	
-0.407227	
-0.40564	
-0.405273	
-0.405701	
-0.406128	
-0.406006	
-0.405884	
-0.406494	
-0.405823	
-0.406433	
-0.405884	
-0.406799	
-0.407104	
-0.406921	
-0.406677	
-0.406494	
-0.40509	
-0.406372	
-0.406555	
-0.40625	
-0.406067	
-0.405945	
-0.405396	
-0.405823	
-0.406006	
-0.406006	
-0.405823	
-0.406372	
-0.40448	
-0.404236	
-0.403442	
-0.403076	
-0.402771	
-0.402222	
-0.402161	
-0.402283	
-0.401978	
-0.402283	
-0.401428	
-0.401367	
-0.40155	
-0.401245	
-0.400757	
-0.400879	
-0.398987	
-0.399475	
-0.399048	
-0.399292	
-0.40033	
-0.401428	
-0.40094	
-0.401062	
-0.401123	
-0.401367	
-0.401917	
-0.402649	
-0.401306	
-0.400757	
-0.401428	
-0.400024	
-0.4021	
-0.403198	
-0.401978	
-0.401917	
-0.402161	
-0.401306	
-0.403198	
-0.403687	
-0.403992	
-0.402954	
-0.401855	
-0.402893	
-0.403381	
-0.402832	
-0.404236	
-0.404175	
-0.404053	
-0.404297	
-0.405029	
-0.406738	
-0.406555	
-0.405884	
-0.406616	
-0.406433	
-0.407227	
-0.408447	
-0.409485	
-0.407959	
-0.408997	
-0.409485	
-0.409973	
-0.410034	
-0.411377	
-0.411316	
-0.4104	
-0.409973	
-0.407898	
-0.40979	
-0.410522	
-0.409363	
-0.409119	
-0.407654	
-0.409119	
-0.408813	
-0.409119	
-0.408569	
-0.409302	
-0.408264	
-0.407837	
-0.407288	
-0.408508	
-0.408508	
-0.408264	
-0.407776	
-0.406982	
-0.407471	
-0.407715	
-0.408081	
-0.407898	
-0.407288	
-0.406982	
-0.406921	
-0.406372	
-0.407471	
-0.406555	
-0.405945	
-0.405212	
-0.405029	
-0.404602	
-0.404663	
-0.404053	
-0.404175	
-0.403931	
-0.401855	
-0.403076	
-0.401733	
-0.401672	
-0.401794	
-0.401978	
-0.400513	
-0.401489	
-0.401917	
-0.401489	
-0.40094	
-0.402039	
-0.401428	
-0.401917	
-0.401794	
-0.402344	
-0.401001	
-0.402283	
-0.402222	
-0.403137	
-0.402893	
-0.403931	
-0.40332	
-0.403381	
-0.40332	
-0.403809	
-0.403381	
-0.404236	
-0.403259	
-0.40332	
-0.403381	
-0.403564	
-0.403564	
-0.404785	
-0.403381	
-0.403748	
-0.402954	
-0.402466	
-0.403137	
-0.403625	
-0.402222	
-0.402954	
-0.402588	
-0.402649	
-0.402649	
-0.40271	
-0.402832	
-0.403259	
-0.401855	
-0.401917	
-0.401917	
-0.401428	
-0.403381	
-0.400513	
-0.401855	
-0.401611	
-0.401733	
-0.402588	
-0.402161	
-0.4021	
-0.4021	
-0.4021	
-0.401672	
-0.401489	
-0.402649	
-0.401062	
-0.40094	
-0.401367	
-0.400391	
-0.400513	
-0.401611	
-0.401611	
-0.401428	
-0.40155	
-0.401917	
-0.402527	
-0.402222	
-0.402405	
-0.4021	
-0.400757	
-0.401733	
-0.401733	
-0.401611	
-0.402283	
-0.4021	
-0.402588	
-0.402588	
-0.403992	
-0.403809	
-0.40564	
-0.40448	
-0.404907	
-0.404846	
-0.403625	
-0.406311	
-0.404907	
-0.405884	
-0.406189	
-0.406006	
-0.406616	
-0.407776	
-0.407349	
-0.407349	
-0.407959	
-0.406799	
-0.406311	
-0.407593	
-0.405823	
-0.406433	
-0.406555	
-0.406494	
-0.406555	
-0.406982	
-0.407654	
-0.407776	
-0.406738	
-0.406738	
-0.406982	
-0.40686	
-0.407471	
-0.406738	
-0.405029	
-0.406128	
-0.406677	
-0.406799	
-0.406616	
-0.407654	
-0.406372	
-0.406006	
-0.40564	
-0.406006	
-0.407837	
-0.405457	
-0.40509	
-0.40448	
-0.403687	
-0.404785	
-0.40448	
-0.404175	
-0.403809	
-0.403198	
-0.402283	
-0.400879	
-0.401855	
-0.401611	
-0.401489	
-0.400574	
-0.399353	
-0.399231	
-0.399414	
-0.399902	
-0.400696	
-0.400024	
-0.399902	
-0.399658	
-0.399475	
-0.401123	
-0.40155	
-0.401672	
-0.401917	
-0.401062	
-0.400208	
-0.401917	
-0.4021	
-0.40271	
-0.401917	
-0.401917	
-0.401428	
-0.402527	
-0.402588	
-0.403687	
-0.403015	
-0.401733	
-0.403259	
-0.401794	
-0.403076	
-0.403931	
-0.402832	
-0.402527	
-0.402649	
-0.402466	
-0.403625	
-0.403259	
-0.403381	
-0.402832	
-0.403137	
-0.403564	
-0.404114	
-0.405029	
-0.404175	
-0.403503	
-0.403625	
-0.40332	
-0.403687	
-0.403625	
-0.404236	
-0.404175	
-0.40448	
-0.404968	
-0.405029	
-0.405212	
-0.405396	
-0.405823	
-0.404663	
-0.403503	
-0.404724	
-0.40448	
-0.404602	
-0.404236	
-0.403442	
-0.404785	
-0.404175	
-0.404114	
-0.403931	
-0.40271	
-0.404602	
-0.403809	
-0.404358	
-0.404236	
-0.403748	
-0.404236	
-0.404114	
-0.404297	
-0.404846	
-0.404602	
-0.405701	
-0.404907	
-0.405396	
-0.406067	
-0.406677	
-0.407349	
-0.406128	
-0.407593	
-0.407288	
-0.407593	
-0.408142	
-0.408569	
-0.409058	
-0.409485	
-0.409485	
-0.409485	
-0.409119	
-0.410217	
-0.410095	
-0.40979	
-0.410095	
-0.409607	
-0.40979	
-0.408325	
-0.409851	
-0.410645	
-0.409119	
-0.409119	
-0.40918	
-0.408325	
-0.409241	
-0.408325	
-0.40863	
-0.408386	
-0.408386	
-0.408142	
-0.408081	
-0.407471	
-0.408875	
-0.40802	
-0.408081	
-0.407227	
-0.407104	
-0.407043	
-0.407104	
-0.406982	
-0.407349	
-0.407227	
-0.406494	
-0.406311	
-0.406494	
-0.405701	
-0.40625	
-0.405273	
-0.405701	
-0.404358	
-0.404358	
-0.403931	
-0.403137	
-0.402832	
-0.403076	
-0.402283	
-0.402039	
-0.401306	
-0.401489	
-0.401184	
-0.400146	
-0.400391	
-0.400085	
-0.399963	
-0.399231	
-0.400635	
-0.400208	
-0.400513	
-0.401184	
-0.401489	
-0.401001	
-0.401001	
-0.401672	
-0.402222	
-0.401428	
-0.401733	
-0.40033	
-0.400818	
-0.401428	
-0.401794	
-0.401794	
-0.402527	
-0.402283	
-0.402222	
-0.402649	
-0.403076	
-0.403015	
-0.402893	
-0.402771	
-0.401917	
-0.402222	
-0.402832	
-0.403137	
-0.404236	
-0.404175	
-0.404663	
-0.405579	
-0.405334	
-0.406982	
-0.406921	
-0.406677	
-0.405457	
-0.40625	
-0.406006	
-0.407043	
-0.408142	
-0.40863	
-0.408569	
-0.408997	
-0.409363	
-0.409668	
-0.409485	
-0.409912	
-0.408691	
-0.408752	
-0.408386	
-0.408203	
-0.408813	
-0.409119	
-0.408203	
-0.407715	
-0.407532	
-0.406982	
-0.407349	
-0.407959	
-0.407471	
-0.406738	
-0.407288	
-0.406067	
-0.40686	
-0.406982	
-0.406921	
-0.406677	
-0.406616	
-0.406738	
-0.407349	
-0.40686	
-0.407288	
-0.408508	
-0.407288	
-0.407104	
-0.406921	
-0.406799	
-0.408081	
-0.407104	
-0.407227	
-0.407471	
-0.408508	
-0.40741	
-0.407837	
-0.40802	
-0.408875	
	
