E:\DOCUMENTS AND SETTINGS\JPOTAS\MEUS DOCUMENTOS\UFRJ\RSCI-BM 12 WK SERIES\070730-RSCI-BM-09\RSCI-BM-09-REMG\070730-RSCI-BM-09-REMG-0005.ACQ
0.025000 msec/sample
1 channel
Analog input
Volts
CH1	
2000	
-0.399109	
-0.400024	
-0.39978	
-0.400146	
-0.401245	
-0.40155	
-0.401245	
-0.40033	
-0.399902	
-0.400391	
-0.400635	
-0.400696	
-0.399902	
-0.400818	
-0.401001	
-0.401123	
-0.403442	
-0.402954	
-0.402954	
-0.402222	
-0.403259	
-0.402649	
-0.402588	
-0.402344	
-0.402649	
-0.402222	
-0.402405	
-0.402832	
-0.404053	
-0.402893	
-0.402466	
-0.402283	
-0.402161	
-0.402344	
-0.402893	
-0.4021	
-0.403442	
-0.40332	
-0.403015	
-0.404175	
-0.403809	
-0.403625	
-0.402832	
-0.403687	
-0.401978	
-0.402954	
-0.403381	
-0.402954	
-0.403259	
-0.403625	
-0.40387	
-0.405273	
-0.404358	
-0.404541	
-0.402832	
-0.403442	
-0.4021	
-0.402283	
-0.401489	
-0.401306	
-0.401123	
-0.401245	
-0.400818	
-0.401978	
-0.40155	
-0.40033	
-0.399292	
-0.399719	
-0.39917	
-0.399597	
-0.398438	
-0.399414	
-0.399719	
-0.400085	
-0.400635	
-0.400452	
-0.401184	
-0.400085	
-0.399292	
-0.400208	
-0.40033	
-0.400757	
-0.399841	
-0.40094	
-0.401306	
-0.402161	
-0.403198	
-0.402771	
-0.403137	
-0.402344	
-0.4021	
-0.401672	
-0.402771	
-0.402588	
-0.403198	
-0.403564	
-0.403748	
-0.403931	
-0.404907	
-0.404785	
-0.404419	
-0.403564	
-0.403931	
-0.403137	
-0.404785	
-0.404236	
-0.405151	
-0.405518	
-0.406067	
-0.406799	
-0.406555	
-0.40741	
-0.406128	
-0.405334	
-0.405701	
-0.406677	
-0.406616	
-0.406311	
-0.406555	
-0.407043	
-0.406982	
-0.407593	
-0.407532	
-0.407227	
-0.405762	
-0.405762	
-0.405273	
-0.406128	
-0.405823	
-0.406311	
-0.406189	
-0.406067	
-0.406067	
-0.406616	
-0.406494	
-0.406067	
-0.405579	
-0.405396	
-0.404846	
-0.405762	
-0.405212	
-0.405457	
-0.405396	
-0.405945	
-0.406555	
-0.405823	
-0.406738	
-0.405518	
-0.406128	
-0.404663	
-0.405151	
-0.405823	
-0.405151	
-0.405579	
-0.405029	
-0.405212	
-0.405579	
-0.405579	
-0.405823	
-0.404053	
-0.404907	
-0.403564	
-0.403259	
-0.403625	
-0.40387	
-0.403687	
-0.40332	
-0.403992	
-0.403992	
-0.404297	
-0.405029	
-0.403198	
-0.404114	
-0.403076	
-0.403809	
-0.403503	
-0.403809	
-0.403748	
-0.40387	
-0.404541	
-0.404114	
-0.404541	
-0.404663	
-0.404358	
-0.403564	
-0.403625	
-0.404419	
-0.403381	
-0.404846	
-0.404602	
-0.405151	
-0.405884	
-0.405701	
-0.40509	
-0.405273	
-0.405823	
-0.404968	
-0.40332	
-0.413391	
-0.414246	
-0.414856	
-0.415161	
-0.415649	
-0.414795	
-0.408081	
-0.407532	
-0.406372	
-0.40686	
-0.406372	
-0.406677	
-0.406921	
-0.407288	
-0.407898	
-0.407959	
-0.408691	
-0.408203	
-0.408936	
-0.409485	
-0.408142	
-0.407288	
-0.408081	
-0.408081	
-0.406799	
-0.407288	
-0.407043	
-0.407043	
-0.407593	
-0.407532	
-0.406921	
-0.407898	
-0.407104	
-0.406677	
-0.405151	
-0.405945	
-0.405151	
-0.405151	
-0.404663	
-0.405273	
-0.404785	
-0.405029	
-0.404297	
-0.40271	
-0.404236	
-0.402954	
-0.402527	
-0.40332	
-0.402893	
-0.403259	
-0.403198	
-0.403748	
-0.403015	
-0.40271	
-0.403809	
-0.401917	
-0.401733	
-0.402222	
-0.40094	
-0.401489	
-0.402222	
-0.40271	
-0.402649	
-0.403809	
-0.403625	
-0.40332	
-0.404236	
-0.40332	
-0.402893	
-0.402039	
-0.403076	
-0.401794	
-0.403137	
-0.403564	
-0.404053	
-0.40564	
-0.406067	
-0.406128	
-0.405762	
-0.40564	
-0.41449	
-0.414551	
-0.416382	
-0.416687	
-0.416748	
-0.416077	
-0.408875	
-0.408508	
-0.407349	
-0.407776	
-0.407043	
-0.406006	
-0.407227	
-0.406677	
-0.408325	
-0.408875	
-0.409668	
-0.410339	
-0.411499	
-0.412476	
-0.412659	
-0.414307	
-0.41333	
-0.413574	
-0.414368	
-0.416443	
-0.417297	
-0.418518	
-0.419434	
-0.421021	
-0.422974	
-0.4245	
-0.42627	
-0.426575	
-0.428589	
-0.430603	
-0.430725	
-0.433167	
-0.435242	
-0.436646	
-0.437439	
-0.438782	
-0.440308	
-0.440186	
-0.442017	
-0.440552	
-0.441589	
-0.441223	
-0.441284	
-0.442688	
-0.442993	
-0.442871	
-0.443848	
-0.444885	
-0.444702	
-0.445801	
-0.444031	
-0.445068	
-0.44458	
-0.44397	
-0.445435	
-0.446167	
-0.446716	
-0.446899	
-0.447571	
-0.448059	
-0.447937	
-0.448364	
-0.447693	
-0.447998	
-0.447388	
-0.447449	
-0.447632	
-0.447266	
-0.446472	
-0.446472	
-0.446838	
-0.445374	
-0.445496	
-0.445007	
-0.442749	
-0.443054	
-0.441711	
-0.442322	
-0.441162	
-0.440735	
-0.440002	
-0.440002	
-0.440247	
-0.440247	
-0.441589	
-0.439087	
-0.441101	
-0.440369	
-0.441711	
-0.4422	
-0.442749	
-0.442688	
-0.442322	
-0.442993	
-0.441284	
-0.441956	
-0.439636	
-0.437256	
-0.437317	
-0.434753	
-0.434265	
-0.433105	
-0.43158	
-0.42981	
-0.428406	
-0.428101	
-0.424683	
-0.423706	
-0.420532	
-0.41925	
-0.416565	
-0.412842	
-0.412903	
-0.411072	
-0.408691	
-0.406799	
-0.404724	
-0.401672	
-0.398743	
-0.396912	
-0.391602	
-0.389771	
-0.385437	
-0.383667	
-0.380859	
-0.378113	
-0.375	
-0.372742	
-0.370972	
-0.368408	
-0.367126	
-0.364807	
-0.362	
-0.361206	
-0.359192	
-0.359497	
-0.358459	
-0.357971	
-0.3573	
-0.356873	
-0.357178	
-0.355286	
-0.355408	
-0.353088	
-0.354187	
-0.353394	
-0.353027	
-0.35376	
-0.354858	
-0.355042	
-0.355835	
-0.357544	
-0.358093	
-0.359802	
-0.358459	
-0.360413	
-0.361084	
-0.359863	
-0.361572	
-0.362	
-0.362732	
-0.36322	
-0.364441	
-0.364197	
-0.366028	
-0.364014	
-0.365234	
-0.365906	
-0.366821	
-0.368896	
-0.370117	
-0.371887	
-0.373413	
-0.375305	
-0.377319	
-0.380371	
-0.380188	
-0.381836	
-0.383606	
-0.385315	
-0.387512	
-0.389465	
-0.391296	
-0.393005	
-0.394714	
-0.397095	
-0.39917	
-0.398621	
-0.399597	
-0.400208	
-0.399963	
-0.401428	
-0.401794	
-0.401489	
-0.401062	
-0.400574	
-0.399292	
-0.398987	
-0.397034	
-0.395142	
-0.393555	
-0.391479	
-0.390808	
-0.389832	
-0.388184	
-0.386169	
-0.38501	
-0.382385	
-0.380737	
-0.379028	
-0.376709	
-0.373047	
-0.370911	
-0.369507	
-0.368591	
-0.365723	
-0.364441	
-0.361938	
-0.359863	
-0.358276	
-0.357117	
-0.353821	
-0.351257	
-0.348999	
-0.347778	
-0.346191	
-0.34436	
-0.343628	
-0.342712	
-0.341003	
-0.340088	
-0.340576	
-0.338684	
-0.337708	
-0.335266	
-0.335876	
-0.335327	
-0.335022	
-0.334045	
-0.334045	
-0.332886	
-0.332275	
-0.333435	
-0.332397	
-0.330383	
-0.329041	
-0.3302	
-0.330261	
-0.330322	
-0.330811	
-0.331482	
-0.331848	
-0.332764	
-0.332947	
-0.334473	
-0.334167	
-0.332642	
-0.336182	
-0.335999	
-0.337646	
-0.339233	
-0.339905	
-0.340454	
-0.341614	
-0.342407	
-0.34375	
-0.345398	
-0.34613	
-0.34668	
-0.348022	
-0.349792	
-0.351807	
-0.353149	
-0.354675	
-0.355774	
-0.357178	
-0.359009	
-0.359924	
-0.359619	
-0.359985	
-0.36145	
-0.363098	
-0.36499	
-0.36554	
-0.366821	
-0.368713	
-0.368958	
-0.370361	
-0.370972	
-0.369995	
-0.372131	
-0.373352	
-0.374207	
-0.376343	
-0.375854	
-0.376526	
-0.378357	
-0.379578	
-0.380249	
-0.380493	
-0.380615	
-0.381348	
-0.382141	
-0.382446	
-0.383301	
-0.38385	
-0.384033	
-0.384888	
-0.384338	
-0.386169	
-0.386108	
-0.386108	
-0.385498	
-0.387085	
-0.387085	
-0.387573	
-0.388	
-0.387146	
-0.38678	
-0.387634	
-0.387512	
-0.387695	
-0.386108	
-0.385681	
-0.385315	
-0.38562	
-0.385071	
-0.385376	
-0.385498	
-0.385559	
-0.385864	
-0.38501	
-0.386475	
-0.385986	
-0.386292	
-0.385437	
-0.385925	
-0.385437	
-0.386658	
-0.386475	
-0.387085	
-0.388123	
-0.386963	
-0.388733	
-0.388123	
-0.389343	
-0.388062	
-0.388611	
-0.388733	
-0.389343	
-0.389587	
-0.390259	
-0.390747	
-0.390137	
-0.392578	
-0.391479	
-0.393005	
-0.392456	
-0.393005	
-0.392822	
-0.392212	
-0.393494	
-0.393799	
-0.392761	
-0.392212	
-0.393555	
-0.392822	
-0.392883	
-0.391357	
-0.39325	
-0.393066	
-0.392456	
-0.394226	
-0.392639	
-0.393494	
-0.393311	
-0.393738	
-0.393311	
-0.393005	
-0.392151	
-0.393005	
-0.392517	
-0.393127	
-0.394836	
-0.393188	
-0.393677	
-0.394775	
-0.393799	
-0.394043	
-0.394714	
-0.394409	
-0.395142	
-0.395691	
-0.396301	
-0.398254	
-0.396912	
-0.397156	
-0.396973	
-0.39801	
-0.398071	
-0.398315	
-0.398621	
-0.398865	
-0.398071	
-0.399414	
-0.399292	
-0.398743	
-0.398987	
-0.397339	
-0.399231	
-0.398987	
-0.397827	
-0.398987	
-0.398804	
-0.398193	
-0.399048	
-0.398865	
-0.398499	
-0.39856	
-0.397217	
-0.398132	
-0.398376	
-0.397888	
-0.397827	
-0.397766	
-0.398071	
-0.398315	
-0.3974	
-0.397278	
-0.397827	
-0.396912	
-0.396729	
-0.396423	
-0.39624	
-0.396301	
-0.394958	
-0.394287	
-0.394714	
-0.393127	
-0.392334	
-0.392151	
-0.390808	
-0.390503	
-0.389832	
-0.388916	
-0.388794	
-0.388428	
-0.388062	
-0.388794	
-0.387878	
-0.387573	
-0.387695	
-0.385925	
-0.386963	
-0.38739	
-0.385681	
-0.387268	
-0.387085	
-0.387207	
-0.388245	
-0.388184	
-0.387817	
-0.387695	
-0.38916	
-0.387207	
-0.388489	
-0.388977	
-0.389221	
-0.390137	
-0.389954	
-0.391479	
-0.391602	
-0.391541	
-0.391541	
-0.392395	
-0.391968	
-0.393005	
-0.393677	
-0.392517	
-0.394348	
-0.394226	
-0.395386	
-0.396179	
-0.396667	
-0.396423	
-0.396851	
-0.397644	
-0.398376	
-0.398804	
-0.397766	
-0.399536	
-0.39978	
-0.40033	
-0.401428	
-0.401733	
-0.40094	
-0.401428	
-0.403198	
-0.402283	
-0.403137	
-0.402344	
-0.401672	
-0.402649	
-0.402832	
-0.40332	
-0.402893	
-0.402771	
-0.402771	
-0.403381	
-0.403015	
-0.403625	
-0.403015	
-0.401489	
-0.402832	
-0.403076	
-0.404114	
-0.403381	
-0.404236	
-0.403259	
-0.403748	
-0.404175	
-0.403992	
-0.403259	
-0.402222	
-0.403076	
-0.402649	
-0.404358	
-0.404358	
-0.40448	
-0.403564	
-0.40387	
-0.404053	
-0.403564	
-0.404297	
-0.401917	
-0.402832	
-0.402283	
-0.402405	
-0.401794	
-0.402344	
-0.401489	
-0.400696	
-0.40094	
-0.400818	
-0.40094	
-0.40033	
-0.399719	
-0.400208	
-0.400269	
-0.401733	
-0.401184	
-0.40033	
-0.400208	
-0.400635	
-0.401062	
-0.400513	
-0.400391	
-0.400696	
-0.400391	
-0.400391	
-0.401367	
-0.401611	
-0.400757	
-0.400757	
-0.401123	
-0.402039	
-0.401489	
-0.401306	
-0.400757	
-0.400696	
-0.401001	
-0.402222	
-0.402283	
-0.401733	
-0.401733	
-0.40155	
-0.402283	
-0.401917	
-0.402161	
-0.401672	
-0.401428	
-0.401855	
-0.402161	
-0.403442	
-0.403076	
-0.402893	
-0.403381	
-0.403992	
-0.405212	
-0.404358	
-0.405151	
-0.40509	
-0.404663	
-0.405029	
-0.406128	
-0.406616	
-0.405579	
-0.406006	
-0.405457	
-0.406372	
-0.406616	
-0.40686	
-0.406067	
-0.405762	
-0.405701	
-0.405151	
-0.406311	
-0.404968	
-0.404785	
-0.403137	
-0.405029	
-0.405029	
-0.40387	
-0.403809	
-0.403625	
-0.403931	
-0.403625	
-0.403748	
-0.402405	
-0.40155	
-0.401184	
-0.401062	
-0.401062	
-0.400574	
-0.400635	
-0.400452	
-0.400513	
-0.400391	
-0.401672	
-0.40155	
-0.400208	
-0.399902	
-0.400085	
-0.399963	
-0.399963	
-0.400085	
-0.399902	
-0.399231	
-0.399414	
-0.398865	
-0.400635	
-0.400513	
-0.40033	
-0.398926	
-0.400391	
-0.401001	
-0.400269	
-0.400085	
-0.400085	
-0.400269	
-0.40033	
-0.401428	
-0.400269	
-0.400635	
-0.401062	
-0.401367	
-0.402222	
-0.402161	
-0.402405	
-0.402466	
-0.401611	
-0.403137	
-0.403503	
-0.404114	
-0.404297	
-0.404297	
-0.404846	
-0.404846	
-0.405579	
-0.405212	
-0.405579	
-0.404602	
-0.405579	
-0.406128	
-0.406189	
-0.406494	
-0.405945	
-0.405945	
-0.406494	
-0.406494	
-0.405334	
-0.405457	
-0.404907	
-0.40509	
-0.404663	
-0.403992	
-0.40448	
-0.404297	
-0.403442	
-0.403748	
-0.403687	
-0.404114	
-0.403992	
-0.403625	
-0.404053	
-0.404846	
-0.404846	
-0.404968	
-0.406311	
-0.405273	
-0.405518	
-0.405518	
-0.406616	
-0.405396	
-0.405762	
-0.405457	
-0.406189	
-0.406311	
-0.405273	
-0.406372	
-0.406128	
-0.405151	
-0.406738	
-0.406128	
-0.406677	
-0.406677	
-0.406006	
-0.406433	
-0.406433	
-0.406372	
-0.406433	
-0.407043	
-0.405762	
-0.406189	
-0.406616	
-0.405945	
-0.406067	
-0.406921	
-0.40448	
-0.405884	
-0.405579	
-0.405579	
-0.405396	
-0.404663	
-0.40332	
-0.404175	
-0.404663	
-0.403931	
-0.40387	
-0.403931	
-0.404419	
-0.404297	
-0.404541	
-0.404114	
-0.40448	
-0.403748	
-0.403625	
-0.404175	
-0.40332	
-0.403259	
-0.403198	
-0.402344	
-0.40332	
-0.403564	
-0.403503	
-0.403687	
-0.403442	
-0.403198	
-0.403381	
-0.403687	
-0.403503	
-0.403503	
-0.402344	
-0.403137	
-0.403564	
-0.403259	
-0.403198	
-0.403076	
-0.402954	
-0.403992	
-0.404053	
-0.404236	
-0.404236	
-0.405029	
-0.404175	
-0.40564	
-0.40564	
-0.405762	
-0.406372	
-0.405884	
-0.405579	
-0.406616	
-0.40741	
-0.406494	
-0.406555	
-0.406677	
-0.407227	
-0.406982	
-0.407776	
-0.407288	
-0.407471	
-0.406677	
-0.406555	
-0.407898	
-0.406799	
-0.40625	
-0.405884	
-0.405518	
-0.405762	
-0.405945	
-0.404907	
-0.405212	
-0.40448	
-0.403992	
-0.404785	
-0.404114	
-0.403687	
-0.40332	
-0.402771	
-0.404114	
-0.403809	
-0.403687	
-0.403931	
-0.403503	
-0.402954	
-0.402588	
-0.403748	
-0.4021	
-0.401978	
-0.401733	
-0.402283	
-0.402222	
-0.401611	
-0.400757	
-0.401917	
-0.400818	
-0.399658	
-0.401001	
-0.401001	
-0.401001	
-0.400269	
-0.399841	
-0.400452	
-0.400696	
-0.401001	
-0.400696	
-0.400391	
-0.40033	
-0.400757	
-0.400574	
-0.400818	
-0.400574	
-0.399353	
-0.401367	
-0.400574	
-0.400757	
-0.40094	
-0.40155	
-0.401062	
-0.400513	
-0.402161	
-0.400879	
-0.400879	
-0.400696	
-0.401184	
-0.400391	
-0.400818	
-0.40094	
-0.401245	
-0.40033	
-0.400757	
-0.400574	
-0.401794	
-0.400513	
-0.400879	
-0.400208	
-0.400818	
-0.400879	
-0.401428	
-0.400696	
-0.402405	
-0.401978	
-0.401855	
-0.403015	
-0.402344	
-0.402405	
-0.402222	
-0.403198	
-0.402954	
-0.402954	
-0.403076	
-0.402832	
-0.403137	
-0.402588	
-0.403076	
-0.401917	
-0.402527	
-0.402405	
-0.401184	
-0.403015	
-0.403015	
-0.402832	
-0.402222	
-0.403503	
-0.402649	
-0.401611	
-0.403748	
-0.402222	
-0.402405	
-0.402039	
-0.402649	
-0.401917	
-0.401855	
-0.402954	
-0.401917	
-0.402466	
-0.401733	
-0.402405	
-0.403076	
-0.401978	
-0.4021	
-0.400818	
-0.402222	
-0.401794	
-0.401978	
-0.401062	
-0.402344	
-0.401306	
-0.401611	
-0.401978	
-0.400757	
-0.400024	
-0.399963	
-0.399963	
-0.399414	
-0.39917	
-0.399719	
-0.399536	
-0.398987	
-0.398926	
-0.398926	
-0.398376	
-0.398376	
-0.398376	
-0.397522	
-0.398132	
-0.398499	
-0.398804	
-0.398315	
-0.400024	
-0.399231	
-0.398926	
-0.399658	
-0.399597	
-0.399719	
-0.399414	
-0.399353	
-0.400146	
-0.400513	
-0.401306	
-0.401672	
-0.401733	
-0.401245	
-0.402222	
-0.402344	
-0.402283	
-0.402283	
-0.4021	
-0.4021	
-0.402954	
-0.402954	
-0.403015	
-0.404297	
-0.403442	
-0.402649	
-0.403809	
-0.404053	
-0.40387	
-0.403625	
-0.403259	
-0.403564	
-0.403687	
-0.403931	
-0.40387	
-0.403992	
-0.403748	
-0.404053	
-0.404236	
-0.404236	
-0.403931	
-0.404114	
-0.402954	
-0.404053	
-0.403748	
-0.402893	
-0.404053	
-0.403259	
-0.4021	
-0.402832	
-0.403198	
-0.401611	
-0.401062	
-0.401428	
-0.400696	
-0.400574	
-0.400574	
-0.40033	
-0.399963	
-0.399719	
-0.39917	
-0.399536	
-0.400024	
-0.398926	
-0.39856	
-0.398743	
-0.399048	
-0.398926	
-0.399292	
-0.399292	
-0.398804	
-0.398682	
-0.399719	
-0.399475	
-0.399475	
-0.398926	
-0.399902	
-0.398621	
-0.399902	
-0.400452	
-0.401306	
-0.40094	
-0.400757	
-0.400879	
-0.400879	
-0.401978	
-0.400757	
-0.399841	
-0.400391	
-0.400208	
-0.399841	
-0.399658	
-0.400513	
-0.399536	
-0.399048	
-0.399902	
-0.399109	
-0.400085	
-0.398804	
-0.400024	
-0.399292	
-0.398926	
-0.398804	
-0.399902	
-0.398499	
-0.398499	
-0.397766	
-0.398254	
-0.39856	
-0.398376	
-0.398193	
-0.39856	
-0.397705	
-0.398621	
-0.398682	
-0.398621	
-0.398438	
-0.398376	
-0.398743	
-0.39917	
-0.400146	
-0.398926	
-0.399597	
-0.398865	
-0.399292	
-0.399902	
-0.400085	
-0.400391	
-0.400513	
-0.39978	
-0.400391	
-0.401184	
-0.401306	
-0.400696	
-0.40155	
-0.400574	
-0.400879	
-0.401184	
-0.401428	
-0.401123	
-0.401062	
-0.400574	
-0.401611	
-0.401978	
-0.401062	
-0.401978	
-0.401672	
-0.401611	
-0.401794	
-0.401428	
-0.401367	
-0.401611	
-0.401123	
-0.401306	
-0.401489	
-0.402039	
-0.400391	
-0.402283	
-0.401123	
-0.401794	
-0.402527	
-0.402893	
-0.401917	
-0.401855	
-0.402466	
-0.401428	
-0.400635	
-0.400757	
-0.400696	
-0.399658	
-0.398132	
-0.399353	
-0.398743	
-0.398743	
-0.398804	
-0.397766	
-0.397339	
-0.398438	
-0.398865	
-0.397461	
-0.398865	
-0.398132	
-0.398315	
-0.399109	
-0.399048	
-0.398499	
-0.398254	
-0.399109	
-0.398865	
-0.399109	
-0.398499	
-0.398926	
-0.39917	
-0.399292	
-0.400818	
-0.399841	
-0.401367	
-0.400574	
-0.400757	
-0.401428	
-0.400818	
-0.401123	
-0.401245	
-0.402344	
-0.40155	
-0.401794	
-0.402344	
-0.402344	
-0.4021	
-0.401794	
-0.402649	
-0.402466	
-0.402954	
-0.403931	
-0.403442	
-0.403809	
-0.40332	
-0.404175	
-0.40387	
-0.404968	
-0.404358	
-0.403687	
-0.404663	
-0.404907	
-0.405334	
-0.405518	
-0.405945	
-0.405151	
-0.404114	
-0.405823	
-0.405273	
-0.405334	
-0.404785	
-0.404907	
-0.403992	
-0.405029	
-0.405396	
-0.404114	
-0.40448	
-0.404663	
-0.404968	
-0.403442	
-0.40509	
-0.404419	
-0.40332	
-0.404602	
-0.40448	
-0.40448	
-0.404297	
-0.404358	
-0.404358	
-0.403259	
-0.404663	
-0.404541	
-0.404297	
-0.404114	
-0.404114	
-0.405273	
-0.404114	
-0.404114	
-0.403992	
-0.404846	
-0.404175	
-0.402527	
-0.403564	
-0.404114	
-0.403076	
-0.4021	
-0.402771	
-0.402588	
-0.402588	
-0.403259	
-0.401733	
-0.402527	
-0.401855	
-0.402771	
-0.401855	
-0.401917	
-0.401978	
-0.40155	
-0.4021	
-0.401794	
-0.402344	
-0.40271	
-0.403076	
-0.402039	
-0.40155	
-0.403442	
-0.402649	
-0.402283	
-0.402344	
-0.402222	
-0.403381	
-0.402954	
-0.403381	
-0.402527	
-0.403687	
-0.403564	
-0.402466	
-0.402649	
-0.403564	
-0.403564	
-0.403015	
-0.402588	
-0.403442	
-0.403748	
-0.404297	
-0.404236	
-0.404175	
-0.403625	
-0.405334	
-0.404602	
-0.404297	
-0.404602	
-0.405518	
-0.406067	
-0.405762	
-0.406494	
-0.406067	
-0.406921	
-0.406128	
-0.406677	
-0.40802	
-0.407104	
-0.407166	
-0.406738	
-0.406372	
-0.40741	
-0.407349	
-0.407837	
-0.40686	
-0.407532	
-0.406372	
-0.406799	
-0.405823	
-0.406128	
-0.405334	
-0.405518	
-0.405029	
-0.40564	
-0.405762	
-0.406128	
-0.406006	
-0.405029	
-0.403992	
-0.404785	
-0.404114	
-0.403381	
-0.403015	
-0.403198	
-0.402954	
-0.403259	
-0.403687	
-0.40155	
-0.403198	
-0.402161	
-0.402344	
-0.402344	
-0.401855	
-0.401733	
-0.400391	
-0.401855	
-0.402039	
-0.401917	
-0.401428	
-0.400879	
-0.401917	
-0.401062	
-0.402527	
-0.400879	
-0.401306	
-0.400574	
-0.401489	
-0.402588	
-0.402039	
-0.402161	
-0.401672	
-0.40271	
-0.4021	
-0.402771	
-0.402161	
-0.402771	
-0.403381	
-0.403564	
-0.403259	
-0.404053	
-0.404785	
-0.404907	
-0.404663	
-0.406372	
-0.404297	
-0.406311	
-0.406311	
-0.406311	
-0.406006	
-0.405823	
-0.406677	
-0.406677	
-0.40802	
-0.40686	
-0.407166	
-0.407104	
-0.407471	
-0.40741	
-0.40686	
-0.407104	
-0.406311	
-0.406677	
-0.406311	
-0.406311	
-0.406433	
-0.405334	
-0.406494	
-0.404907	
-0.405884	
-0.405212	
-0.404541	
-0.404114	
-0.40448	
-0.403992	
-0.404663	
-0.405518	
-0.405029	
-0.405273	
-0.406311	
-0.405762	
-0.405884	
-0.406311	
-0.405701	
-0.405151	
-0.406128	
-0.40741	
-0.406677	
-0.407166	
-0.406555	
-0.407593	
-0.406433	
-0.407227	
-0.407227	
-0.407104	
-0.406982	
-0.406982	
-0.40625	
-0.407532	
-0.407227	
-0.407166	
-0.406311	
-0.407288	
-0.406311	
-0.407715	
-0.407043	
-0.406799	
-0.406128	
-0.406799	
-0.406921	
-0.40686	
-0.407166	
-0.406372	
-0.406006	
-0.405823	
-0.405945	
-0.405457	
-0.404114	
-0.405273	
-0.404114	
-0.404236	
-0.405762	
-0.405579	
-0.404846	
-0.404419	
-0.405457	
-0.403564	
-0.404785	
-0.404175	
-0.404419	
-0.403748	
-0.403931	
-0.403809	
-0.403931	
-0.40448	
-0.40387	
-0.404175	
-0.403931	
-0.403259	
-0.403992	
-0.403625	
-0.404236	
-0.403015	
-0.404175	
-0.405151	
-0.404297	
-0.404846	
-0.403748	
-0.403992	
-0.403564	
-0.403809	
-0.404236	
-0.404175	
-0.404663	
-0.403748	
-0.404602	
-0.406067	
-0.406189	
-0.406128	
-0.406067	
-0.406799	
-0.40625	
-0.407898	
-0.40686	
-0.407227	
-0.406799	
-0.407654	
-0.406921	
-0.407959	
-0.407959	
-0.407898	
-0.407837	
-0.407532	
-0.40741	
-0.407898	
-0.407349	
-0.407471	
-0.406006	
-0.406494	
-0.407471	
-0.406738	
-0.406921	
-0.405823	
-0.406555	
-0.405334	
-0.405945	
-0.405334	
-0.404541	
-0.404419	
-0.403564	
-0.404602	
-0.404785	
-0.404602	
-0.404175	
-0.403442	
-0.403687	
-0.403259	
-0.404236	
-0.403137	
-0.403137	
-0.402649	
-0.402771	
-0.402954	
-0.402649	
-0.402954	
-0.401367	
-0.40271	
-0.401855	
-0.401611	
-0.401489	
-0.401489	
-0.401489	
-0.400757	
-0.401428	
-0.401428	
-0.401428	
-0.401001	
-0.401001	
-0.401917	
-0.401672	
-0.401794	
-0.401672	
-0.40155	
-0.401184	
-0.401062	
-0.401489	
-0.401428	
-0.401672	
-0.401245	
-0.401855	
-0.401184	
-0.401733	
-0.402283	
-0.402161	
-0.40155	
-0.401794	
-0.402039	
-0.401672	
-0.402161	
-0.401367	
-0.401855	
-0.402649	
-0.400818	
-0.402161	
-0.401917	
-0.402161	
-0.401978	
-0.401367	
-0.401489	
-0.402222	
-0.403198	
-0.402039	
-0.403259	
-0.403564	
-0.403748	
-0.404175	
-0.403564	
-0.403931	
-0.403564	
-0.404114	
-0.403503	
-0.403931	
-0.403625	
-0.404297	
-0.404785	
-0.403015	
-0.404297	
-0.404358	
-0.404602	
-0.403748	
-0.403687	
-0.404846	
-0.404053	
-0.404358	
-0.403687	
-0.404785	
-0.404175	
-0.403076	
-0.404297	
-0.403931	
-0.404053	
-0.403625	
-0.403015	
-0.402832	
-0.403381	
-0.403748	
-0.4021	
-0.403259	
-0.403259	
-0.402832	
-0.403748	
-0.402588	
-0.402832	
-0.402344	
-0.40332	
-0.401978	
-0.402466	
-0.4021	
-0.402588	
-0.403076	
-0.401611	
-0.402039	
-0.401611	
-0.402039	
-0.401062	
-0.400024	
-0.401245	
-0.400208	
-0.400696	
-0.39978	
-0.400635	
-0.400085	
-0.398926	
-0.400085	
-0.399475	
-0.399231	
-0.399475	
-0.39978	
-0.399231	
-0.400024	
-0.40094	
-0.400696	
-0.40094	
-0.400208	
-0.400391	
-0.401428	
-0.401123	
-0.400818	
-0.400574	
-0.401794	
-0.401245	
-0.401855	
-0.402161	
-0.402832	
-0.402954	
-0.4021	
-0.403748	
-0.402954	
-0.404236	
-0.403687	
-0.404419	
-0.403992	
-0.404114	
-0.40448	
-0.403992	
-0.404968	
-0.404236	
-0.403992	
-0.40564	
-0.405884	
-0.405334	
-0.404724	
-0.406006	
-0.405029	
-0.405212	
-0.405457	
-0.405212	
-0.405762	
-0.404846	
-0.405151	
-0.405945	
-0.40564	
-0.405029	
-0.404785	
-0.406372	
-0.405212	
-0.405273	
-0.405029	
-0.405212	
-0.404602	
-0.403625	
-0.40387	
-0.403198	
-0.402466	
-0.402283	
-0.402039	
-0.401306	
-0.402222	
-0.401733	
-0.40033	
-0.40155	
-0.400696	
-0.400757	
-0.400818	
-0.400818	
-0.400391	
-0.40033	
-0.400818	
-0.400024	
-0.400208	
-0.400696	
-0.400757	
-0.400635	
-0.400208	
-0.400696	
-0.400513	
-0.400879	
-0.400391	
-0.399841	
-0.401184	
-0.40155	
-0.402039	
-0.402222	
-0.403198	
-0.402466	
-0.402344	
-0.403442	
-0.403198	
-0.402405	
-0.401917	
-0.401855	
-0.40155	
-0.401672	
-0.40155	
-0.401428	
-0.401917	
-0.400879	
-0.400269	
-0.401428	
-0.400696	
-0.400574	
-0.400024	
-0.400085	
-0.400513	
-0.400818	
-0.400208	
-0.400146	
-0.400574	
-0.400024	
-0.400269	
-0.400024	
-0.400208	
	
