E:\DOCUMENTS AND SETTINGS\JPOTAS\MEUS DOCUMENTOS\UFRJ\RSCI-BM 12 WK SERIES\070730-RSCI-BM-09\RSCI-BM-09-REMG\070730-RSCI-BM-09-REMG-0010.ACQ
0.025000 msec/sample
1 channel
Analog input
Volts
CH1	
2000	
-0.398987	
-0.40033	
-0.399902	
-0.400574	
-0.401184	
-0.400513	
-0.401062	
-0.401611	
-0.401794	
-0.399902	
-0.401672	
-0.401428	
-0.401367	
-0.401855	
-0.402161	
-0.402588	
-0.40271	
-0.403442	
-0.403625	
-0.403992	
-0.405334	
-0.404724	
-0.404846	
-0.40564	
-0.406555	
-0.406311	
-0.406433	
-0.408142	
-0.407654	
-0.40863	
-0.407776	
-0.408264	
-0.407959	
-0.407959	
-0.408386	
-0.406921	
-0.407898	
-0.407654	
-0.408142	
-0.408203	
-0.407837	
-0.407776	
-0.40686	
-0.407349	
-0.406311	
-0.406433	
-0.406555	
-0.405273	
-0.406128	
-0.405151	
-0.406128	
-0.405029	
-0.404968	
-0.405029	
-0.404602	
-0.404724	
-0.40332	
-0.40332	
-0.40387	
-0.403748	
-0.403442	
-0.402771	
-0.404114	
-0.403625	
-0.404297	
-0.40332	
-0.403442	
-0.402832	
-0.403137	
-0.403931	
-0.40155	
-0.402771	
-0.4021	
-0.402954	
-0.402954	
-0.402893	
-0.403931	
-0.402283	
-0.403137	
-0.402832	
-0.402344	
-0.403687	
-0.401489	
-0.403137	
-0.403198	
-0.403931	
-0.403564	
-0.404236	
-0.403931	
-0.403564	
-0.404114	
-0.403442	
-0.403381	
-0.403381	
-0.403259	
-0.403076	
-0.402039	
-0.402893	
-0.403198	
-0.403137	
-0.40271	
-0.403015	
-0.402893	
-0.402893	
-0.403748	
-0.403137	
-0.40271	
-0.40271	
-0.403503	
-0.403137	
-0.403625	
-0.403076	
-0.403259	
-0.403625	
-0.402405	
-0.4021	
-0.403809	
-0.402588	
-0.403687	
-0.40332	
-0.403931	
-0.403381	
-0.403931	
-0.402344	
-0.403137	
-0.40387	
-0.403015	
-0.401917	
-0.402649	
-0.402771	
-0.403198	
-0.402466	
-0.40271	
-0.402832	
-0.402649	
-0.402771	
-0.402405	
-0.401917	
-0.401917	
-0.402832	
-0.402283	
-0.402039	
-0.402039	
-0.403381	
-0.402588	
-0.402954	
-0.402161	
-0.402893	
-0.401672	
-0.400635	
-0.401306	
-0.401978	
-0.39978	
-0.401184	
-0.400635	
-0.40094	
-0.401123	
-0.401917	
-0.400879	
-0.401917	
-0.402832	
-0.402344	
-0.402649	
-0.403137	
-0.403931	
-0.404724	
-0.405579	
-0.405334	
-0.406128	
-0.405884	
-0.407227	
-0.407104	
-0.40686	
-0.407349	
-0.408447	
-0.408203	
-0.408569	
-0.408447	
-0.409119	
-0.408691	
-0.408875	
-0.408142	
-0.409729	
-0.408752	
-0.407654	
-0.408325	
-0.40863	
-0.408142	
-0.408752	
-0.408691	
-0.408752	
-0.408936	
-0.409546	
-0.408508	
-0.409607	
-0.409058	
-0.408691	
-0.408081	
-0.416077	
-0.41803	
-0.418457	
-0.418701	
-0.417725	
-0.417358	
-0.409119	
-0.408203	
-0.407776	
-0.407227	
-0.407593	
-0.406189	
-0.405518	
-0.405701	
-0.405396	
-0.405396	
-0.405029	
-0.404968	
-0.402954	
-0.40387	
-0.404175	
-0.40271	
-0.403809	
-0.402771	
-0.403381	
-0.403442	
-0.403625	
-0.403381	
-0.403442	
-0.404297	
-0.403931	
-0.40448	
-0.404114	
-0.404419	
-0.405334	
-0.404053	
-0.405396	
-0.40564	
-0.405701	
-0.405151	
-0.405457	
-0.40625	
-0.406006	
-0.405762	
-0.405029	
-0.405396	
-0.405334	
-0.404419	
-0.406006	
-0.405396	
-0.405151	
-0.405701	
-0.405518	
-0.40509	
-0.405945	
-0.406616	
-0.405762	
-0.405823	
-0.404724	
-0.405579	
-0.405701	
-0.405518	
-0.405884	
-0.406189	
-0.406006	
-0.406189	
-0.406738	
-0.405762	
-0.405334	
-0.406677	
-0.405151	
-0.406067	
-0.406433	
-0.406555	
-0.406677	
-0.406738	
-0.406372	
-0.407288	
-0.407837	
-0.406006	
-0.405396	
-0.406921	
-0.405457	
-0.405701	
-0.405762	
-0.405823	
-0.406067	
-0.405579	
-0.405579	
-0.405396	
-0.405701	
-0.404541	
-0.405212	
-0.403931	
-0.405945	
-0.406372	
-0.406555	
-0.407043	
-0.408142	
-0.40918	
-0.411072	
-0.412781	
-0.41272	
-0.413269	
-0.415833	
-0.416809	
-0.418823	
-0.421021	
-0.422668	
-0.424316	
-0.42627	
-0.429443	
-0.431641	
-0.433899	
-0.435181	
-0.438599	
-0.439575	
-0.442932	
-0.445374	
-0.446838	
-0.449341	
-0.450928	
-0.452759	
-0.453918	
-0.455872	
-0.455627	
-0.456787	
-0.458191	
-0.45813	
-0.459412	
-0.460571	
-0.460693	
-0.461792	
-0.462341	
-0.462708	
-0.46405	
-0.462952	
-0.462708	
-0.464294	
-0.46405	
-0.465454	
-0.466064	
-0.466309	
-0.466797	
-0.467346	
-0.467834	
-0.46814	
-0.467957	
-0.467041	
-0.467163	
-0.466003	
-0.465454	
-0.465271	
-0.463989	
-0.463196	
-0.462097	
-0.460449	
-0.459595	
-0.458923	
-0.457031	
-0.455078	
-0.454712	
-0.453186	
-0.45343	
-0.452576	
-0.450256	
-0.450806	
-0.44989	
-0.450134	
-0.4505	
-0.450317	
-0.449036	
-0.449768	
-0.449158	
-0.450378	
-0.450989	
-0.450256	
-0.450439	
-0.449951	
-0.449524	
-0.449402	
-0.449463	
-0.446655	
-0.445984	
-0.444519	
-0.442688	
-0.440918	
-0.439087	
-0.436707	
-0.434631	
-0.431763	
-0.429443	
-0.427734	
-0.42395	
-0.420776	
-0.418152	
-0.414795	
-0.412842	
-0.409546	
-0.406616	
-0.403198	
-0.39978	
-0.396545	
-0.392883	
-0.390686	
-0.385864	
-0.381592	
-0.37854	
-0.373657	
-0.371826	
-0.367798	
-0.36322	
-0.360779	
-0.357239	
-0.354919	
-0.352051	
-0.350098	
-0.346802	
-0.34552	
-0.343323	
-0.34198	
-0.341248	
-0.339539	
-0.339111	
-0.33783	
-0.33783	
-0.337708	
-0.338196	
-0.337036	
-0.33551	
-0.336914	
-0.336548	
-0.337097	
-0.336792	
-0.33728	
-0.337769	
-0.33844	
-0.339478	
-0.340637	
-0.340881	
-0.340515	
-0.341919	
-0.343262	
-0.344788	
-0.345337	
-0.345581	
-0.347717	
-0.347961	
-0.350403	
-0.351868	
-0.352844	
-0.353088	
-0.354858	
-0.355591	
-0.357666	
-0.359192	
-0.35907	
-0.360657	
-0.362	
-0.362854	
-0.36438	
-0.364563	
-0.365112	
-0.36615	
-0.366638	
-0.368042	
-0.369385	
-0.36853	
-0.370361	
-0.371643	
-0.372498	
-0.37384	
-0.374023	
-0.374634	
-0.374939	
-0.374695	
-0.376526	
-0.377319	
-0.376282	
-0.377625	
-0.378723	
-0.378601	
-0.380005	
-0.379456	
-0.380859	
-0.381348	
-0.380798	
-0.382263	
-0.38324	
-0.383179	
-0.383606	
-0.382629	
-0.382813	
-0.384399	
-0.382385	
-0.383179	
-0.383362	
-0.382813	
-0.383057	
-0.382751	
-0.381958	
-0.381592	
-0.380249	
-0.381165	
-0.381592	
-0.38031	
-0.380188	
-0.380676	
-0.379395	
-0.38031	
-0.380981	
-0.380188	
-0.381775	
-0.380371	
-0.381531	
-0.382446	
-0.383057	
-0.382568	
-0.382568	
-0.383789	
-0.383606	
-0.383728	
-0.383789	
-0.384827	
-0.383423	
-0.38446	
-0.384766	
-0.386292	
-0.385315	
-0.385681	
-0.386047	
-0.385315	
-0.387207	
-0.386414	
-0.386414	
-0.386292	
-0.386719	
-0.386719	
-0.386963	
-0.387146	
-0.386902	
-0.386902	
-0.386719	
-0.387695	
-0.387573	
-0.387146	
-0.389404	
-0.387817	
-0.389099	
-0.389771	
-0.391357	
-0.390442	
-0.390991	
-0.391113	
-0.391907	
-0.392517	
-0.392029	
-0.393127	
-0.391418	
-0.392883	
-0.393433	
-0.393433	
-0.393494	
-0.393494	
-0.39386	
-0.393433	
-0.392822	
-0.3927	
-0.3927	
-0.391785	
-0.392456	
-0.393066	
-0.392822	
-0.39386	
-0.392639	
-0.393066	
-0.39325	
-0.393372	
-0.392761	
-0.39447	
-0.392822	
-0.39325	
-0.393372	
-0.393799	
-0.394226	
-0.393494	
-0.393738	
-0.392761	
-0.393433	
-0.392517	
-0.39386	
-0.392273	
-0.392822	
-0.392395	
-0.393677	
-0.393311	
-0.392639	
-0.392517	
-0.392151	
-0.392578	
-0.392212	
-0.393127	
-0.392334	
-0.392273	
-0.39209	
-0.392822	
-0.393005	
-0.392639	
-0.392578	
-0.392395	
-0.391418	
-0.392883	
-0.393677	
-0.393921	
-0.392883	
-0.393982	
-0.39447	
-0.394592	
-0.395569	
-0.395447	
-0.394348	
-0.395142	
-0.395691	
-0.395691	
-0.396606	
-0.395691	
-0.396729	
-0.396912	
-0.397583	
-0.397278	
-0.397705	
-0.398071	
-0.397766	
-0.397278	
-0.397583	
-0.398376	
-0.397583	
-0.398132	
-0.397522	
-0.398254	
-0.39801	
-0.39801	
-0.396912	
-0.395935	
-0.397095	
-0.395874	
-0.395325	
-0.39563	
-0.395996	
-0.395264	
-0.395569	
-0.395508	
-0.395203	
-0.394287	
-0.393677	
-0.394226	
-0.393616	
-0.393066	
-0.394165	
-0.392456	
-0.393433	
-0.393005	
-0.394043	
-0.393311	
-0.393616	
-0.392944	
-0.392639	
-0.392883	
-0.392334	
-0.393311	
-0.392639	
-0.392822	
-0.39325	
-0.393921	
-0.393921	
-0.394897	
-0.394043	
-0.394226	
-0.394897	
-0.394836	
-0.394043	
-0.394409	
-0.395691	
-0.395508	
-0.395264	
-0.39624	
-0.397644	
-0.397644	
-0.397644	
-0.399048	
-0.398987	
-0.399841	
-0.399536	
-0.400146	
-0.400574	
-0.400208	
-0.402222	
-0.402466	
-0.401855	
-0.402527	
-0.402588	
-0.402405	
-0.402039	
-0.402161	
-0.402466	
-0.402588	
-0.402039	
-0.403076	
-0.40271	
-0.402283	
-0.4021	
-0.402832	
-0.401001	
-0.401917	
-0.401245	
-0.401001	
-0.400818	
-0.401245	
-0.401367	
-0.400208	
-0.401001	
-0.399719	
-0.400879	
-0.399414	
-0.398926	
-0.398987	
-0.398987	
-0.399414	
-0.39917	
-0.399048	
-0.399048	
-0.39917	
-0.398743	
-0.398438	
-0.399414	
-0.399292	
-0.399292	
-0.398438	
-0.399231	
-0.398621	
-0.398438	
-0.399597	
-0.398621	
-0.398987	
-0.398682	
-0.400391	
-0.398621	
-0.399231	
-0.399231	
-0.399231	
-0.399292	
-0.399353	
-0.400452	
-0.399902	
-0.400391	
-0.399597	
-0.401062	
-0.400085	
-0.399963	
-0.399353	
-0.40033	
-0.399963	
-0.399963	
-0.399536	
-0.399902	
-0.399658	
-0.39978	
-0.399292	
-0.400452	
-0.398865	
-0.399841	
-0.399353	
-0.400513	
-0.399963	
-0.400146	
-0.400696	
-0.400391	
-0.400879	
-0.399963	
-0.40094	
-0.400818	
-0.400574	
-0.400269	
-0.400391	
-0.400513	
-0.40033	
-0.399902	
-0.401062	
-0.401184	
-0.400635	
-0.399963	
-0.400269	
-0.400635	
-0.400146	
-0.400146	
-0.400574	
-0.40033	
-0.399597	
-0.401672	
-0.40094	
-0.400635	
-0.400696	
-0.401001	
-0.400146	
-0.399841	
-0.400269	
-0.400146	
-0.400085	
-0.399963	
-0.400696	
-0.400085	
-0.400391	
-0.399841	
-0.400574	
-0.399963	
-0.40033	
-0.399048	
-0.398315	
-0.399048	
-0.399048	
-0.397644	
-0.398804	
-0.398743	
-0.398682	
-0.398804	
-0.399353	
-0.398682	
-0.39917	
-0.399292	
-0.399536	
-0.400452	
-0.400024	
-0.401978	
-0.402466	
-0.402832	
-0.403198	
-0.40448	
-0.403137	
-0.404419	
-0.404053	
-0.405273	
-0.40509	
-0.40509	
-0.406128	
-0.406311	
-0.406982	
-0.406494	
-0.407043	
-0.40686	
-0.406433	
-0.406677	
-0.406128	
-0.406738	
-0.406616	
-0.406616	
-0.407166	
-0.407227	
-0.407288	
-0.406799	
-0.407288	
-0.405701	
-0.407104	
-0.407288	
-0.406982	
-0.406799	
-0.406677	
-0.40686	
-0.407471	
-0.407898	
-0.407227	
-0.406128	
-0.406555	
-0.406616	
-0.40686	
-0.406494	
-0.407166	
-0.406555	
-0.406616	
-0.406494	
-0.406067	
-0.404907	
-0.405396	
-0.404907	
-0.404053	
-0.403748	
-0.402649	
-0.402832	
-0.402588	
-0.402832	
-0.40271	
-0.403015	
-0.402527	
-0.402588	
-0.401855	
-0.401367	
-0.402344	
-0.403137	
-0.401733	
-0.403198	
-0.403809	
-0.404053	
-0.405029	
-0.404846	
-0.404541	
-0.404724	
-0.405029	
-0.404846	
-0.404419	
-0.404114	
-0.404663	
-0.404541	
-0.403809	
-0.405029	
-0.405518	
-0.404663	
-0.405029	
-0.40387	
-0.405029	
-0.404541	
-0.404785	
-0.403748	
-0.405334	
-0.404236	
-0.404846	
-0.405396	
-0.405029	
-0.404907	
-0.40509	
-0.404541	
-0.405396	
-0.404236	
-0.405151	
-0.404724	
-0.405457	
-0.404297	
-0.405701	
-0.406311	
-0.40564	
-0.406555	
-0.405518	
-0.406433	
-0.404846	
-0.406189	
-0.405701	
-0.406006	
-0.405457	
-0.40509	
-0.406311	
-0.405029	
-0.405701	
-0.404907	
-0.404541	
-0.404846	
-0.404724	
-0.404968	
-0.404663	
-0.404968	
-0.403748	
-0.404724	
-0.404968	
-0.40448	
-0.404175	
-0.402954	
-0.403748	
-0.40271	
-0.404602	
-0.402832	
-0.403442	
-0.403748	
-0.403931	
-0.404846	
-0.404114	
-0.404175	
-0.403442	
-0.404724	
-0.403992	
-0.404663	
-0.405457	
-0.40509	
-0.40509	
-0.405334	
-0.406616	
-0.406494	
-0.40741	
-0.406921	
-0.406433	
-0.407593	
-0.408325	
-0.408875	
-0.407227	
-0.408142	
-0.408142	
-0.408569	
-0.409302	
-0.408752	
-0.409058	
-0.408325	
-0.409058	
-0.408386	
-0.40918	
-0.415833	
-0.418152	
-0.418152	
-0.418152	
-0.418945	
-0.417542	
-0.410645	
-0.407532	
-0.407654	
-0.407043	
-0.407227	
-0.407166	
-0.406189	
-0.406555	
-0.406372	
-0.406982	
-0.407104	
-0.406433	
-0.406067	
-0.404419	
-0.40564	
-0.403442	
-0.404663	
-0.40332	
-0.402954	
-0.40271	
-0.401428	
-0.403381	
-0.402039	
-0.402161	
-0.400757	
-0.400818	
-0.40033	
-0.400635	
-0.401123	
-0.39978	
-0.399841	
-0.400208	
-0.400635	
-0.401978	
-0.401062	
-0.400818	
-0.399902	
-0.401428	
-0.400513	
-0.402039	
-0.401001	
-0.401672	
-0.401794	
-0.401917	
-0.403809	
-0.402344	
-0.403015	
-0.402771	
-0.403809	
-0.403503	
-0.403809	
-0.404297	
-0.403625	
-0.403503	
-0.403687	
-0.404358	
-0.405762	
-0.404236	
-0.404419	
-0.403809	
-0.404785	
-0.403625	
-0.40448	
-0.404114	
-0.404785	
-0.404663	
-0.404114	
-0.405762	
-0.405579	
-0.406311	
-0.405396	
-0.405273	
-0.405823	
-0.406311	
-0.406921	
-0.406494	
-0.406799	
-0.406494	
-0.407471	
-0.407532	
-0.406799	
-0.407593	
-0.405273	
-0.406006	
-0.405396	
-0.406616	
-0.406128	
-0.406677	
-0.406921	
-0.407471	
-0.409424	
-0.409912	
-0.410522	
-0.410889	
-0.41272	
-0.414063	
-0.415161	
-0.41748	
-0.418091	
-0.4198	
-0.421143	
-0.423279	
-0.425598	
-0.427185	
-0.428162	
-0.428833	
-0.431946	
-0.433838	
-0.43689	
-0.437622	
-0.438843	
-0.440491	
-0.443054	
-0.445496	
-0.445557	
-0.447083	
-0.447815	
-0.449036	
-0.44989	
-0.451355	
-0.452576	
-0.453247	
-0.453186	
-0.455383	
-0.458069	
-0.457031	
-0.458618	
-0.45813	
-0.459106	
-0.4599	
-0.461304	
-0.460999	
-0.462402	
-0.46283	
-0.464722	
-0.46637	
-0.465881	
-0.467041	
-0.466309	
-0.467529	
-0.466736	
-0.467468	
-0.466248	
-0.466553	
-0.466187	
-0.466125	
-0.466064	
-0.464417	
-0.463684	
-0.462524	
-0.461243	
-0.460938	
-0.460449	
-0.459412	
-0.45874	
-0.458496	
-0.457153	
-0.458374	
-0.458618	
-0.457336	
-0.456299	
-0.455322	
-0.455505	
-0.455322	
-0.455322	
-0.453369	
-0.453796	
-0.452637	
-0.452759	
-0.453613	
-0.451721	
-0.45105	
-0.449463	
-0.447998	
-0.445801	
-0.445618	
-0.442688	
-0.440247	
-0.437805	
-0.435425	
-0.433899	
-0.429749	
-0.427429	
-0.423523	
-0.420837	
-0.417114	
-0.41449	
-0.410583	
-0.407227	
-0.403381	
-0.400452	
-0.3974	
-0.394714	
-0.390198	
-0.386597	
-0.38147	
-0.379333	
-0.374268	
-0.37207	
-0.366821	
-0.363953	
-0.360046	
-0.356995	
-0.354614	
-0.352722	
-0.35022	
-0.347412	
-0.345581	
-0.342957	
-0.343262	
-0.341003	
-0.341125	
-0.33905	
-0.338074	
-0.338562	
-0.337769	
-0.336609	
-0.335449	
-0.334351	
-0.33429	
-0.3349	
-0.333984	
-0.3349	
-0.3349	
-0.335083	
-0.335876	
-0.335632	
-0.335449	
-0.335571	
-0.335022	
-0.336548	
-0.33844	
-0.337708	
-0.339417	
-0.340271	
-0.342041	
-0.343811	
-0.343811	
-0.345947	
-0.345825	
-0.348267	
-0.349121	
-0.351074	
-0.351929	
-0.353577	
-0.354248	
-0.356079	
-0.35791	
-0.358154	
-0.359558	
-0.359863	
-0.361389	
-0.362061	
-0.362732	
-0.364014	
-0.364868	
-0.364929	
-0.366577	
-0.367859	
-0.367615	
-0.368896	
-0.368286	
-0.370117	
-0.370972	
-0.370178	
-0.371887	
-0.371826	
-0.373108	
-0.374512	
-0.374084	
-0.374634	
-0.375549	
-0.374329	
-0.37616	
-0.377258	
-0.377563	
-0.377747	
-0.378113	
-0.378723	
-0.380066	
-0.380066	
-0.379883	
-0.381104	
-0.380249	
-0.381226	
-0.381165	
-0.382324	
-0.382385	
-0.38269	
-0.383728	
-0.38446	
-0.384949	
-0.38501	
-0.385071	
-0.385071	
-0.385559	
-0.385132	
-0.386353	
-0.386658	
-0.386169	
-0.387024	
-0.386414	
-0.386902	
-0.386841	
-0.387207	
-0.386169	
-0.385315	
-0.386047	
-0.385559	
-0.385559	
-0.385193	
-0.385376	
-0.385071	
-0.385193	
-0.38501	
-0.385681	
-0.384583	
-0.383606	
-0.384277	
-0.384216	
-0.38501	
-0.384827	
-0.384277	
-0.384766	
-0.384949	
-0.386169	
-0.384766	
-0.385498	
-0.383972	
-0.385254	
-0.385315	
-0.385315	
-0.385925	
-0.38623	
-0.386108	
-0.386536	
-0.388367	
-0.386841	
-0.387756	
-0.387207	
-0.387634	
-0.388062	
-0.388489	
-0.388184	
-0.387695	
-0.389709	
-0.390259	
-0.391907	
-0.391052	
-0.392151	
-0.391846	
-0.393066	
-0.392212	
-0.393494	
-0.39447	
-0.394165	
-0.395874	
-0.395691	
-0.39679	
-0.396362	
-0.397461	
-0.396667	
-0.396484	
-0.39624	
-0.397339	
-0.396606	
-0.396851	
-0.397888	
-0.397156	
-0.397522	
-0.396484	
-0.397461	
-0.396912	
-0.396057	
-0.396179	
-0.396423	
-0.395996	
-0.396423	
-0.396973	
-0.396362	
-0.396057	
-0.395447	
-0.395996	
-0.394836	
-0.394104	
-0.39447	
-0.394775	
-0.394897	
-0.39502	
-0.395508	
-0.395203	
-0.395996	
-0.394287	
-0.395447	
-0.395264	
-0.394531	
-0.395264	
-0.39447	
-0.395264	
-0.395447	
-0.395447	
-0.395142	
-0.396057	
-0.394409	
-0.395935	
-0.396423	
-0.396179	
-0.396423	
-0.395813	
-0.395691	
-0.396118	
-0.396912	
-0.396851	
-0.397461	
-0.395935	
-0.396545	
-0.3974	
-0.397156	
-0.3974	
-0.396729	
-0.397095	
-0.396851	
-0.397095	
-0.396545	
-0.397522	
-0.396545	
-0.39624	
-0.396484	
-0.396362	
-0.396912	
-0.396423	
-0.395508	
-0.396851	
-0.396118	
-0.396973	
-0.397156	
-0.397644	
-0.396301	
-0.397217	
-0.397034	
-0.39801	
-0.398804	
-0.397705	
-0.397888	
-0.39801	
-0.398193	
-0.398804	
-0.399475	
-0.397034	
-0.398438	
-0.398193	
-0.398254	
-0.398804	
-0.398254	
-0.398499	
-0.398315	
-0.397888	
-0.398682	
-0.399414	
-0.398193	
-0.398621	
-0.398682	
-0.398132	
-0.398193	
-0.398499	
-0.398438	
-0.397949	
-0.396729	
-0.397949	
-0.398499	
-0.397705	
-0.397827	
-0.397644	
-0.397949	
-0.398254	
-0.397461	
-0.397522	
-0.39801	
-0.396179	
-0.397095	
-0.397156	
-0.396301	
-0.396423	
-0.396057	
-0.396423	
-0.396606	
-0.396851	
-0.397156	
-0.397156	
-0.397644	
-0.398132	
-0.398376	
-0.399353	
-0.399963	
-0.400146	
-0.401306	
-0.401611	
-0.401917	
-0.402405	
-0.402893	
-0.403625	
-0.403625	
-0.404602	
-0.404663	
-0.404785	
-0.404907	
-0.404785	
-0.405701	
-0.40564	
-0.405823	
-0.405579	
-0.404602	
-0.405334	
-0.406006	
-0.406982	
-0.405823	
-0.405762	
-0.406006	
-0.406189	
-0.40686	
-0.405823	
-0.406494	
-0.406128	
-0.406006	
-0.406128	
-0.40686	
-0.406555	
-0.405518	
-0.406067	
-0.406189	
-0.406677	
-0.406128	
-0.406677	
-0.406372	
-0.405273	
-0.406433	
-0.406738	
-0.405884	
-0.405518	
-0.405334	
-0.40448	
-0.404297	
-0.404297	
-0.404114	
-0.403198	
-0.40155	
-0.4021	
-0.402161	
-0.403503	
-0.402283	
-0.402039	
-0.401184	
-0.402222	
-0.402039	
-0.401978	
-0.400879	
-0.401367	
-0.401978	
-0.403076	
-0.403503	
-0.403687	
-0.403625	
-0.40387	
-0.402527	
-0.40448	
-0.40448	
-0.403137	
-0.404236	
-0.403198	
-0.404541	
-0.404724	
-0.405457	
-0.404297	
-0.404358	
-0.403992	
-0.404968	
-0.405701	
-0.404236	
-0.40448	
-0.40387	
-0.404541	
-0.404602	
-0.405579	
-0.40448	
-0.404663	
-0.403809	
-0.404114	
-0.406067	
-0.404663	
-0.403564	
-0.40448	
-0.404785	
-0.405273	
-0.406494	
-0.406128	
-0.404846	
-0.404785	
-0.405396	
-0.405945	
-0.405518	
-0.405579	
-0.40564	
-0.404785	
-0.405396	
-0.40625	
-0.406006	
-0.405273	
-0.404663	
-0.404968	
-0.404907	
-0.405945	
-0.403992	
-0.404053	
-0.404114	
-0.403992	
-0.403992	
-0.404907	
-0.403992	
-0.403687	
-0.403259	
-0.403076	
-0.403931	
-0.40332	
-0.402649	
-0.402344	
-0.401672	
-0.40271	
-0.403625	
-0.402954	
-0.402405	
-0.40271	
-0.401611	
-0.403625	
-0.403442	
-0.402161	
-0.402527	
-0.40271	
-0.403809	
-0.404297	
-0.404541	
-0.404236	
-0.404968	
-0.406067	
-0.40564	
-0.40686	
-0.406433	
-0.406677	
-0.406738	
-0.407532	
-0.40802	
-0.408264	
-0.40802	
-0.407837	
-0.407227	
-0.407654	
-0.408569	
-0.408691	
-0.407471	
-0.408813	
-0.408142	
-0.408569	
-0.408936	
-0.409241	
-0.408691	
-0.408264	
-0.407715	
-0.408325	
-0.408569	
-0.40625	
-0.406494	
-0.407227	
-0.40802	
-0.407837	
-0.408264	
-0.407349	
-0.407227	
-0.406372	
-0.407227	
-0.406799	
-0.405945	
-0.405273	
-0.405151	
-0.404236	
-0.403992	
-0.405029	
-0.404236	
-0.403137	
-0.402649	
-0.402161	
-0.402283	
-0.40271	
-0.400208	
-0.401184	
-0.401184	
-0.400696	
-0.400757	
-0.401428	
-0.401062	
-0.401489	
-0.400513	
-0.401123	
-0.401001	
-0.400879	
-0.40155	
-0.401672	
-0.401245	
-0.402832	
-0.40332	
-0.402954	
-0.402954	
-0.403992	
-0.403137	
-0.403503	
-0.403442	
-0.402954	
-0.404358	
-0.404053	
-0.404785	
-0.405212	
-0.405273	
-0.404968	
-0.405518	
-0.404785	
-0.404968	
-0.405762	
-0.405151	
-0.405457	
-0.405151	
-0.405762	
-0.406067	
-0.40686	
-0.406006	
-0.40625	
-0.405945	
-0.405334	
-0.406067	
-0.405029	
-0.405457	
-0.406372	
-0.405396	
-0.406616	
-0.406799	
-0.407715	
-0.406677	
-0.407227	
-0.40564	
-0.406311	
-0.406982	
-0.405029	
-0.405273	
-0.405151	
-0.40564	
-0.405945	
-0.406555	
-0.405884	
-0.406494	
-0.406433	
-0.406433	
-0.406189	
-0.405884	
-0.405884	
-0.405823	
-0.40625	
-0.406189	
-0.406982	
-0.407104	
-0.40625	
-0.406311	
-0.405334	
-0.40625	
-0.404663	
-0.404968	
-0.405701	
-0.404968	
-0.406189	
-0.406189	
-0.406982	
-0.40625	
-0.407104	
-0.406372	
-0.40564	
-0.405823	
-0.406311	
-0.406189	
-0.405945	
-0.404785	
-0.406372	
-0.40686	
-0.406616	
-0.406677	
-0.407288	
-0.404053	
-0.406311	
-0.405945	
-0.40686	
-0.406494	
-0.406494	
-0.406738	
-0.406738	
-0.40863	
-0.407043	
-0.408264	
-0.406433	
-0.407166	
-0.407715	
-0.406067	
-0.406921	
-0.406738	
-0.40741	
-0.40741	
-0.408386	
-0.408325	
-0.408691	
-0.40918	
-0.406555	
-0.40863	
-0.408691	
-0.40863	
-0.408386	
-0.407837	
-0.408081	
-0.408081	
-0.408752	
-0.40741	
-0.407776	
-0.406433	
-0.405945	
-0.405579	
-0.404053	
-0.404297	
-0.403442	
-0.403076	
-0.402771	
-0.40271	
-0.401978	
-0.401794	
-0.401672	
-0.400696	
-0.400879	
-0.399292	
-0.400635	
-0.400696	
-0.399353	
-0.400574	
-0.401001	
-0.401184	
-0.400513	
-0.401794	
-0.399292	
-0.400269	
-0.399841	
-0.400391	
-0.40033	
-0.400085	
-0.40033	
-0.400574	
-0.401001	
-0.401001	
-0.401367	
-0.401001	
-0.399597	
-0.400635	
-0.400024	
-0.400879	
-0.400391	
-0.399475	
-0.400757	
-0.401062	
-0.401794	
-0.401428	
-0.402771	
-0.400635	
-0.402527	
-0.403259	
-0.403198	
-0.404236	
-0.403442	
-0.40448	
-0.405701	
-0.406738	
-0.405457	
-0.405884	
-0.404175	
-0.405884	
-0.406433	
-0.405823	
-0.406189	
-0.405701	
-0.405823	
-0.405518	
-0.406677	
-0.405762	
-0.405579	
-0.405212	
-0.402954	
-0.404541	
-0.402893	
-0.403748	
-0.403564	
-0.403503	
-0.403809	
-0.404114	
-0.404297	
-0.403442	
-0.404602	
-0.402832	
-0.403381	
-0.403137	
-0.403015	
-0.403687	
-0.40332	
-0.403809	
-0.403625	
-0.404785	
-0.403625	
-0.403931	
-0.403687	
-0.402283	
-0.403992	
-0.402405	
-0.40387	
-0.403625	
-0.403564	
-0.403809	
-0.404419	
-0.404358	
-0.403564	
-0.404053	
-0.403381	
-0.403503	
-0.402344	
-0.403931	
-0.403625	
-0.403442	
-0.403503	
-0.403442	
-0.403198	
-0.404114	
-0.404297	
-0.402527	
-0.404114	
-0.403748	
-0.403503	
-0.404236	
-0.40332	
-0.404236	
-0.40448	
-0.405457	
-0.40509	
-0.405151	
-0.40625	
-0.404663	
-0.405945	
-0.404175	
-0.405457	
-0.405457	
-0.405334	
-0.406128	
-0.406616	
-0.40625	
-0.406799	
-0.406982	
-0.405823	
-0.405457	
-0.40686	
-0.405945	
-0.406067	
-0.40564	
-0.405823	
-0.405457	
-0.40625	
-0.405457	
-0.404724	
-0.404175	
-0.40448	
-0.40332	
-0.401672	
-0.403259	
-0.402832	
-0.402527	
-0.401794	
-0.402039	
-0.401733	
-0.402161	
-0.402954	
-0.400391	
-0.40094	
-0.400879	
-0.40094	
-0.400635	
-0.399231	
-0.400635	
-0.400391	
-0.401428	
-0.401184	
-0.400513	
	
