E:\DOCUMENTS AND SETTINGS\JPOTAS\MEUS DOCUMENTOS\UFRJ\RSCI-BM 12 WK SERIES\070730-RSCI-BM-09\RSCI-BM-09-REMG\070730-RSCI-BM-09-REMG-0009.ACQ
0.025000 msec/sample
1 channel
Analog input
Volts
CH1	
2000	
-0.402405	
-0.402649	
-0.402771	
-0.403381	
-0.404175	
-0.405334	
-0.40564	
-0.405823	
-0.406006	
-0.406494	
-0.407166	
-0.406555	
-0.406311	
-0.406677	
-0.407043	
-0.407166	
-0.407837	
-0.407959	
-0.407471	
-0.408142	
-0.407593	
-0.407715	
-0.407532	
-0.407532	
-0.406982	
-0.40686	
-0.407776	
-0.407104	
-0.406677	
-0.406738	
-0.40564	
-0.405396	
-0.405518	
-0.406006	
-0.404358	
-0.404358	
-0.40448	
-0.404846	
-0.405151	
-0.40509	
-0.40448	
-0.403442	
-0.403564	
-0.403625	
-0.402954	
-0.403137	
-0.40155	
-0.401794	
-0.40155	
-0.402527	
-0.402466	
-0.401855	
-0.402466	
-0.402222	
-0.402161	
-0.402771	
-0.402222	
-0.402161	
-0.401855	
-0.402039	
-0.401184	
-0.402039	
-0.40271	
-0.40271	
-0.403381	
-0.403015	
-0.403259	
-0.403198	
-0.40387	
-0.403076	
-0.402405	
-0.402954	
-0.403625	
-0.404419	
-0.404968	
-0.404419	
-0.404724	
-0.40448	
-0.404968	
-0.404724	
-0.405273	
-0.403442	
-0.403809	
-0.404846	
-0.405029	
-0.405029	
-0.404541	
-0.404419	
-0.403687	
-0.403992	
-0.404175	
-0.403381	
-0.403259	
-0.402161	
-0.403381	
-0.401855	
-0.402466	
-0.403198	
-0.402161	
-0.402893	
-0.40155	
-0.40271	
-0.402161	
-0.402161	
-0.401733	
-0.400879	
-0.401245	
-0.402039	
-0.401917	
-0.402222	
-0.401978	
-0.402466	
-0.401978	
-0.403564	
-0.401855	
-0.403076	
-0.401672	
-0.4021	
-0.401917	
-0.401855	
-0.402649	
-0.401428	
-0.401855	
-0.401245	
-0.401428	
-0.401855	
-0.400635	
-0.401245	
-0.399536	
-0.400208	
-0.399597	
-0.39978	
-0.400269	
-0.399658	
-0.400269	
-0.399292	
-0.40094	
-0.39917	
-0.399658	
-0.399048	
-0.399353	
-0.399292	
-0.399536	
-0.400146	
-0.400085	
-0.400513	
-0.401001	
-0.399658	
-0.4021	
-0.400818	
-0.401611	
-0.401367	
-0.401978	
-0.401733	
-0.402405	
-0.40387	
-0.40387	
-0.404419	
-0.404541	
-0.405396	
-0.405945	
-0.405884	
-0.405823	
-0.404419	
-0.406128	
-0.405701	
-0.40625	
-0.406982	
-0.406372	
-0.40625	
-0.406067	
-0.406982	
-0.40509	
-0.406006	
-0.405151	
-0.404846	
-0.404785	
-0.405029	
-0.405029	
-0.404358	
-0.404358	
-0.403748	
-0.402771	
-0.404602	
-0.402222	
-0.403564	
-0.401611	
-0.401428	
-0.401428	
-0.401123	
-0.401794	
-0.400757	
-0.401611	
-0.400513	
-0.400757	
-0.400696	
-0.400574	
-0.399536	
-0.406311	
-0.408997	
-0.408936	
-0.409424	
-0.410034	
-0.409058	
-0.400574	
-0.399719	
-0.40094	
-0.398254	
-0.400635	
-0.399231	
-0.399536	
-0.399902	
-0.400452	
-0.400391	
-0.400513	
-0.401306	
-0.401245	
-0.40033	
-0.402893	
-0.401306	
-0.401917	
-0.401367	
-0.401978	
-0.402527	
-0.402893	
-0.403198	
-0.403015	
-0.403992	
-0.403564	
-0.403381	
-0.403198	
-0.403931	
-0.403809	
-0.4021	
-0.403748	
-0.402527	
-0.403687	
-0.404724	
-0.404846	
-0.404114	
-0.40448	
-0.40564	
-0.403625	
-0.405212	
-0.403809	
-0.404358	
-0.404114	
-0.404175	
-0.405212	
-0.40448	
-0.404297	
-0.404175	
-0.40448	
-0.404907	
-0.403137	
-0.403992	
-0.40271	
-0.403625	
-0.403076	
-0.403137	
-0.404358	
-0.40332	
-0.404236	
-0.403625	
-0.404175	
-0.403748	
-0.404297	
-0.404114	
-0.402893	
-0.404053	
-0.403259	
-0.404846	
-0.404663	
-0.404419	
-0.404541	
-0.403931	
-0.40509	
-0.403931	
-0.404785	
-0.403931	
-0.404114	
-0.404419	
-0.404358	
-0.405396	
-0.404602	
-0.404236	
-0.403748	
-0.404114	
-0.404724	
-0.403137	
-0.404846	
-0.403625	
-0.404968	
-0.405212	
-0.406006	
-0.406738	
-0.40802	
-0.40979	
-0.409302	
-0.41217	
-0.412659	
-0.414612	
-0.415222	
-0.415894	
-0.41925	
-0.420044	
-0.423401	
-0.4245	
-0.427124	
-0.429199	
-0.431946	
-0.433899	
-0.435547	
-0.438232	
-0.440063	
-0.442444	
-0.443298	
-0.446472	
-0.447876	
-0.449463	
-0.450623	
-0.451111	
-0.453064	
-0.452148	
-0.454468	
-0.453247	
-0.453735	
-0.455322	
-0.455994	
-0.457153	
-0.457031	
-0.457886	
-0.456482	
-0.457642	
-0.457764	
-0.457458	
-0.456726	
-0.456482	
-0.457397	
-0.456299	
-0.457825	
-0.457397	
-0.457581	
-0.45752	
-0.458435	
-0.45874	
-0.457092	
-0.458557	
-0.456909	
-0.45752	
-0.456116	
-0.456177	
-0.456238	
-0.4552	
-0.455017	
-0.45282	
-0.453125	
-0.451904	
-0.45166	
-0.44989	
-0.450256	
-0.44989	
-0.449707	
-0.450378	
-0.44989	
-0.448975	
-0.44873	
-0.450195	
-0.450562	
-0.450134	
-0.450317	
-0.4505	
-0.450745	
-0.450806	
-0.451294	
-0.450562	
-0.4505	
-0.449951	
-0.449341	
-0.449463	
-0.446838	
-0.446838	
-0.444153	
-0.442871	
-0.440796	
-0.439148	
-0.4375	
-0.433899	
-0.432556	
-0.428833	
-0.427124	
-0.424316	
-0.420776	
-0.417908	
-0.414795	
-0.411865	
-0.408203	
-0.406189	
-0.403198	
-0.399231	
-0.395752	
-0.390869	
-0.387756	
-0.38385	
-0.380615	
-0.375549	
-0.37085	
-0.366699	
-0.363464	
-0.360474	
-0.356262	
-0.352844	
-0.349609	
-0.347107	
-0.34552	
-0.342529	
-0.341492	
-0.338379	
-0.338562	
-0.337646	
-0.337891	
-0.336792	
-0.336731	
-0.336304	
-0.335144	
-0.335632	
-0.334351	
-0.335815	
-0.333496	
-0.335022	
-0.335144	
-0.335632	
-0.336914	
-0.336548	
-0.33783	
-0.33844	
-0.339355	
-0.339355	
-0.341064	
-0.341553	
-0.342346	
-0.342773	
-0.344177	
-0.346252	
-0.346558	
-0.348083	
-0.348816	
-0.350037	
-0.351868	
-0.351929	
-0.354126	
-0.354431	
-0.35498	
-0.35791	
-0.359497	
-0.359924	
-0.361572	
-0.362793	
-0.363586	
-0.365112	
-0.365051	
-0.36676	
-0.366882	
-0.368469	
-0.369568	
-0.371094	
-0.371399	
-0.373047	
-0.373291	
-0.374023	
-0.375732	
-0.374634	
-0.376038	
-0.375671	
-0.376831	
-0.377686	
-0.377808	
-0.378174	
-0.379089	
-0.378662	
-0.378845	
-0.3797	
-0.378723	
-0.378662	
-0.378601	
-0.379028	
-0.379456	
-0.37915	
-0.378906	
-0.378723	
-0.378845	
-0.37793	
-0.377808	
-0.377258	
-0.377136	
-0.376343	
-0.377258	
-0.378784	
-0.377808	
-0.377747	
-0.378479	
-0.378601	
-0.378845	
-0.378479	
-0.379089	
-0.378296	
-0.378662	
-0.379822	
-0.381714	
-0.381226	
-0.381836	
-0.382935	
-0.383179	
-0.384094	
-0.384216	
-0.385498	
-0.384644	
-0.385132	
-0.386353	
-0.387634	
-0.388123	
-0.389038	
-0.389709	
-0.390503	
-0.391235	
-0.391418	
-0.391296	
-0.391296	
-0.391357	
-0.391357	
-0.392029	
-0.393127	
-0.392517	
-0.393066	
-0.393433	
-0.393188	
-0.393066	
-0.393555	
-0.392639	
-0.391296	
-0.391663	
-0.391113	
-0.392151	
-0.391724	
-0.391235	
-0.391418	
-0.391907	
-0.392395	
-0.39209	
-0.391113	
-0.391541	
-0.391663	
-0.39209	
-0.392517	
-0.392151	
-0.391968	
-0.391907	
-0.392761	
-0.392395	
-0.392883	
-0.392151	
-0.391785	
-0.391113	
-0.391968	
-0.391602	
-0.39209	
-0.392395	
-0.39209	
-0.392883	
-0.393372	
-0.393066	
-0.392212	
-0.391968	
-0.391479	
-0.39209	
-0.392334	
-0.392517	
-0.392761	
-0.392944	
-0.39325	
-0.393799	
-0.393982	
-0.392944	
-0.3927	
-0.3927	
-0.393066	
-0.393494	
-0.393372	
-0.39325	
-0.393433	
-0.392578	
-0.393982	
-0.39325	
-0.392944	
-0.392578	
-0.392822	
-0.391296	
-0.392578	
-0.400696	
-0.401489	
-0.40094	
-0.401611	
-0.4021	
-0.402161	
-0.393311	
-0.391113	
-0.391418	
-0.390686	
-0.390381	
-0.392273	
-0.391724	
-0.391907	
-0.392883	
-0.393066	
-0.392822	
-0.393372	
-0.393494	
-0.392212	
-0.393372	
-0.393372	
-0.393555	
-0.393921	
-0.393921	
-0.39447	
-0.394409	
-0.395447	
-0.39502	
-0.395264	
-0.395142	
-0.395325	
-0.395447	
-0.394287	
-0.395447	
-0.395264	
-0.39502	
-0.394592	
-0.395691	
-0.394775	
-0.39386	
-0.394897	
-0.39386	
-0.393005	
-0.39325	
-0.393616	
-0.392517	
-0.392273	
-0.392334	
-0.391907	
-0.391357	
-0.392578	
-0.391785	
-0.391113	
-0.39093	
-0.391663	
-0.391846	
-0.391418	
-0.391968	
-0.392212	
-0.391541	
-0.392517	
-0.393555	
-0.392761	
-0.393005	
-0.393616	
-0.393982	
-0.394348	
-0.394714	
-0.394714	
-0.395325	
-0.39502	
-0.396973	
-0.398132	
-0.396973	
-0.398621	
-0.398865	
-0.399475	
-0.399719	
-0.400024	
-0.400696	
-0.400696	
-0.401367	
-0.401733	
-0.401978	
-0.401489	
-0.4021	
-0.401245	
-0.401794	
-0.402527	
-0.401917	
-0.402283	
-0.402893	
-0.402527	
-0.404358	
-0.404541	
-0.404114	
-0.404907	
-0.405518	
-0.406921	
-0.408081	
-0.409363	
-0.409912	
-0.411377	
-0.412476	
-0.415039	
-0.41687	
-0.417969	
-0.418945	
-0.420776	
-0.422607	
-0.424561	
-0.427551	
-0.427917	
-0.429382	
-0.430664	
-0.433105	
-0.43512	
-0.436096	
-0.437988	
-0.43927	
-0.440308	
-0.441467	
-0.442932	
-0.443909	
-0.444885	
-0.44574	
-0.447266	
-0.447815	
-0.448792	
-0.449158	
-0.449707	
-0.450195	
-0.451111	
-0.450806	
-0.452026	
-0.452881	
-0.453064	
-0.454285	
-0.455139	
-0.456421	
-0.455994	
-0.457764	
-0.457642	
-0.458191	
-0.458069	
-0.458069	
-0.457703	
-0.456848	
-0.455261	
-0.456421	
-0.455566	
-0.45343	
-0.452148	
-0.451599	
-0.450745	
-0.449768	
-0.450134	
-0.448486	
-0.447754	
-0.446838	
-0.447571	
-0.446838	
-0.446106	
-0.445374	
-0.445923	
-0.444763	
-0.445496	
-0.445984	
-0.44519	
-0.44519	
-0.444946	
-0.444092	
-0.444519	
-0.445007	
-0.443604	
-0.442139	
-0.441833	
-0.440796	
-0.438782	
-0.438599	
-0.436157	
-0.433228	
-0.431091	
-0.429443	
-0.426575	
-0.422852	
-0.420227	
-0.416687	
-0.413879	
-0.410889	
-0.408325	
-0.404175	
-0.400879	
-0.396973	
-0.39502	
-0.390503	
-0.386536	
-0.38324	
-0.378357	
-0.374695	
-0.372253	
-0.367432	
-0.365295	
-0.360779	
-0.356873	
-0.353455	
-0.350952	
-0.348022	
-0.344543	
-0.341492	
-0.339355	
-0.337646	
-0.335632	
-0.335083	
-0.333557	
-0.332336	
-0.331604	
-0.332092	
-0.330383	
-0.329773	
-0.329224	
-0.329102	
-0.328369	
-0.329407	
-0.329468	
-0.330872	
-0.331482	
-0.331726	
-0.333984	
-0.33374	
-0.334656	
-0.335266	
-0.335876	
-0.336121	
-0.338013	
-0.339172	
-0.339722	
-0.340881	
-0.342041	
-0.343445	
-0.345093	
-0.345337	
-0.346863	
-0.345825	
-0.349182	
-0.350525	
-0.350708	
-0.352966	
-0.353882	
-0.35376	
-0.355774	
-0.357544	
-0.358154	
-0.358765	
-0.357117	
-0.359802	
-0.360718	
-0.360901	
-0.361572	
-0.362183	
-0.363098	
-0.364319	
-0.365967	
-0.365417	
-0.366638	
-0.367065	
-0.368164	
-0.36908	
-0.369263	
-0.369812	
-0.370605	
-0.371399	
-0.372803	
-0.372803	
-0.373352	
-0.373962	
-0.37323	
-0.374573	
-0.375366	
-0.375183	
-0.375793	
-0.375854	
-0.377075	
-0.379089	
-0.37793	
-0.37854	
-0.379211	
-0.37854	
-0.379761	
-0.379395	
-0.38092	
-0.381042	
-0.380432	
-0.38269	
-0.384766	
-0.382874	
-0.383179	
-0.382751	
-0.383667	
-0.384705	
-0.383728	
-0.385132	
-0.385193	
-0.385193	
-0.386475	
-0.387451	
-0.385925	
-0.386292	
-0.385925	
-0.385681	
-0.387207	
-0.386902	
-0.387634	
-0.387878	
-0.386963	
-0.38855	
-0.389893	
-0.388977	
-0.388794	
-0.388733	
-0.388428	
-0.388428	
-0.389221	
-0.388062	
-0.389038	
-0.38855	
-0.388733	
-0.389526	
-0.389709	
-0.389282	
-0.389526	
-0.38855	
-0.388733	
-0.390381	
-0.389709	
-0.39093	
-0.390869	
-0.390198	
-0.391418	
-0.392151	
-0.390808	
-0.391418	
-0.390076	
-0.390381	
-0.391113	
-0.389771	
-0.391479	
-0.391418	
-0.391235	
-0.392029	
-0.392883	
-0.391357	
-0.392029	
-0.390381	
-0.391907	
-0.392395	
-0.392029	
-0.392151	
-0.392273	
-0.392578	
-0.392822	
-0.392822	
-0.392212	
-0.393066	
-0.391296	
-0.392639	
-0.393677	
-0.39325	
-0.39325	
-0.393372	
-0.393677	
-0.394531	
-0.395264	
-0.394775	
-0.395081	
-0.394653	
-0.396118	
-0.395996	
-0.39679	
-0.397461	
-0.396606	
-0.397949	
-0.399902	
-0.399292	
-0.398621	
-0.398438	
-0.398071	
-0.399109	
-0.397827	
-0.399048	
-0.398865	
-0.398132	
-0.398743	
-0.400818	
-0.399353	
-0.39856	
-0.398254	
-0.397522	
-0.398132	
-0.396851	
-0.397461	
-0.397034	
-0.396729	
-0.396729	
-0.3974	
-0.396545	
-0.395325	
-0.394165	
-0.394043	
-0.394043	
-0.392761	
-0.393494	
-0.393738	
-0.392395	
-0.39325	
-0.394165	
-0.394043	
-0.393494	
-0.394043	
-0.391602	
-0.392029	
-0.393494	
-0.393005	
-0.393616	
-0.392761	
-0.393433	
-0.393921	
-0.395325	
-0.394958	
-0.395081	
-0.394836	
-0.394653	
-0.395874	
-0.39502	
-0.396606	
-0.396667	
-0.396301	
-0.397705	
-0.399048	
-0.398132	
-0.398438	
-0.398438	
-0.397583	
-0.398865	
-0.398376	
-0.399414	
-0.39917	
-0.398682	
-0.399841	
-0.402039	
-0.401123	
-0.400574	
-0.40033	
-0.399719	
-0.401062	
-0.39978	
-0.400757	
-0.400696	
-0.399902	
-0.400574	
-0.4021	
-0.40155	
-0.40094	
-0.400574	
-0.400146	
-0.400513	
-0.401917	
-0.400879	
-0.400757	
-0.400024	
-0.400269	
-0.400635	
-0.400452	
-0.40033	
-0.399475	
-0.398254	
-0.398499	
-0.399353	
-0.398987	
-0.398621	
-0.398865	
-0.397644	
-0.399109	
-0.399719	
-0.398926	
-0.399231	
-0.398621	
-0.398804	
-0.400024	
-0.400696	
-0.40033	
-0.400208	
-0.400391	
-0.401062	
-0.402832	
-0.401855	
-0.401978	
-0.40094	
-0.400513	
-0.401917	
-0.402466	
-0.4021	
-0.402161	
-0.40155	
-0.402344	
-0.40387	
-0.402283	
-0.403198	
-0.402222	
-0.401855	
-0.402466	
-0.403198	
-0.402893	
-0.402527	
-0.40155	
-0.402588	
-0.404114	
-0.4021	
-0.402527	
-0.402344	
-0.401733	
-0.402405	
-0.403748	
-0.403137	
-0.403381	
-0.40332	
-0.403687	
-0.405151	
-0.404724	
-0.404663	
-0.404175	
-0.402588	
-0.404663	
-0.405273	
-0.405579	
-0.405334	
-0.405518	
-0.40564	
-0.406067	
-0.40686	
-0.405945	
-0.405823	
-0.403931	
-0.405457	
-0.405029	
-0.406555	
-0.405029	
-0.404907	
-0.404663	
-0.404602	
-0.405273	
-0.404114	
-0.404419	
-0.403137	
-0.402222	
-0.402649	
-0.402771	
-0.402405	
-0.401245	
-0.400818	
-0.40033	
-0.400757	
-0.400269	
-0.399902	
-0.399658	
-0.39801	
-0.399536	
-0.399109	
-0.399597	
-0.400085	
-0.399597	
-0.399902	
-0.400818	
-0.401062	
-0.400391	
-0.401428	
-0.399048	
-0.400757	
-0.400757	
-0.402161	
-0.401733	
-0.401855	
-0.4021	
-0.403076	
-0.403503	
-0.403076	
-0.404053	
-0.402771	
-0.40332	
-0.404541	
-0.404907	
-0.404602	
-0.405151	
-0.405334	
-0.405151	
-0.406799	
-0.405823	
-0.405579	
-0.405334	
-0.403381	
-0.40625	
-0.405579	
-0.406067	
-0.406128	
-0.405762	
-0.405029	
-0.40625	
-0.407166	
-0.406067	
-0.406555	
-0.404053	
-0.405579	
-0.40509	
-0.40564	
-0.405212	
-0.405334	
-0.404175	
-0.405884	
-0.40625	
-0.404663	
-0.404785	
-0.403076	
-0.404663	
-0.404419	
-0.405029	
-0.403931	
-0.403442	
-0.40271	
-0.403381	
-0.404846	
-0.403076	
-0.402954	
-0.401917	
-0.402588	
-0.402222	
-0.402039	
-0.40271	
-0.402527	
-0.402161	
-0.401978	
-0.403015	
-0.402405	
-0.402649	
-0.402771	
-0.400269	
-0.402649	
-0.402771	
-0.403259	
-0.40271	
-0.402405	
-0.402649	
-0.403015	
-0.404358	
-0.402832	
-0.402283	
-0.402466	
-0.403015	
-0.403198	
-0.403076	
-0.403381	
-0.403259	
-0.403442	
-0.403748	
-0.403931	
-0.402832	
-0.402161	
-0.402222	
-0.402344	
-0.402283	
-0.40155	
-0.402527	
-0.401917	
-0.401855	
-0.401489	
-0.402405	
-0.4021	
-0.402344	
-0.401917	
-0.402344	
-0.402283	
-0.401794	
-0.402771	
-0.402588	
-0.402405	
-0.40271	
-0.402893	
-0.403687	
-0.402405	
-0.402039	
-0.401733	
-0.402222	
-0.4021	
-0.402039	
-0.40271	
-0.402649	
-0.402771	
-0.40155	
-0.403381	
-0.402893	
-0.401367	
-0.402954	
-0.401123	
-0.401917	
-0.401917	
-0.402344	
-0.401306	
-0.401123	
-0.40155	
-0.40094	
-0.401306	
-0.399719	
-0.400024	
-0.397827	
-0.398865	
-0.398315	
-0.398621	
-0.398499	
-0.398071	
-0.39801	
-0.397888	
-0.398682	
-0.398376	
-0.39801	
-0.397522	
-0.397644	
-0.398132	
-0.399048	
-0.399902	
-0.39917	
-0.399292	
-0.400513	
-0.400635	
-0.400696	
-0.400635	
-0.40094	
-0.400452	
-0.401672	
-0.401489	
-0.403076	
-0.403198	
-0.404114	
-0.405396	
-0.404663	
-0.406006	
-0.405151	
-0.405823	
-0.405151	
-0.404297	
-0.405457	
-0.406067	
-0.40564	
-0.405762	
-0.406128	
-0.405457	
-0.406372	
-0.406677	
-0.405884	
-0.406372	
-0.405945	
-0.405823	
-0.405396	
-0.406616	
-0.405273	
-0.405273	
-0.404724	
-0.404602	
-0.40509	
-0.405029	
-0.404541	
-0.403564	
-0.403198	
-0.402771	
-0.403687	
-0.403381	
-0.403381	
-0.403076	
-0.401245	
-0.402954	
-0.403137	
-0.401917	
-0.401917	
-0.40033	
-0.401794	
-0.401245	
-0.401917	
-0.401794	
-0.401428	
-0.401184	
-0.401733	
-0.402466	
-0.401123	
-0.401917	
-0.40094	
-0.400208	
-0.401245	
-0.402161	
-0.40155	
-0.402161	
-0.402039	
-0.402344	
-0.402405	
-0.402283	
-0.4021	
-0.402527	
-0.401489	
-0.401855	
-0.403748	
-0.403503	
-0.403687	
-0.403809	
-0.404236	
-0.40448	
-0.404602	
-0.404602	
-0.40448	
-0.404663	
-0.402893	
-0.403503	
-0.404907	
-0.404053	
-0.404114	
-0.403992	
-0.40387	
-0.403381	
-0.404358	
-0.403137	
-0.402588	
-0.402161	
-0.402588	
-0.40155	
-0.401489	
-0.401855	
-0.401978	
-0.401306	
-0.401428	
-0.402039	
-0.402039	
-0.401978	
-0.401245	
-0.400635	
-0.400879	
-0.401123	
-0.401123	
-0.400513	
-0.400513	
-0.401062	
-0.401245	
-0.401306	
-0.402161	
-0.401306	
-0.401001	
-0.401367	
-0.402039	
-0.401001	
-0.401245	
-0.401794	
-0.400635	
-0.400696	
-0.400757	
-0.401001	
-0.400696	
-0.399658	
-0.39856	
-0.399719	
-0.399109	
-0.399292	
-0.399353	
-0.397522	
-0.398804	
-0.398804	
-0.399353	
-0.399048	
-0.398621	
-0.397278	
-0.398865	
-0.399414	
-0.398804	
-0.399292	
-0.39801	
-0.399353	
-0.399719	
-0.39978	
-0.400879	
-0.400085	
-0.400452	
-0.399841	
-0.401367	
-0.401428	
-0.402161	
-0.403076	
-0.402893	
-0.403503	
-0.403992	
-0.406311	
-0.405945	
-0.405334	
-0.404419	
-0.405457	
-0.406311	
-0.406067	
-0.406006	
-0.405701	
-0.405823	
-0.405762	
-0.405945	
-0.405701	
-0.405273	
-0.404907	
-0.405029	
-0.40448	
-0.404541	
-0.404236	
-0.404968	
-0.404053	
-0.403687	
-0.403931	
-0.403809	
-0.40387	
-0.402771	
-0.401611	
-0.402161	
-0.401794	
-0.401123	
-0.401489	
-0.400452	
-0.400513	
-0.400696	
-0.400635	
-0.400879	
-0.399963	
-0.399597	
-0.398865	
-0.400269	
-0.399292	
-0.399292	
-0.400085	
-0.399353	
-0.399536	
-0.399963	
-0.400574	
-0.40033	
-0.399475	
-0.398438	
-0.399536	
-0.399597	
-0.400452	
-0.400391	
-0.399414	
-0.400452	
-0.40094	
-0.401428	
-0.401611	
-0.401428	
-0.400818	
-0.401489	
-0.401672	
-0.401733	
-0.401917	
-0.402161	
-0.402344	
-0.403076	
-0.403076	
-0.403687	
-0.403748	
-0.403381	
-0.401917	
-0.403564	
-0.403809	
-0.403687	
-0.404175	
-0.403687	
-0.403931	
-0.403992	
-0.404358	
-0.404541	
-0.403809	
-0.403259	
-0.403809	
-0.404236	
-0.404236	
-0.40387	
-0.403748	
-0.404053	
-0.404236	
-0.404175	
-0.404541	
-0.40509	
-0.403564	
-0.401489	
-0.403564	
-0.403259	
-0.403381	
-0.403564	
-0.403076	
-0.403198	
-0.402893	
-0.404114	
-0.403625	
-0.403137	
-0.40332	
-0.402954	
-0.403931	
-0.404114	
-0.40448	
-0.404236	
-0.403381	
-0.403748	
-0.402649	
-0.405334	
-0.403564	
-0.403687	
-0.40332	
-0.402405	
-0.403625	
-0.403198	
-0.403259	
-0.403198	
-0.403076	
-0.403137	
-0.403259	
-0.40332	
-0.403076	
-0.402832	
-0.403137	
-0.402527	
-0.402893	
-0.402283	
-0.403564	
-0.402405	
-0.402771	
-0.402344	
-0.404053	
-0.403748	
-0.402771	
-0.403076	
-0.402893	
-0.403381	
-0.403931	
-0.403564	
-0.404175	
-0.404236	
-0.404846	
-0.404968	
-0.406128	
-0.405579	
-0.40564	
-0.405334	
-0.406433	
-0.406799	
-0.406372	
-0.40741	
-0.40686	
-0.406738	
-0.406982	
-0.408386	
-0.407898	
-0.406738	
-0.406189	
-0.406372	
-0.406738	
-0.406555	
-0.405579	
-0.405823	
-0.406006	
-0.40564	
-0.405334	
-0.405029	
-0.405273	
-0.404419	
-0.402588	
-0.402344	
-0.403076	
-0.402283	
-0.402283	
-0.401611	
-0.400269	
-0.399414	
-0.401794	
-0.400574	
-0.399658	
-0.39978	
-0.399719	
-0.399536	
-0.399658	
-0.399475	
-0.399292	
-0.398926	
-0.398926	
-0.398987	
-0.399536	
-0.399048	
-0.39856	
-0.39856	
-0.398804	
-0.399658	
-0.400085	
-0.401001	
-0.401123	
-0.401489	
-0.401489	
-0.4021	
-0.402283	
-0.401611	
-0.40094	
-0.402344	
-0.402832	
-0.403076	
-0.402893	
-0.403198	
-0.403076	
-0.403137	
-0.404724	
-0.404236	
-0.404297	
-0.404297	
-0.403381	
-0.403198	
-0.404602	
-0.404602	
-0.405396	
-0.404663	
-0.404602	
-0.403931	
-0.405884	
-0.404907	
-0.404602	
-0.403748	
-0.404724	
-0.404846	
-0.404663	
-0.404663	
-0.40448	
-0.404663	
-0.404785	
-0.40509	
-0.404602	
-0.403931	
-0.403503	
-0.403809	
-0.402832	
-0.403503	
-0.402893	
-0.402588	
-0.402771	
-0.402588	
-0.402222	
-0.403076	
-0.402893	
-0.401917	
-0.401489	
-0.402466	
-0.402649	
-0.402832	
-0.40332	
-0.403137	
-0.403015	
-0.403381	
-0.404175	
-0.404358	
-0.403564	
-0.403748	
-0.402466	
-0.404358	
-0.404785	
-0.404785	
-0.405579	
-0.405273	
-0.405273	
-0.404846	
-0.406738	
-0.405396	
-0.40509	
-0.404541	
-0.40564	
-0.405334	
-0.405579	
-0.405334	
-0.405396	
-0.405029	
-0.404907	
-0.405334	
-0.404846	
-0.404541	
-0.404541	
-0.403809	
-0.404175	
-0.404785	
-0.405273	
-0.404663	
-0.405457	
-0.405212	
-0.405396	
-0.407288	
-0.40686	
-0.406494	
-0.406006	
-0.406982	
-0.406433	
-0.406921	
-0.406982	
-0.407349	
-0.407654	
-0.407776	
-0.406982	
-0.408447	
-0.407837	
-0.407776	
-0.40564	
-0.406372	
-0.40741	
-0.407288	
-0.406921	
-0.406982	
-0.406921	
-0.406799	
-0.407471	
-0.406433	
-0.405518	
-0.404602	
-0.405457	
-0.405151	
-0.404846	
-0.404419	
-0.403748	
-0.403503	
-0.402649	
-0.402344	
-0.402649	
-0.401489	
-0.400818	
-0.400635	
-0.400024	
-0.400818	
-0.400757	
-0.40033	
-0.401001	
-0.400574	
-0.400269	
-0.4021	
-0.401917	
-0.401184	
-0.401062	
-0.40155	
-0.401855	
-0.4021	
-0.402466	
-0.402893	
-0.403015	
-0.403503	
-0.402771	
-0.404297	
-0.404175	
-0.403992	
-0.404236	
-0.40509	
-0.405518	
-0.405518	
-0.405884	
-0.406067	
-0.405884	
-0.405762	
-0.407349	
-0.407471	
-0.406555	
-0.406067	
-0.406189	
-0.406921	
-0.407166	
-0.407471	
-0.407349	
-0.406738	
-0.407104	
-0.406799	
-0.407776	
-0.406677	
-0.406189	
-0.405884	
-0.406067	
-0.406494	
-0.406738	
-0.405029	
-0.406555	
-0.406433	
-0.405396	
-0.406738	
-0.405762	
-0.405701	
-0.405029	
-0.40448	
-0.403687	
-0.404663	
-0.404907	
-0.403503	
-0.404114	
-0.403625	
-0.403625	
-0.403748	
-0.403748	
-0.402893	
-0.401978	
-0.40332	
-0.403442	
-0.403076	
-0.402649	
-0.402588	
-0.402588	
-0.40155	
-0.403198	
-0.403442	
-0.403015	
-0.403076	
-0.401978	
-0.40271	
-0.402771	
-0.403625	
-0.401794	
-0.402832	
-0.40271	
-0.40332	
-0.403931	
-0.403564	
-0.403259	
-0.402222	
-0.403809	
-0.403809	
-0.403992	
-0.403748	
-0.403198	
-0.403748	
-0.402588	
-0.404541	
-0.403687	
-0.403442	
-0.402649	
-0.401855	
-0.402222	
-0.403015	
-0.403442	
-0.401794	
-0.402771	
-0.402954	
-0.403015	
-0.403381	
-0.404236	
-0.403076	
-0.402527	
-0.403931	
-0.403503	
-0.403687	
-0.403931	
-0.403381	
-0.403503	
-0.403564	
-0.404663	
-0.404236	
-0.40448	
-0.403564	
-0.403076	
-0.404175	
-0.40387	
-0.404724	
-0.404053	
-0.404297	
-0.403931	
-0.404236	
-0.404602	
-0.404419	
-0.403564	
-0.402649	
-0.402588	
-0.403442	
-0.403198	
-0.403503	
-0.401489	
-0.402344	
-0.401001	
-0.402771	
-0.402649	
-0.401306	
-0.40033	
-0.400146	
-0.40033	
-0.399902	
-0.40094	
-0.399963	
-0.399597	
-0.399414	
-0.400269	
-0.400635	
-0.40033	
-0.399719	
-0.399658	
-0.400146	
-0.400879	
-0.40094	
-0.400452	
-0.401123	
-0.400696	
-0.400696	
-0.402893	
-0.403625	
	
