E:\DOCUMENTS AND SETTINGS\JPOTAS\MEUS DOCUMENTOS\UFRJ\RSCI-BM 12 WK SERIES\070730-RSCI-BM-09\RSCI-BM-09-REMG\070730-RSCI-BM-09-REMG-0011.ACQ
0.025000 msec/sample
1 channel
Analog input
Volts
CH1	
2000	
-0.405334	
-0.405823	
-0.406372	
-0.406616	
-0.405518	
-0.404114	
-0.404846	
-0.405334	
-0.405212	
-0.404968	
-0.40509	
-0.404968	
-0.405334	
-0.405579	
-0.40625	
-0.40509	
-0.404541	
-0.403503	
-0.404663	
-0.404297	
-0.404663	
-0.404236	
-0.404663	
-0.404541	
-0.404541	
-0.405457	
-0.405823	
-0.404541	
-0.403748	
-0.403992	
-0.404114	
-0.404236	
-0.404053	
-0.403259	
-0.404724	
-0.403992	
-0.40448	
-0.404724	
-0.405396	
-0.404419	
-0.403198	
-0.403137	
-0.403748	
-0.403809	
-0.403503	
-0.403564	
-0.403564	
-0.403748	
-0.403687	
-0.404358	
-0.403015	
-0.403076	
-0.401917	
-0.402222	
-0.403076	
-0.40332	
-0.403137	
-0.40332	
-0.403503	
-0.403503	
-0.404358	
-0.40448	
-0.403076	
-0.402649	
-0.402954	
-0.401733	
-0.403687	
-0.404114	
-0.403809	
-0.404968	
-0.404602	
-0.405029	
-0.406128	
-0.40625	
-0.404297	
-0.404053	
-0.403564	
-0.404053	
-0.404175	
-0.403198	
-0.403931	
-0.404053	
-0.403931	
-0.404358	
-0.405029	
-0.404724	
-0.403748	
-0.402527	
-0.402771	
-0.403809	
-0.403625	
-0.402954	
-0.403809	
-0.404114	
-0.404236	
-0.404785	
-0.405273	
-0.404053	
-0.403748	
-0.402588	
-0.40155	
-0.403687	
-0.403748	
-0.404114	
-0.404297	
-0.404358	
-0.404114	
-0.405151	
-0.40625	
-0.404114	
-0.403931	
-0.403259	
-0.403931	
-0.403687	
-0.403564	
-0.403748	
-0.403931	
-0.403748	
-0.404419	
-0.405884	
-0.404724	
-0.404297	
-0.403259	
-0.403381	
-0.404541	
-0.405029	
-0.404724	
-0.405457	
-0.405334	
-0.40564	
-0.406311	
-0.407288	
-0.406128	
-0.405945	
-0.405396	
-0.405701	
-0.406311	
-0.406555	
-0.406921	
-0.406433	
-0.406372	
-0.406067	
-0.407104	
-0.40686	
-0.405518	
-0.405273	
-0.405273	
-0.40564	
-0.405945	
-0.405396	
-0.405762	
-0.405396	
-0.405457	
-0.405579	
-0.406738	
-0.406067	
-0.405212	
-0.40448	
-0.405212	
-0.405518	
-0.405579	
-0.405029	
-0.405457	
-0.405334	
-0.405029	
-0.405579	
-0.407043	
-0.405457	
-0.404846	
-0.404114	
-0.40448	
-0.405151	
-0.404907	
-0.404297	
-0.404968	
-0.404907	
-0.405762	
-0.406677	
-0.406128	
-0.40509	
-0.404663	
-0.404175	
-0.404297	
-0.404785	
-0.404785	
-0.404114	
-0.404663	
-0.404602	
-0.404663	
-0.406982	
-0.405029	
-0.403992	
-0.403748	
-0.404297	
-0.403992	
-0.403687	
-0.403442	
-0.403198	
-0.411438	
-0.413086	
-0.413635	
-0.414795	
-0.412598	
-0.411926	
-0.403137	
-0.401794	
-0.402832	
-0.402405	
-0.4021	
-0.402649	
-0.40271	
-0.402954	
-0.403992	
-0.403198	
-0.40271	
-0.403015	
-0.401672	
-0.401917	
-0.403198	
-0.402954	
-0.40271	
-0.403198	
-0.403442	
-0.403381	
-0.40509	
-0.402771	
-0.402527	
-0.4021	
-0.401184	
-0.402771	
-0.402893	
-0.403503	
-0.403992	
-0.40387	
-0.404175	
-0.404785	
-0.406311	
-0.404541	
-0.404419	
-0.403015	
-0.403564	
-0.404602	
-0.404358	
-0.403137	
-0.404602	
-0.40448	
-0.404419	
-0.405457	
-0.405457	
-0.404663	
-0.404358	
-0.402405	
-0.403748	
-0.404602	
-0.404907	
-0.403931	
-0.404785	
-0.404968	
-0.405151	
-0.405457	
-0.405212	
-0.404236	
-0.404175	
-0.40271	
-0.404175	
-0.404175	
-0.403992	
-0.404114	
-0.404114	
-0.404114	
-0.404297	
-0.406128	
-0.404785	
-0.403625	
-0.402954	
-0.403259	
-0.403992	
-0.403564	
-0.402588	
-0.404053	
-0.404358	
-0.404236	
-0.404907	
-0.405396	
-0.404297	
-0.403381	
-0.401794	
-0.402405	
-0.403198	
-0.403564	
-0.40387	
-0.404053	
-0.404785	
-0.405701	
-0.407288	
-0.408386	
-0.40863	
-0.409546	
-0.410767	
-0.41272	
-0.413696	
-0.415222	
-0.416382	
-0.41803	
-0.419495	
-0.421143	
-0.423401	
-0.424561	
-0.427124	
-0.428162	
-0.43103	
-0.433167	
-0.434998	
-0.436951	
-0.439087	
-0.441467	
-0.444153	
-0.445923	
-0.447571	
-0.448364	
-0.449585	
-0.449951	
-0.452332	
-0.452515	
-0.454224	
-0.454712	
-0.455933	
-0.456543	
-0.458191	
-0.458618	
-0.45874	
-0.458252	
-0.459351	
-0.45929	
-0.4599	
-0.460083	
-0.461365	
-0.461914	
-0.462891	
-0.464478	
-0.464783	
-0.464783	
-0.464905	
-0.464966	
-0.464966	
-0.465759	
-0.465393	
-0.466614	
-0.466187	
-0.465515	
-0.465393	
-0.466248	
-0.464294	
-0.463257	
-0.461548	
-0.459961	
-0.461243	
-0.460388	
-0.459778	
-0.459106	
-0.458496	
-0.458008	
-0.458435	
-0.45752	
-0.455811	
-0.45459	
-0.453979	
-0.454346	
-0.454285	
-0.45343	
-0.454468	
-0.45459	
-0.454468	
-0.455933	
-0.454651	
-0.454346	
-0.453186	
-0.453552	
-0.450745	
-0.451233	
-0.450012	
-0.449402	
-0.447815	
-0.445557	
-0.444275	
-0.443359	
-0.441345	
-0.437134	
-0.434387	
-0.431396	
-0.429077	
-0.425781	
-0.422424	
-0.420166	
-0.417786	
-0.414856	
-0.411682	
-0.408752	
-0.405518	
-0.400879	
-0.395752	
-0.392761	
-0.388916	
-0.385193	
-0.381165	
-0.377686	
-0.373779	
-0.370361	
-0.368103	
-0.36322	
-0.359741	
-0.355713	
-0.35376	
-0.348877	
-0.3479	
-0.345764	
-0.344116	
-0.342834	
-0.340759	
-0.34021	
-0.34082	
-0.339233	
-0.33783	
-0.336975	
-0.335449	
-0.336243	
-0.335205	
-0.334961	
-0.334717	
-0.334839	
-0.335388	
-0.336792	
-0.336365	
-0.335571	
-0.336121	
-0.335327	
-0.337097	
-0.338196	
-0.339172	
-0.340027	
-0.340881	
-0.341919	
-0.34491	
-0.345337	
-0.345764	
-0.346802	
-0.346985	
-0.349365	
-0.350403	
-0.352234	
-0.353149	
-0.354065	
-0.355774	
-0.35675	
-0.358337	
-0.358154	
-0.358887	
-0.360352	
-0.360962	
-0.361572	
-0.362793	
-0.363403	
-0.364441	
-0.365784	
-0.365845	
-0.36731	
-0.367249	
-0.368347	
-0.367859	
-0.367371	
-0.368774	
-0.369873	
-0.370178	
-0.371033	
-0.372864	
-0.372681	
-0.373596	
-0.373474	
-0.37384	
-0.373962	
-0.373291	
-0.375	
-0.374634	
-0.376465	
-0.376343	
-0.377808	
-0.376892	
-0.377686	
-0.376953	
-0.377747	
-0.378052	
-0.377197	
-0.37854	
-0.378052	
-0.379211	
-0.379333	
-0.380432	
-0.380249	
-0.380676	
-0.379883	
-0.379028	
-0.379883	
-0.380127	
-0.380737	
-0.380615	
-0.381531	
-0.382507	
-0.382202	
-0.383423	
-0.383423	
-0.382996	
-0.382874	
-0.383118	
-0.38385	
-0.384155	
-0.384827	
-0.385559	
-0.38562	
-0.38623	
-0.387451	
-0.387634	
-0.387085	
-0.387024	
-0.386963	
-0.387878	
-0.38855	
-0.388306	
-0.38916	
-0.389771	
-0.389771	
-0.39032	
-0.391052	
-0.391113	
-0.390564	
-0.389404	
-0.390259	
-0.391174	
-0.390381	
-0.391357	
-0.391113	
-0.390564	
-0.390991	
-0.39209	
-0.392212	
-0.39032	
-0.390747	
-0.390442	
-0.390442	
-0.390686	
-0.39032	
-0.390869	
-0.391052	
-0.391479	
-0.392456	
-0.392578	
-0.391846	
-0.391968	
-0.391235	
-0.393433	
-0.393066	
-0.392395	
-0.393799	
-0.394287	
-0.394165	
-0.393982	
-0.395081	
-0.393738	
-0.393005	
-0.392029	
-0.393555	
-0.393616	
-0.392944	
-0.394104	
-0.394043	
-0.39386	
-0.394104	
-0.394836	
-0.393616	
-0.393494	
-0.391724	
-0.393372	
-0.39325	
-0.392273	
-0.393677	
-0.393738	
-0.39386	
-0.393311	
-0.394653	
-0.393799	
-0.393066	
-0.392273	
-0.392639	
-0.393372	
-0.393738	
-0.393372	
-0.393494	
-0.393738	
-0.394226	
-0.395447	
-0.393921	
-0.393494	
-0.393311	
-0.393494	
-0.392761	
-0.39386	
-0.393311	
-0.394348	
-0.394592	
-0.394958	
-0.395935	
-0.395874	
-0.395996	
-0.39563	
-0.394836	
-0.39502	
-0.39624	
-0.39624	
-0.396423	
-0.396484	
-0.397827	
-0.397888	
-0.39978	
-0.398987	
-0.398315	
-0.397095	
-0.398804	
-0.398926	
-0.399048	
-0.398621	
-0.399536	
-0.399536	
-0.399719	
-0.40094	
-0.399109	
-0.399292	
-0.397461	
-0.399414	
-0.398438	
-0.398743	
-0.398804	
-0.398376	
-0.397766	
-0.397583	
-0.399109	
-0.39801	
-0.39801	
-0.396973	
-0.3974	
-0.398071	
-0.397461	
-0.396912	
-0.396606	
-0.397644	
-0.397888	
-0.39801	
-0.398621	
-0.397766	
-0.397888	
-0.396851	
-0.39856	
-0.39679	
-0.397766	
-0.397766	
-0.398071	
-0.398376	
-0.398071	
-0.399719	
-0.398499	
-0.398926	
-0.398376	
-0.397766	
-0.398193	
-0.398254	
-0.398376	
-0.397888	
-0.398254	
-0.398376	
-0.399597	
-0.399109	
-0.399109	
-0.399109	
-0.397339	
-0.399353	
-0.398682	
-0.399109	
-0.398315	
-0.398926	
-0.399231	
-0.399658	
-0.399292	
-0.399353	
-0.399658	
-0.397339	
-0.399658	
-0.399109	
-0.399109	
-0.398926	
-0.399231	
-0.39917	
-0.399475	
-0.400452	
-0.399353	
-0.400208	
-0.397888	
-0.399719	
-0.399475	
-0.399719	
-0.399719	
-0.399719	
-0.399658	
-0.399719	
-0.401123	
-0.400085	
-0.399658	
-0.398926	
-0.398682	
-0.399292	
-0.398254	
-0.399353	
-0.398926	
-0.399231	
-0.399597	
-0.400146	
-0.40094	
-0.400208	
-0.400391	
-0.398743	
-0.400208	
-0.399475	
-0.399902	
-0.399719	
-0.399841	
-0.400452	
-0.401123	
-0.402405	
-0.401367	
-0.401855	
-0.401245	
-0.401611	
-0.401672	
-0.401367	
-0.401245	
-0.400513	
-0.401489	
-0.40155	
-0.401855	
-0.40155	
-0.401367	
-0.400513	
-0.400757	
-0.40094	
-0.399902	
-0.400574	
-0.399658	
-0.400818	
-0.400879	
-0.401672	
-0.401428	
-0.400879	
-0.402039	
-0.401062	
-0.4021	
-0.400757	
-0.401245	
-0.401367	
-0.401611	
-0.40155	
-0.401855	
-0.402527	
-0.401978	
-0.401855	
-0.401062	
-0.40094	
-0.403137	
-0.401794	
-0.4021	
-0.401123	
-0.402222	
-0.402222	
-0.403076	
-0.402954	
-0.401978	
-0.401855	
-0.4021	
-0.403198	
-0.402527	
-0.402405	
-0.402405	
-0.402832	
-0.40271	
-0.403503	
-0.403625	
-0.404175	
-0.402954	
-0.40271	
-0.404541	
-0.404236	
-0.404175	
-0.404297	
-0.404907	
-0.405457	
-0.406067	
-0.406921	
-0.406311	
-0.405579	
-0.405823	
-0.405457	
-0.404968	
-0.404968	
-0.404541	
-0.404419	
-0.404968	
-0.405273	
-0.404907	
-0.404541	
-0.404419	
-0.403442	
-0.403748	
-0.404419	
-0.404114	
-0.403198	
-0.404297	
-0.404358	
-0.404236	
-0.40509	
-0.404602	
-0.404053	
-0.403442	
-0.402832	
-0.403992	
-0.403381	
-0.403259	
-0.403687	
-0.403198	
-0.40387	
-0.40448	
-0.404358	
-0.403992	
-0.404053	
-0.403625	
-0.403992	
-0.40332	
-0.40387	
-0.40387	
-0.403137	
-0.403931	
-0.404297	
-0.404358	
-0.40387	
-0.404175	
-0.403076	
-0.40448	
-0.404236	
-0.403198	
-0.403076	
-0.403748	
-0.403137	
-0.402893	
-0.403931	
-0.403687	
-0.403015	
-0.402222	
-0.402893	
-0.402954	
-0.401611	
-0.402344	
-0.402466	
-0.402283	
-0.402161	
-0.402771	
-0.403259	
-0.402222	
-0.402649	
-0.401489	
-0.402893	
-0.403259	
-0.402649	
-0.401733	
-0.402405	
-0.402588	
-0.403503	
-0.403748	
-0.40271	
-0.403442	
-0.402893	
-0.402649	
-0.403381	
-0.402161	
-0.402527	
-0.403259	
-0.402954	
-0.402954	
-0.403015	
-0.403198	
-0.402832	
-0.403503	
-0.402039	
-0.403442	
-0.403564	
-0.40387	
-0.403992	
-0.403564	
-0.404053	
-0.404297	
-0.404907	
-0.404663	
-0.404114	
-0.404541	
-0.403992	
-0.40448	
-0.403748	
-0.404114	
-0.404297	
-0.403503	
-0.404663	
-0.404846	
-0.405212	
-0.40448	
-0.405212	
-0.403564	
-0.404297	
-0.40448	
-0.404358	
-0.403625	
-0.403198	
-0.404114	
-0.404236	
-0.405396	
-0.403442	
-0.403992	
-0.402954	
-0.402832	
-0.403748	
-0.403198	
-0.403198	
-0.403198	
-0.403687	
-0.403687	
-0.403381	
-0.404053	
-0.403381	
-0.404114	
-0.401855	
-0.403198	
-0.402466	
-0.402527	
-0.401672	
-0.402039	
-0.40271	
-0.403198	
-0.403625	
-0.402649	
-0.402649	
-0.402283	
-0.401672	
-0.402588	
-0.40094	
-0.401428	
-0.402161	
-0.402649	
-0.402832	
-0.402893	
-0.403381	
-0.402954	
-0.403442	
-0.403503	
-0.404053	
-0.403137	
-0.403992	
-0.403137	
-0.403564	
-0.402649	
-0.402588	
-0.403992	
-0.403931	
-0.404053	
-0.403442	
-0.403625	
-0.403259	
-0.403137	
-0.402588	
-0.402893	
-0.403015	
-0.403137	
-0.403442	
-0.403625	
-0.403381	
-0.403564	
-0.402954	
-0.403625	
-0.402588	
-0.402466	
-0.402893	
-0.402954	
-0.402893	
-0.403076	
-0.403503	
-0.402832	
-0.403015	
-0.402893	
-0.402527	
-0.402283	
-0.401794	
-0.402832	
-0.401672	
-0.403198	
-0.403442	
-0.403625	
-0.40332	
-0.40332	
-0.403625	
-0.402893	
-0.402588	
-0.402771	
-0.403076	
-0.402893	
-0.403687	
-0.403625	
-0.403748	
-0.404724	
-0.404663	
-0.403992	
-0.404175	
-0.40448	
-0.403625	
-0.402832	
-0.403564	
-0.403931	
-0.40387	
-0.403992	
-0.404663	
-0.404175	
-0.403809	
-0.404785	
-0.403687	
-0.404236	
-0.403442	
-0.403015	
-0.403625	
-0.403564	
-0.403992	
-0.404053	
-0.40509	
-0.404541	
-0.40448	
-0.40448	
-0.404297	
-0.404236	
-0.403137	
-0.404053	
-0.403992	
-0.40448	
-0.404358	
-0.404419	
-0.404724	
-0.404968	
-0.405396	
-0.404419	
-0.403442	
-0.403687	
-0.403809	
-0.403564	
-0.404297	
-0.404297	
-0.404053	
-0.404419	
-0.404175	
-0.403564	
-0.403931	
-0.402222	
-0.402283	
-0.401611	
-0.402527	
-0.401184	
-0.40271	
-0.402893	
-0.402527	
-0.403015	
-0.40387	
-0.403748	
-0.402039	
-0.403503	
-0.403442	
-0.402039	
-0.402954	
-0.40332	
-0.403503	
-0.403503	
-0.403992	
-0.40387	
-0.404114	
-0.40332	
-0.402283	
-0.402954	
-0.402161	
-0.402161	
-0.402649	
-0.403381	
-0.403625	
-0.403687	
-0.404541	
-0.403748	
-0.40387	
-0.403503	
-0.40332	
-0.403259	
-0.402527	
-0.403259	
-0.403076	
-0.403442	
-0.403076	
-0.404175	
-0.404175	
-0.40387	
-0.403992	
-0.403809	
-0.403137	
-0.402405	
-0.403137	
-0.402466	
-0.403259	
-0.403442	
-0.403137	
-0.404175	
-0.404175	
-0.403564	
-0.403992	
-0.403687	
-0.401794	
-0.402832	
-0.402527	
-0.402832	
-0.402893	
-0.402771	
-0.402344	
-0.401917	
-0.402344	
-0.401672	
-0.40094	
-0.400513	
-0.401611	
-0.401062	
-0.401855	
-0.401978	
-0.401794	
-0.401978	
-0.403259	
-0.403687	
-0.403564	
-0.40332	
-0.402771	
-0.401794	
-0.402161	
-0.402039	
-0.402527	
-0.402649	
-0.402832	
-0.402954	
-0.403931	
-0.404175	
-0.40332	
-0.403015	
-0.402344	
-0.402771	
-0.401489	
-0.401917	
-0.40271	
-0.402527	
-0.403076	
-0.403381	
-0.40387	
-0.403809	
-0.40387	
-0.402466	
-0.402161	
-0.402588	
-0.4021	
-0.402527	
-0.40271	
-0.402771	
-0.403015	
-0.40387	
-0.404358	
-0.403687	
-0.403259	
-0.402954	
-0.402527	
-0.402588	
-0.4021	
-0.40387	
-0.40387	
-0.404175	
-0.404114	
-0.404785	
-0.405212	
-0.405029	
-0.404175	
-0.403564	
-0.404297	
-0.404114	
-0.404907	
-0.405029	
-0.404663	
-0.404846	
-0.405762	
-0.40625	
-0.404968	
-0.404907	
-0.40387	
-0.404968	
-0.404114	
-0.404053	
-0.405273	
-0.404846	
-0.404968	
-0.405151	
-0.405762	
-0.404663	
-0.405518	
-0.403992	
-0.403564	
-0.404968	
-0.405029	
-0.404968	
-0.405334	
-0.405884	
-0.40564	
-0.406738	
-0.40686	
-0.405518	
-0.405273	
-0.405334	
-0.404541	
-0.402954	
-0.403809	
-0.404724	
-0.404968	
-0.40448	
-0.404846	
-0.406067	
-0.404358	
-0.404541	
-0.403748	
-0.402771	
-0.403503	
-0.402527	
-0.403564	
-0.403381	
-0.403442	
-0.40387	
-0.404907	
-0.404846	
-0.403748	
-0.404297	
-0.403381	
-0.403809	
-0.403809	
-0.403503	
-0.40387	
-0.404236	
-0.404419	
-0.404419	
-0.405457	
-0.404968	
-0.404907	
-0.403931	
-0.403015	
-0.404419	
-0.403198	
-0.403442	
-0.404663	
-0.405029	
-0.405579	
-0.405457	
-0.406982	
-0.405701	
-0.406006	
-0.405151	
-0.405945	
-0.40564	
-0.405029	
-0.405884	
-0.405884	
-0.40625	
-0.40686	
-0.407104	
-0.407043	
-0.406921	
-0.406738	
-0.407166	
-0.407288	
-0.406616	
-0.406738	
-0.407593	
-0.407654	
-0.407959	
-0.40863	
-0.408813	
-0.407837	
-0.407288	
-0.406494	
-0.406067	
-0.406433	
-0.405518	
-0.405884	
-0.407043	
-0.407043	
-0.406616	
-0.406982	
-0.406494	
-0.405762	
-0.406311	
-0.405212	
-0.405579	
-0.406189	
-0.405823	
-0.405701	
-0.405212	
-0.405518	
-0.40625	
-0.407349	
-0.405396	
-0.405334	
-0.404724	
-0.40686	
-0.405518	
-0.40509	
-0.40509	
-0.406067	
-0.405151	
-0.405823	
-0.407532	
-0.407043	
-0.405762	
-0.405579	
-0.406128	
-0.405823	
-0.405823	
-0.405029	
-0.405579	
-0.405823	
-0.40564	
-0.405701	
-0.407288	
-0.40625	
-0.405884	
-0.405579	
-0.405212	
-0.405151	
-0.404968	
-0.404114	
-0.404968	
-0.404968	
-0.405396	
-0.405945	
-0.404907	
-0.405029	
-0.404968	
-0.404175	
-0.405151	
-0.405151	
-0.404236	
-0.404114	
-0.404724	
-0.405457	
-0.40564	
-0.40686	
-0.405396	
-0.405396	
-0.405212	
-0.406128	
-0.405396	
-0.40509	
-0.404724	
-0.405151	
-0.404907	
-0.405029	
-0.405334	
-0.405823	
-0.404663	
-0.404602	
-0.403931	
-0.404358	
-0.404175	
-0.404358	
-0.403809	
-0.404114	
-0.40387	
-0.404663	
-0.40625	
-0.404663	
-0.404602	
-0.404846	
-0.40448	
-0.40448	
-0.40448	
-0.403503	
-0.404419	
-0.404846	
-0.405151	
-0.406067	
-0.406738	
-0.405945	
-0.406128	
-0.405457	
-0.406616	
-0.40625	
-0.405457	
-0.404358	
-0.405701	
-0.405396	
-0.405334	
-0.405701	
-0.406494	
-0.405212	
-0.404907	
-0.405334	
-0.405151	
-0.404968	
-0.404236	
-0.404846	
-0.404907	
-0.405151	
-0.405396	
-0.406616	
-0.405457	
-0.405396	
-0.405273	
-0.405396	
-0.405334	
-0.404846	
-0.404236	
-0.405396	
-0.40509	
-0.405579	
-0.406433	
-0.406738	
-0.405457	
-0.405945	
-0.405518	
-0.405823	
-0.405945	
-0.404846	
-0.405701	
-0.405151	
-0.405396	
-0.405701	
-0.406433	
-0.405823	
-0.405579	
-0.405945	
-0.404175	
-0.405701	
-0.406067	
-0.404968	
-0.405884	
-0.405701	
-0.406189	
-0.406799	
-0.408264	
-0.407288	
-0.407104	
-0.407532	
-0.407288	
-0.407532	
-0.407043	
-0.407288	
-0.408325	
-0.408569	
-0.408569	
-0.409241	
-0.408875	
-0.407898	
-0.40802	
-0.406677	
-0.40741	
-0.407288	
-0.405273	
-0.407166	
-0.40741	
-0.406921	
-0.407471	
-0.407837	
-0.40741	
-0.407043	
-0.407043	
-0.406128	
-0.406616	
-0.406555	
-0.406616	
-0.406677	
-0.406738	
-0.406189	
-0.407166	
-0.407227	
-0.406738	
-0.406982	
-0.406311	
-0.406433	
-0.406311	
-0.405701	
-0.406677	
-0.406738	
-0.406677	
-0.406982	
-0.407654	
-0.407166	
-0.406921	
-0.40625	
-0.406616	
-0.40686	
-0.406433	
-0.406311	
-0.406921	
-0.406311	
-0.406494	
-0.40686	
-0.407349	
-0.406311	
-0.406067	
-0.405762	
-0.404785	
-0.405945	
-0.404724	
-0.405579	
-0.406128	
-0.405334	
-0.405334	
-0.406555	
-0.405823	
-0.404907	
-0.405334	
-0.405151	
-0.404968	
-0.404724	
-0.40448	
-0.40509	
-0.404907	
-0.404785	
-0.406006	
-0.405151	
-0.405701	
-0.404907	
-0.404846	
-0.404602	
-0.404785	
-0.404846	
-0.404114	
-0.405029	
-0.404785	
-0.40509	
-0.406067	
-0.404846	
-0.404785	
-0.40509	
-0.404114	
-0.403931	
-0.404541	
-0.403198	
-0.404297	
-0.404297	
-0.40387	
-0.40448	
-0.406128	
-0.405823	
-0.405518	
-0.405334	
-0.405579	
-0.405396	
-0.405334	
-0.404419	
-0.405151	
-0.40564	
-0.40564	
-0.406799	
-0.405823	
-0.406738	
-0.406067	
-0.405884	
-0.40564	
-0.406006	
-0.404907	
-0.405762	
-0.405884	
-0.405884	
-0.406128	
-0.406677	
-0.406433	
-0.405945	
-0.40625	
-0.40564	
-0.405884	
-0.405334	
-0.404907	
-0.405212	
-0.405212	
-0.405396	
-0.40564	
-0.406311	
-0.406189	
-0.405457	
-0.404846	
-0.40509	
-0.404785	
-0.403809	
-0.404724	
-0.405029	
-0.404358	
-0.40448	
-0.405151	
-0.404297	
-0.404968	
-0.405212	
-0.40332	
-0.403625	
-0.403687	
-0.40332	
-0.403564	
-0.403503	
-0.403748	
-0.403748	
-0.404114	
-0.404114	
-0.403748	
-0.404236	
-0.40271	
-0.40387	
-0.402771	
-0.403381	
-0.403503	
-0.403748	
-0.403992	
-0.40509	
-0.405273	
-0.40509	
-0.404907	
-0.403931	
-0.403992	
-0.403259	
-0.402405	
-0.403992	
-0.404724	
-0.404663	
-0.404663	
-0.404846	
-0.404297	
-0.404724	
-0.403748	
-0.402832	
-0.40387	
-0.404175	
-0.404236	
-0.404541	
-0.404663	
-0.404907	
-0.404724	
-0.404663	
-0.404663	
-0.40509	
-0.403992	
-0.404175	
-0.403503	
-0.404358	
-0.404663	
-0.404602	
-0.404358	
-0.404541	
-0.405212	
-0.405212	
-0.404846	
-0.40448	
-0.404053	
-0.404602	
-0.403015	
-0.404602	
-0.404724	
-0.404968	
-0.404602	
-0.405212	
-0.405151	
-0.406006	
-0.406433	
-0.405579	
-0.404419	
-0.404175	
-0.404785	
-0.40509	
-0.405151	
-0.405518	
-0.405396	
-0.405945	
-0.405945	
-0.406311	
-0.405212	
-0.404907	
-0.405273	
-0.403809	
-0.40448	
-0.405212	
-0.405212	
-0.405334	
-0.405457	
-0.406067	
-0.406006	
-0.407104	
-0.405212	
-0.405029	
-0.405518	
-0.40509	
-0.405457	
-0.405884	
-0.405884	
-0.405518	
-0.406799	
-0.406372	
-0.406494	
-0.40625	
-0.406189	
-0.404724	
-0.404724	
-0.405457	
-0.40625	
-0.405823	
-0.406006	
-0.406189	
-0.406677	
-0.406738	
-0.407959	
-0.406433	
-0.405396	
-0.405701	
-0.405396	
-0.405212	
-0.405273	
-0.404846	
-0.404419	
-0.404419	
-0.404968	
-0.404724	
-0.405884	
-0.404297	
-0.403442	
-0.404236	
-0.404358	
-0.404846	
-0.404968	
-0.404724	
-0.405212	
-0.40564	
-0.405334	
-0.405884	
-0.405212	
-0.404968	
-0.403748	
-0.404724	
-0.404114	
-0.405212	
-0.404907	
-0.404724	
-0.404663	
-0.405823	
-0.406067	
-0.405701	
-0.405334	
-0.404785	
-0.404236	
-0.404724	
-0.404663	
-0.404724	
-0.404541	
-0.404663	
-0.404358	
-0.404541	
-0.405029	
-0.404724	
-0.403809	
-0.403442	
-0.402893	
-0.404297	
-0.40509	
-0.40509	
-0.404968	
-0.404968	
-0.405518	
-0.405212	
-0.406128	
-0.404602	
-0.40332	
-0.403381	
-0.404297	
-0.403809	
-0.404541	
-0.404297	
-0.40387	
-0.404175	
-0.405029	
-0.405457	
-0.404053	
-0.404114	
-0.403198	
-0.403259	
-0.402954	
-0.402649	
-0.402649	
-0.402527	
-0.40271	
-0.403198	
-0.404114	
-0.404663	
-0.403503	
-0.401917	
-0.402649	
-0.402649	
-0.4021	
-0.403809	
-0.403687	
-0.403564	
-0.403564	
-0.403931	
-0.404358	
-0.404297	
-0.403931	
-0.402588	
-0.401855	
-0.404053	
-0.403748	
-0.403809	
-0.403687	
-0.403992	
-0.403992	
-0.404846	
-0.405762	
-0.40387	
-0.404419	
-0.402405	
-0.404236	
-0.404175	
-0.403992	
-0.404236	
-0.404053	
-0.40448	
-0.404236	
-0.40448	
-0.404541	
-0.403931	
-0.402893	
-0.402527	
-0.403625	
-0.404297	
-0.403809	
-0.404297	
-0.404358	
-0.404602	
-0.405579	
-0.405884	
-0.404785	
-0.405762	
-0.404297	
-0.404175	
-0.405029	
-0.405518	
-0.405396	
-0.405396	
-0.405212	
-0.405518	
-0.406372	
-0.406982	
-0.405518	
-0.405334	
-0.404236	
-0.405762	
-0.40509	
-0.40625	
-0.406189	
-0.406128	
-0.405884	
-0.406616	
-0.406616	
-0.406555	
-0.406372	
-0.405518	
-0.403748	
-0.405701	
-0.40564	
-0.405823	
-0.405762	
-0.405701	
-0.406067	
-0.40625	
-0.407593	
-0.406189	
-0.405762	
-0.405945	
-0.406067	
-0.406616	
-0.406738	
-0.406799	
-0.406067	
-0.405762	
-0.405823	
-0.405579	
-0.406128	
-0.405701	
-0.404724	
-0.403992	
-0.405151	
-0.404297	
-0.40509	
-0.405151	
-0.404907	
-0.404907	
-0.405273	
-0.405823	
-0.405334	
-0.404907	
-0.403687	
-0.402771	
-0.404053	
-0.404541	
-0.404358	
-0.40448	
-0.404541	
-0.40509	
-0.404663	
-0.406433	
-0.404907	
-0.404297	
-0.404297	
-0.40448	
-0.404907	
-0.405579	
-0.405396	
-0.405151	
-0.40509	
-0.406311	
-0.406189	
-0.406616	
-0.405762	
-0.405518	
-0.405212	
-0.405945	
-0.405212	
-0.406006	
-0.406433	
-0.406372	
-0.406799	
-0.406799	
-0.407166	
-0.406982	
-0.406372	
-0.406677	
-0.405762	
-0.407349	
-0.407715	
-0.407837	
-0.407471	
-0.40802	
-0.408813	
-0.408386	
-0.409058	
-0.407898	
-0.408691	
-0.407654	
-0.407959	
-0.40802	
-0.407898	
-0.407166	
-0.407288	
-0.407959	
-0.409058	
-0.408813	
-0.40802	
-0.407349	
-0.407166	
-0.40564	
-0.406006	
-0.405762	
-0.407104	
-0.406555	
-0.406738	
-0.406982	
-0.407227	
-0.406921	
-0.406738	
-0.40625	
-0.404907	
-0.405518	
-0.406433	
-0.406616	
-0.406738	
-0.406128	
-0.406311	
-0.407104	
-0.406616	
-0.406799	
-0.405945	
-0.406372	
-0.40564	
-0.406128	
-0.406555	
	
