E:\DOCUMENTS AND SETTINGS\JPOTAS\MEUS DOCUMENTOS\UFRJ\RSCI-BM 12 WK SERIES\070730-RSCI-BM-09\RSCI-BM-09-REMG\070730-RSCI-BM-09-REMG-0006.ACQ
0.025000 msec/sample
1 channel
Analog input
Volts
CH1	
2000	
-0.40387	
-0.403809	
-0.40509	
-0.405334	
-0.40625	
-0.405151	
-0.405823	
-0.406006	
-0.405334	
-0.404907	
-0.405457	
-0.404297	
-0.403687	
-0.404541	
-0.404358	
-0.403625	
-0.404053	
-0.403076	
-0.402161	
-0.402466	
-0.402283	
-0.400696	
-0.400452	
-0.399902	
-0.399109	
-0.400208	
-0.399414	
-0.399353	
-0.399109	
-0.399536	
-0.399292	
-0.39801	
-0.399109	
-0.398621	
-0.397644	
-0.398315	
-0.398987	
-0.39978	
-0.39978	
-0.400024	
-0.400208	
-0.40094	
-0.400513	
-0.39978	
-0.401245	
-0.400696	
-0.39978	
-0.400635	
-0.401367	
-0.401306	
-0.401978	
-0.402832	
-0.4021	
-0.401794	
-0.402954	
-0.402954	
-0.401611	
-0.402344	
-0.401917	
-0.401855	
-0.403381	
-0.403564	
-0.403503	
-0.403809	
-0.404541	
-0.403992	
-0.404724	
-0.405457	
-0.405029	
-0.405579	
-0.405212	
-0.406616	
-0.407104	
-0.407471	
-0.408142	
-0.408386	
-0.409241	
-0.408813	
-0.409729	
-0.409668	
-0.408936	
-0.408386	
-0.408386	
-0.409119	
-0.40863	
-0.409058	
-0.409607	
-0.409058	
-0.409729	
-0.40918	
-0.409058	
-0.40863	
-0.408386	
-0.406311	
-0.407715	
-0.408447	
-0.408752	
-0.408875	
-0.40918	
-0.408325	
-0.408569	
-0.408936	
-0.40863	
-0.407532	
-0.408081	
-0.405884	
-0.408569	
-0.408447	
-0.408569	
-0.408264	
-0.408569	
-0.408813	
-0.407837	
-0.408325	
-0.40741	
-0.406921	
-0.406433	
-0.405823	
-0.406189	
-0.406311	
-0.406189	
-0.406128	
-0.406067	
-0.406433	
-0.405396	
-0.406433	
-0.404236	
-0.404297	
-0.40332	
-0.4021	
-0.403015	
-0.402954	
-0.402588	
-0.403564	
-0.402527	
-0.402832	
-0.403015	
-0.404846	
-0.402283	
-0.402649	
-0.401733	
-0.403137	
-0.403137	
-0.403259	
-0.403442	
-0.404236	
-0.404053	
-0.403381	
-0.40387	
-0.403137	
-0.403381	
-0.403259	
-0.401245	
-0.403687	
-0.403748	
-0.403198	
-0.403625	
-0.403442	
-0.40387	
-0.40332	
-0.403748	
-0.402222	
-0.402344	
-0.401794	
-0.400574	
-0.401917	
-0.402039	
-0.401672	
-0.401855	
-0.401672	
-0.401123	
-0.401184	
-0.402527	
-0.400269	
-0.401367	
-0.401367	
-0.402344	
-0.402344	
-0.402405	
-0.403015	
-0.403931	
-0.403442	
-0.403259	
-0.404541	
-0.40387	
-0.402649	
-0.403137	
-0.402039	
-0.40387	
-0.404053	
-0.403748	
-0.404053	
-0.404419	
-0.404785	
-0.403992	
-0.404968	
-0.403931	
-0.40271	
-0.41095	
-0.411987	
-0.412903	
-0.412598	
-0.413086	
-0.412964	
-0.404724	
-0.404114	
-0.40448	
-0.405151	
-0.404175	
-0.404968	
-0.403137	
-0.405518	
-0.405945	
-0.406372	
-0.406921	
-0.407288	
-0.407288	
-0.407837	
-0.408813	
-0.408325	
-0.407471	
-0.407776	
-0.407104	
-0.408203	
-0.408325	
-0.408447	
-0.408447	
-0.408203	
-0.408325	
-0.408447	
-0.409241	
-0.408386	
-0.407227	
-0.407532	
-0.407471	
-0.407776	
-0.407471	
-0.407715	
-0.407532	
-0.407349	
-0.40741	
-0.407043	
-0.407532	
-0.406921	
-0.40564	
-0.404968	
-0.405518	
-0.407043	
-0.406433	
-0.406433	
-0.407166	
-0.406555	
-0.406799	
-0.406555	
-0.406494	
-0.405701	
-0.405334	
-0.403748	
-0.404419	
-0.405457	
-0.405334	
-0.405029	
-0.405273	
-0.404663	
-0.404663	
-0.404419	
-0.404053	
-0.403137	
-0.40271	
-0.402161	
-0.402283	
-0.402283	
-0.402039	
-0.403137	
-0.402283	
-0.402405	
-0.402588	
-0.403687	
-0.402588	
-0.401672	
-0.401428	
-0.401672	
-0.402466	
-0.402466	
-0.402954	
-0.402954	
-0.402588	
-0.402771	
-0.401917	
-0.403137	
-0.402527	
-0.402405	
-0.402832	
-0.402832	
-0.404907	
-0.405762	
-0.406616	
-0.407837	
-0.408264	
-0.409729	
-0.410034	
-0.412048	
-0.412231	
-0.413391	
-0.415039	
-0.417114	
-0.417969	
-0.419617	
-0.421814	
-0.42334	
-0.425171	
-0.426819	
-0.428772	
-0.430115	
-0.430908	
-0.433044	
-0.43512	
-0.435852	
-0.446594	
-0.449768	
-0.450134	
-0.450806	
-0.451782	
-0.452271	
-0.444702	
-0.442749	
-0.442688	
-0.443176	
-0.444641	
-0.444885	
-0.44574	
-0.445923	
-0.446289	
-0.445923	
-0.445496	
-0.446533	
-0.446289	
-0.445129	
-0.445618	
-0.445801	
-0.447632	
-0.448242	
-0.449036	
-0.448792	
-0.449341	
-0.450439	
-0.451355	
-0.450989	
-0.451172	
-0.450378	
-0.451416	
-0.452209	
-0.452393	
-0.452515	
-0.452148	
-0.451599	
-0.451416	
-0.451782	
-0.451294	
-0.450684	
-0.448914	
-0.44928	
-0.448303	
-0.44873	
-0.448303	
-0.448242	
-0.448059	
-0.447632	
-0.447998	
-0.44873	
-0.449036	
-0.447998	
-0.448364	
-0.448608	
-0.448669	
-0.448364	
-0.448608	
-0.447449	
-0.446777	
-0.445313	
-0.444092	
-0.442566	
-0.440674	
-0.437683	
-0.43634	
-0.433411	
-0.431702	
-0.42981	
-0.428589	
-0.424438	
-0.421631	
-0.419678	
-0.417175	
-0.414185	
-0.409973	
-0.406311	
-0.404175	
-0.401428	
-0.398438	
-0.395081	
-0.391296	
-0.387329	
-0.383484	
-0.379883	
-0.376404	
-0.372375	
-0.367004	
-0.363098	
-0.35968	
-0.35614	
-0.352417	
-0.349731	
-0.346741	
-0.344299	
-0.341736	
-0.339478	
-0.339417	
-0.337769	
-0.335449	
-0.336975	
-0.337219	
-0.337036	
-0.337219	
-0.337769	
-0.337524	
-0.33844	
-0.339417	
-0.339661	
-0.340393	
-0.339905	
-0.341064	
-0.342529	
-0.344421	
-0.346252	
-0.348022	
-0.349548	
-0.352234	
-0.353455	
-0.356506	
-0.358337	
-0.358032	
-0.361572	
-0.363647	
-0.366516	
-0.368774	
-0.370544	
-0.372925	
-0.375427	
-0.377502	
-0.379028	
-0.38092	
-0.379883	
-0.382813	
-0.38446	
-0.386597	
-0.388184	
-0.38916	
-0.391235	
-0.393005	
-0.394958	
-0.397034	
-0.399109	
-0.397827	
-0.401306	
-0.401794	
-0.402771	
-0.403137	
-0.40332	
-0.404114	
-0.403931	
-0.404114	
-0.403931	
-0.403931	
-0.402222	
-0.402161	
-0.401855	
-0.402283	
-0.402527	
-0.402527	
-0.401611	
-0.401794	
-0.402893	
-0.402771	
-0.402893	
-0.40332	
-0.404053	
-0.404358	
-0.406067	
-0.40802	
-0.409424	
-0.410156	
-0.41095	
-0.411987	
-0.413391	
-0.414917	
-0.414612	
-0.413757	
-0.415283	
-0.416016	
-0.415649	
-0.415955	
-0.416382	
-0.41571	
-0.414368	
-0.413391	
-0.41156	
-0.409485	
-0.407166	
-0.403687	
-0.401611	
-0.399414	
-0.397339	
-0.394958	
-0.391357	
-0.388794	
-0.386169	
-0.383301	
-0.381653	
-0.37854	
-0.374695	
-0.372131	
-0.3703	
-0.36676	
-0.364929	
-0.362671	
-0.358948	
-0.356201	
-0.354248	
-0.351807	
-0.34967	
-0.346985	
-0.343506	
-0.342346	
-0.34082	
-0.3396	
-0.338867	
-0.337585	
-0.336426	
-0.33606	
-0.334839	
-0.334229	
-0.332581	
-0.330566	
-0.330139	
-0.329224	
-0.32843	
-0.327942	
-0.326538	
-0.326172	
-0.325745	
-0.326172	
-0.325928	
-0.325562	
-0.325256	
-0.325806	
-0.326355	
-0.327026	
-0.328918	
-0.329285	
-0.330444	
-0.331726	
-0.333008	
-0.334229	
-0.334351	
-0.335754	
-0.335571	
-0.338684	
-0.339233	
-0.341858	
-0.342957	
-0.343994	
-0.344971	
-0.34668	
-0.349121	
-0.348877	
-0.350586	
-0.35083	
-0.353821	
-0.354065	
-0.355957	
-0.357666	
-0.358765	
-0.359253	
-0.360718	
-0.362183	
-0.362549	
-0.364502	
-0.36322	
-0.365784	
-0.366333	
-0.36731	
-0.369202	
-0.3703	
-0.370911	
-0.371155	
-0.372803	
-0.373352	
-0.374756	
-0.374268	
-0.376709	
-0.377686	
-0.379211	
-0.379883	
-0.380737	
-0.381042	
-0.381714	
-0.384094	
-0.382568	
-0.383362	
-0.382629	
-0.383667	
-0.383911	
-0.384766	
-0.386047	
-0.386292	
-0.386047	
-0.386414	
-0.387024	
-0.386902	
-0.386597	
-0.385986	
-0.384766	
-0.385559	
-0.38562	
-0.385803	
-0.386169	
-0.386963	
-0.386047	
-0.385437	
-0.387329	
-0.386536	
-0.387512	
-0.38623	
-0.38678	
-0.387329	
-0.387695	
-0.388489	
-0.388367	
-0.388733	
-0.388916	
-0.389038	
-0.388733	
-0.389465	
-0.388428	
-0.389404	
-0.389648	
-0.388489	
-0.389771	
-0.390503	
-0.390076	
-0.389832	
-0.388794	
-0.389893	
-0.390076	
-0.389404	
-0.389343	
-0.390015	
-0.389709	
-0.39093	
-0.390869	
-0.390808	
-0.391357	
-0.390808	
-0.392212	
-0.391479	
-0.391663	
-0.391785	
-0.391968	
-0.392639	
-0.393372	
-0.394043	
-0.393188	
-0.393555	
-0.393311	
-0.394836	
-0.394043	
-0.394592	
-0.394409	
-0.394531	
-0.39502	
-0.395325	
-0.394836	
-0.394592	
-0.393066	
-0.393494	
-0.394104	
-0.393005	
-0.392639	
-0.392273	
-0.391479	
-0.392395	
-0.392029	
-0.391296	
-0.392029	
-0.390381	
-0.391724	
-0.391785	
-0.391663	
-0.391479	
-0.389954	
-0.391541	
-0.3927	
-0.39209	
-0.392456	
-0.392334	
-0.3927	
-0.393066	
-0.393188	
-0.393616	
-0.39386	
-0.393066	
-0.394531	
-0.395996	
-0.394653	
-0.394897	
-0.394287	
-0.395447	
-0.396362	
-0.395081	
-0.395508	
-0.395935	
-0.395813	
-0.39679	
-0.397644	
-0.397156	
-0.397705	
-0.396851	
-0.398132	
-0.399536	
-0.398682	
-0.398865	
-0.398682	
-0.399536	
-0.400452	
-0.40155	
-0.401062	
-0.402039	
-0.401184	
-0.402649	
-0.40387	
-0.403137	
-0.403809	
-0.403564	
-0.404419	
-0.404602	
-0.405273	
-0.404236	
-0.404602	
-0.40271	
-0.405334	
-0.405823	
-0.403381	
-0.404724	
-0.404541	
-0.405273	
-0.405334	
-0.405823	
-0.404541	
-0.404785	
-0.404663	
-0.404785	
-0.405579	
-0.403748	
-0.403687	
-0.403809	
-0.403503	
-0.403137	
-0.404114	
-0.403137	
-0.402649	
-0.402893	
-0.401428	
-0.402954	
-0.402893	
-0.401306	
-0.401978	
-0.400574	
-0.401978	
-0.40155	
-0.402649	
-0.401123	
-0.400818	
-0.399414	
-0.400513	
-0.40155	
-0.398682	
-0.399475	
-0.398804	
-0.399414	
-0.399475	
-0.400574	
-0.39856	
-0.398071	
-0.397705	
-0.397888	
-0.397888	
-0.395935	
-0.396362	
-0.395752	
-0.396484	
-0.396179	
-0.397583	
-0.396545	
-0.396545	
-0.396423	
-0.396667	
-0.398315	
-0.396423	
-0.396729	
-0.395813	
-0.397583	
-0.397888	
-0.397949	
-0.398743	
-0.398071	
-0.397461	
-0.398193	
-0.399231	
-0.398438	
-0.3974	
-0.397095	
-0.398376	
-0.398682	
-0.398865	
-0.399292	
-0.398376	
-0.397583	
-0.398804	
-0.398926	
-0.39801	
-0.397095	
-0.396606	
-0.397644	
-0.397583	
-0.397827	
-0.397766	
-0.397522	
-0.396423	
-0.397583	
-0.398071	
-0.398071	
-0.397034	
-0.397644	
-0.397949	
-0.398987	
-0.399414	
-0.399719	
-0.399475	
-0.399597	
-0.400146	
-0.400146	
-0.400452	
-0.399841	
-0.399902	
-0.399963	
-0.400635	
-0.400696	
-0.400513	
-0.400818	
-0.400208	
-0.399414	
-0.399719	
-0.401306	
-0.400146	
-0.398499	
-0.398926	
-0.399475	
-0.399719	
-0.400452	
-0.400696	
-0.400085	
-0.400269	
-0.402039	
-0.402161	
-0.401855	
-0.4021	
-0.402161	
-0.4021	
-0.403198	
-0.404053	
-0.40387	
-0.40387	
-0.403809	
-0.404419	
-0.404724	
-0.405029	
-0.405029	
-0.40509	
-0.405701	
-0.404724	
-0.406189	
-0.406067	
-0.406006	
-0.405762	
-0.405396	
-0.405823	
-0.406677	
-0.406372	
-0.405334	
-0.405945	
-0.405701	
-0.405762	
-0.406311	
-0.406189	
-0.405396	
-0.405029	
-0.405273	
-0.405518	
-0.405823	
-0.40509	
-0.403625	
-0.404846	
-0.404358	
-0.405579	
-0.404968	
-0.405151	
-0.403931	
-0.404541	
-0.404724	
-0.404419	
-0.404358	
-0.40332	
-0.40387	
-0.403015	
-0.403748	
-0.403809	
-0.403931	
-0.403259	
-0.402893	
-0.403198	
-0.403137	
-0.40332	
-0.401672	
-0.401001	
-0.401367	
-0.401428	
-0.402039	
-0.401733	
-0.400635	
-0.400818	
-0.400452	
-0.40155	
-0.401062	
-0.400574	
-0.39978	
-0.399658	
-0.399475	
-0.400085	
-0.400757	
-0.400024	
-0.399719	
-0.398071	
-0.400574	
-0.400757	
-0.399902	
-0.399414	
-0.399109	
-0.398926	
-0.400452	
-0.401367	
-0.400452	
-0.40033	
-0.399597	
-0.40094	
-0.401367	
-0.40094	
-0.399963	
-0.398987	
-0.399963	
-0.400208	
-0.401062	
-0.40155	
-0.400513	
-0.400452	
-0.400513	
-0.402283	
-0.401245	
-0.401855	
-0.401367	
-0.401794	
-0.401428	
-0.402527	
-0.404541	
-0.402954	
-0.402954	
-0.402893	
-0.403625	
-0.404602	
-0.404236	
-0.403748	
-0.402588	
-0.40387	
-0.404175	
-0.404419	
-0.403442	
-0.403809	
-0.403564	
-0.403564	
-0.404785	
-0.404053	
-0.402832	
-0.402161	
-0.402039	
-0.402527	
-0.402771	
-0.402588	
-0.402405	
-0.402039	
-0.400024	
-0.402954	
-0.403076	
-0.403015	
-0.402588	
-0.402466	
-0.403259	
-0.404358	
-0.405945	
-0.404724	
-0.405273	
-0.405884	
-0.405457	
-0.407288	
-0.407043	
-0.407349	
-0.407166	
-0.406616	
-0.407532	
-0.40863	
-0.409546	
-0.408691	
-0.408569	
-0.407715	
-0.409241	
-0.40979	
-0.409241	
-0.408447	
-0.407043	
-0.407837	
-0.408508	
-0.409302	
-0.408142	
-0.407654	
-0.407166	
-0.407654	
-0.40802	
-0.40741	
-0.406677	
-0.405334	
-0.406189	
-0.40625	
-0.406616	
-0.406067	
-0.405945	
-0.405457	
-0.404358	
-0.406494	
-0.406616	
-0.405884	
-0.404236	
-0.404968	
-0.404358	
-0.404297	
-0.405273	
-0.40448	
-0.404419	
-0.40332	
-0.403381	
-0.402954	
-0.403137	
-0.401428	
-0.40155	
-0.400452	
-0.400818	
-0.401001	
-0.401062	
-0.400513	
-0.399963	
-0.399353	
-0.399658	
-0.400574	
-0.399292	
-0.397888	
-0.39856	
-0.398499	
-0.399231	
-0.400024	
-0.399475	
-0.399292	
-0.3974	
-0.40033	
-0.39917	
-0.399353	
-0.39917	
-0.399292	
-0.398132	
-0.398193	
-0.400269	
-0.399292	
-0.39917	
-0.398743	
-0.39978	
-0.399109	
-0.399658	
-0.399658	
-0.399353	
-0.39917	
-0.399231	
-0.400024	
-0.400635	
-0.399109	
-0.399475	
-0.398743	
-0.400085	
-0.400146	
-0.40155	
-0.399963	
-0.400513	
-0.400024	
-0.401245	
-0.401855	
-0.401245	
-0.401672	
-0.400391	
-0.402527	
-0.402771	
-0.403503	
-0.403625	
-0.403259	
-0.404602	
-0.403381	
-0.406067	
-0.405212	
-0.40509	
-0.40448	
-0.404541	
-0.406067	
-0.405029	
-0.406006	
-0.40387	
-0.404724	
-0.404236	
-0.405029	
-0.404968	
-0.404724	
-0.404541	
-0.404358	
-0.404602	
-0.404358	
-0.404724	
-0.404053	
-0.404053	
-0.404114	
-0.402039	
-0.404968	
-0.40509	
-0.404114	
-0.403687	
-0.404236	
-0.404541	
-0.404663	
-0.406433	
-0.404358	
-0.404785	
-0.404724	
-0.405884	
-0.405823	
-0.405273	
-0.405151	
-0.405762	
-0.40625	
-0.406494	
-0.40625	
-0.40741	
-0.405945	
-0.405457	
-0.404907	
-0.405334	
-0.406128	
-0.404846	
-0.403442	
-0.404419	
-0.404541	
-0.404297	
-0.404907	
-0.403259	
-0.404114	
-0.403687	
-0.404175	
-0.404053	
-0.403992	
-0.404053	
-0.402466	
-0.402466	
-0.403687	
-0.404175	
-0.404297	
-0.402832	
-0.403931	
-0.403381	
-0.404968	
-0.404663	
-0.404236	
-0.403748	
-0.403625	
-0.404663	
-0.404297	
-0.404236	
-0.402893	
-0.402405	
-0.401672	
-0.401184	
-0.401611	
-0.401489	
-0.400696	
-0.400085	
-0.399902	
-0.400513	
-0.400452	
-0.400574	
-0.399902	
-0.399292	
-0.397583	
-0.400024	
-0.399536	
-0.398804	
-0.398132	
-0.399048	
-0.399658	
-0.399353	
-0.400208	
-0.39917	
-0.398926	
-0.398499	
-0.399841	
-0.400208	
-0.400024	
-0.39978	
-0.398804	
-0.400024	
-0.400818	
-0.401123	
-0.401184	
-0.399292	
-0.40033	
-0.400513	
-0.401489	
-0.401001	
-0.401184	
-0.400513	
-0.400818	
-0.401489	
-0.401306	
-0.40155	
-0.401489	
-0.401245	
-0.401184	
-0.40094	
-0.403015	
-0.402222	
-0.402771	
-0.402161	
-0.401794	
-0.402954	
-0.403503	
-0.404541	
-0.403259	
-0.404358	
-0.404358	
-0.405334	
-0.405884	
-0.405457	
-0.405579	
-0.40564	
-0.406067	
-0.405884	
-0.405518	
-0.40564	
-0.405151	
-0.404968	
-0.405396	
-0.406921	
-0.406128	
-0.405823	
-0.405457	
-0.405579	
-0.40625	
-0.406494	
-0.405823	
-0.404541	
-0.405151	
-0.405212	
-0.405579	
-0.406311	
-0.40509	
-0.404968	
-0.404419	
-0.406189	
-0.40509	
-0.405762	
-0.405273	
-0.405029	
-0.404907	
-0.404663	
-0.406067	
-0.405334	
-0.404785	
-0.404785	
-0.404114	
-0.404785	
-0.405029	
-0.404602	
-0.403748	
-0.404297	
-0.403809	
-0.403381	
-0.404053	
-0.403503	
-0.403198	
-0.40155	
-0.404236	
-0.403259	
-0.402954	
-0.403137	
-0.402588	
-0.401917	
-0.402893	
-0.403809	
-0.402649	
-0.403198	
-0.402832	
-0.402527	
-0.403442	
-0.404053	
-0.403259	
-0.403687	
-0.403564	
-0.403809	
-0.403259	
-0.405396	
-0.403809	
-0.404175	
-0.403748	
-0.40448	
-0.403625	
-0.404114	
-0.404114	
-0.403442	
-0.401672	
-0.402893	
-0.402161	
-0.40155	
-0.400635	
-0.40033	
-0.400635	
-0.400574	
-0.400146	
-0.399231	
-0.399048	
-0.398499	
-0.398865	
-0.39801	
-0.398315	
-0.397888	
-0.397827	
-0.396606	
-0.398376	
-0.397461	
-0.39801	
-0.398315	
-0.397827	
-0.397461	
-0.398254	
-0.399231	
-0.39801	
-0.398865	
-0.398865	
-0.398315	
-0.399353	
-0.399719	
-0.399597	
-0.400085	
-0.399475	
-0.399963	
-0.400452	
-0.401672	
-0.400513	
-0.400757	
-0.399841	
-0.401733	
-0.401184	
-0.401367	
-0.401611	
-0.400635	
-0.400513	
-0.401733	
-0.402588	
-0.402466	
-0.4021	
-0.402588	
-0.402893	
-0.404724	
-0.404846	
-0.404541	
-0.405396	
-0.405334	
-0.405823	
-0.405151	
-0.40802	
-0.40686	
-0.406921	
-0.406677	
-0.407593	
-0.407593	
-0.40802	
-0.408569	
-0.407349	
-0.407532	
-0.407715	
-0.407166	
-0.407654	
-0.407227	
-0.407715	
-0.405212	
-0.407715	
-0.408386	
-0.407654	
-0.408081	
-0.407043	
-0.407349	
-0.407288	
-0.408813	
-0.407288	
-0.406921	
-0.40625	
-0.407349	
-0.407654	
-0.407349	
-0.407288	
-0.406433	
-0.406067	
-0.407166	
-0.406677	
-0.407349	
-0.406555	
-0.406433	
-0.405212	
-0.406555	
-0.406494	
-0.406067	
-0.406128	
-0.404663	
-0.404541	
-0.404968	
-0.405945	
-0.405151	
-0.404663	
-0.40387	
-0.403931	
-0.403809	
-0.404053	
-0.403259	
-0.4021	
-0.401733	
-0.401489	
-0.401001	
-0.402222	
-0.401123	
-0.400818	
-0.400452	
-0.401733	
-0.401611	
-0.401611	
-0.402466	
-0.401245	
-0.400757	
-0.401489	
-0.402771	
-0.401917	
-0.401794	
-0.402161	
-0.40155	
-0.403198	
-0.402466	
-0.402283	
-0.401733	
-0.401978	
-0.401184	
-0.402222	
-0.402954	
-0.402039	
-0.401794	
-0.400757	
-0.401978	
-0.402222	
-0.402527	
-0.402344	
-0.400513	
-0.400635	
-0.400696	
-0.401855	
-0.400757	
-0.400146	
-0.399719	
-0.399414	
-0.400818	
-0.400513	
-0.400452	
-0.400208	
-0.400513	
-0.400146	
-0.400391	
-0.401794	
-0.401611	
-0.401733	
-0.401245	
-0.401794	
-0.402222	
-0.40271	
-0.403015	
-0.40155	
-0.402405	
-0.402466	
-0.403809	
-0.40271	
-0.402649	
-0.402344	
-0.401672	
-0.403381	
-0.402893	
-0.403076	
-0.402344	
-0.401917	
-0.401245	
-0.401611	
-0.403809	
-0.402344	
-0.401917	
-0.40155	
-0.403564	
-0.404297	
-0.404907	
-0.404602	
-0.403442	
-0.404297	
-0.404358	
-0.406372	
-0.406067	
-0.40564	
-0.405762	
-0.406006	
-0.406982	
-0.407043	
-0.408325	
-0.407349	
-0.406982	
-0.407349	
-0.406921	
-0.407898	
-0.40741	
-0.407288	
-0.406372	
-0.407288	
-0.408508	
-0.407715	
-0.407776	
-0.407288	
-0.407104	
-0.406555	
-0.406494	
-0.406982	
-0.40686	
-0.406189	
-0.405457	
-0.407227	
-0.406433	
-0.407288	
-0.406738	
-0.404968	
-0.405823	
-0.405884	
-0.406555	
-0.405884	
-0.405579	
-0.404297	
-0.405518	
-0.406006	
-0.405273	
-0.405823	
-0.404846	
-0.404602	
-0.404358	
-0.403992	
-0.404602	
-0.404358	
-0.404297	
-0.402771	
-0.404297	
-0.404907	
-0.404053	
-0.403687	
-0.402527	
-0.401917	
-0.401794	
-0.402588	
-0.401611	
-0.401306	
-0.401245	
-0.401611	
-0.401306	
-0.401367	
-0.401978	
-0.401611	
-0.400208	
-0.40033	
-0.400757	
-0.400452	
-0.400635	
-0.400574	
-0.398376	
-0.400757	
-0.401611	
-0.401245	
-0.401978	
-0.401123	
-0.401489	
-0.400574	
-0.402222	
-0.401184	
-0.40155	
-0.401306	
-0.400757	
-0.401489	
-0.402039	
-0.40271	
-0.401855	
-0.400879	
-0.401428	
-0.401428	
-0.402893	
-0.401917	
-0.401917	
-0.400635	
-0.401611	
-0.40271	
-0.402527	
-0.40271	
-0.402283	
-0.402527	
-0.4021	
-0.402954	
-0.40332	
-0.403381	
-0.402893	
-0.403381	
-0.404236	
-0.404236	
-0.404724	
-0.404175	
-0.403564	
-0.403992	
-0.40387	
-0.404785	
-0.404419	
-0.404053	
-0.403198	
-0.404114	
-0.40448	
-0.403625	
-0.404663	
-0.402588	
-0.403015	
-0.402161	
-0.403442	
-0.40332	
-0.402832	
-0.402588	
-0.402649	
-0.402893	
-0.404297	
-0.403748	
-0.404419	
-0.403198	
-0.405029	
-0.404236	
-0.406372	
-0.406372	
-0.406494	
-0.405701	
-0.407227	
-0.408508	
-0.407715	
-0.408813	
-0.408264	
-0.408813	
-0.408813	
-0.409973	
-0.410156	
-0.409241	
-0.409119	
-0.408752	
-0.409729	
-0.409546	
-0.409241	
-0.409119	
-0.408997	
-0.408569	
-0.406433	
-0.408752	
-0.408386	
-0.407776	
-0.40741	
-0.406799	
-0.407776	
-0.40741	
-0.407959	
-0.407166	
-0.406189	
-0.406494	
-0.405701	
-0.407349	
-0.406311	
-0.405518	
-0.406128	
-0.405457	
-0.406128	
-0.405701	
-0.406311	
-0.404419	
-0.40448	
-0.404114	
-0.405334	
-0.404419	
-0.403687	
-0.403564	
-0.403015	
-0.402893	
-0.402344	
-0.402405	
-0.401367	
-0.400146	
-0.400818	
-0.400146	
-0.401245	
-0.40033	
-0.399841	
-0.39856	
-0.399902	
-0.400146	
-0.399536	
-0.401062	
-0.399902	
-0.39978	
-0.399353	
-0.399719	
-0.399597	
-0.399597	
-0.398926	
-0.398438	
-0.399841	
-0.39978	
-0.399902	
-0.401062	
-0.398987	
-0.399841	
-0.400085	
-0.400574	
-0.39978	
-0.399719	
-0.399536	
-0.400146	
-0.400635	
-0.399963	
-0.400696	
-0.400146	
-0.400391	
-0.399841	
-0.401245	
-0.401184	
-0.400574	
-0.40033	
-0.400818	
-0.401489	
-0.401489	
-0.401794	
-0.402283	
-0.401123	
-0.402222	
-0.402161	
-0.401428	
-0.402771	
-0.403442	
-0.403259	
-0.404358	
-0.405579	
-0.405396	
-0.405762	
-0.406677	
-0.406433	
-0.406677	
-0.405823	
-0.407104	
-0.406189	
-0.405212	
-0.40564	
-0.405945	
-0.405762	
-0.405762	
-0.406128	
-0.405457	
-0.405701	
-0.405701	
-0.405396	
-0.405518	
-0.405151	
-0.404236	
-0.404114	
-0.405518	
-0.40509	
-0.405334	
-0.405273	
-0.404297	
-0.405457	
-0.40564	
-0.405762	
-0.405334	
-0.405518	
-0.405518	
-0.405945	
-0.406616	
-0.40625	
-0.406799	
-0.406738	
-0.406555	
-0.40686	
-0.406616	
-0.407471	
-0.407104	
-0.40686	
-0.407593	
-0.407471	
-0.407227	
-0.407227	
-0.407227	
-0.405151	
-0.40625	
-0.405945	
-0.405396	
-0.405945	
-0.405823	
-0.405579	
-0.40448	
-0.405945	
-0.405579	
-0.406189	
-0.405212	
-0.405151	
-0.405151	
-0.40564	
-0.405151	
-0.404663	
-0.404785	
-0.405029	
-0.405457	
-0.405884	
-0.405762	
-0.40625	
-0.405701	
-0.405334	
-0.405396	
-0.404846	
-0.406128	
-0.404663	
-0.403381	
-0.403931	
-0.404114	
-0.402954	
-0.402954	
-0.403015	
-0.402466	
-0.4021	
-0.402405	
-0.401917	
-0.401733	
-0.401306	
-0.400452	
-0.399963	
-0.401062	
-0.400208	
-0.400024	
-0.400085	
-0.399902	
-0.399536	
-0.400635	
-0.400574	
-0.400269	
-0.399536	
-0.400391	
-0.40094	
-0.400391	
-0.400513	
-0.400757	
-0.400513	
-0.400879	
-0.400635	
-0.401367	
-0.402405	
-0.401123	
-0.401062	
-0.401306	
-0.402405	
-0.401611	
-0.402161	
-0.401733	
-0.4021	
-0.401611	
-0.402466	
-0.401978	
-0.40271	
-0.402344	
-0.402161	
-0.402527	
-0.40332	
-0.403076	
-0.40332	
-0.40387	
-0.403442	
-0.403015	
-0.403931	
-0.40387	
-0.403625	
-0.403748	
-0.404663	
-0.405823	
-0.405762	
-0.406677	
-0.406189	
-0.406677	
-0.406677	
-0.407837	
-0.406738	
-0.406982	
-0.406311	
-0.406311	
-0.406433	
-0.407471	
-0.407471	
-0.407898	
-0.406616	
-0.407471	
-0.406982	
-0.40802	
-0.406738	
-0.407471	
-0.407166	
-0.407043	
-0.40741	
-0.407166	
-0.407471	
-0.406799	
-0.406128	
-0.406372	
-0.405884	
-0.406799	
-0.406677	
-0.406433	
-0.405212	
-0.406189	
-0.40741	
-0.406738	
-0.407104	
-0.406189	
-0.406433	
-0.406189	
-0.406799	
-0.406311	
-0.406372	
-0.405518	
-0.404968	
-0.405457	
-0.405762	
-0.405396	
-0.405518	
-0.405029	
-0.404907	
-0.404175	
-0.405823	
-0.404175	
-0.404541	
-0.403992	
-0.404053	
-0.405151	
-0.404663	
-0.404968	
-0.404236	
-0.405212	
-0.404114	
-0.404297	
-0.405396	
-0.404663	
-0.404846	
	
