E:\DOCUMENTS AND SETTINGS\JPOTAS\MEUS DOCUMENTOS\UFRJ\RSCI-BM 12 WK SERIES\070730-RSCI-BM-09\RSCI-BM-09-REMG\070730-RSCI-BM-09-REMG-0003.ACQ
0.025000 msec/sample
1 channel
Analog input
Volts
CH1	
2000	
-0.400879	
-0.40094	
-0.400757	
-0.401245	
-0.402405	
-0.401428	
-0.401428	
-0.402222	
-0.400085	
-0.401306	
-0.400818	
-0.400757	
-0.401855	
-0.402283	
-0.402222	
-0.402649	
-0.403076	
-0.402527	
-0.403137	
-0.403015	
-0.402893	
-0.402588	
-0.40094	
-0.402771	
-0.402771	
-0.402954	
-0.40271	
-0.403931	
-0.402893	
-0.403137	
-0.403625	
-0.401917	
-0.402405	
-0.401978	
-0.399902	
-0.402466	
-0.40271	
-0.402283	
-0.403076	
-0.40332	
-0.402954	
-0.403015	
-0.404236	
-0.402405	
-0.402466	
-0.402283	
-0.401672	
-0.402832	
-0.402771	
-0.403076	
-0.403259	
-0.403503	
-0.402893	
-0.40332	
-0.403992	
-0.403687	
-0.403442	
-0.402832	
-0.403931	
-0.403687	
-0.403992	
-0.404358	
-0.404724	
-0.404175	
-0.40387	
-0.404541	
-0.403748	
-0.403015	
-0.403503	
-0.402161	
-0.403503	
-0.403503	
-0.403381	
-0.403748	
-0.40387	
-0.403748	
-0.403198	
-0.403564	
-0.402588	
-0.403015	
-0.402344	
-0.401184	
-0.403076	
-0.402893	
-0.403015	
-0.40332	
-0.404541	
-0.40332	
-0.403992	
-0.405518	
-0.403625	
-0.403442	
-0.403259	
-0.403198	
-0.403259	
-0.403259	
-0.402893	
-0.402954	
-0.404236	
-0.403137	
-0.403687	
-0.405334	
-0.403748	
-0.403809	
-0.403381	
-0.404419	
-0.404297	
-0.403992	
-0.404175	
-0.404419	
-0.404785	
-0.404114	
-0.404602	
-0.403015	
-0.404358	
-0.404236	
-0.401733	
-0.404419	
-0.404724	
-0.404785	
-0.404602	
-0.406189	
-0.40509	
-0.405029	
-0.406372	
-0.403381	
-0.40448	
-0.403809	
-0.402588	
-0.403992	
-0.404053	
-0.404114	
-0.403625	
-0.405212	
-0.404053	
-0.404053	
-0.40564	
-0.40332	
-0.404297	
-0.403564	
-0.403503	
-0.403687	
-0.404175	
-0.403992	
-0.404541	
-0.405579	
-0.404053	
-0.404602	
-0.404419	
-0.404297	
-0.403748	
-0.4021	
-0.403809	
-0.403503	
-0.404053	
-0.40387	
-0.404053	
-0.404541	
-0.403503	
-0.404114	
-0.402832	
-0.403198	
-0.402344	
-0.399902	
-0.402466	
-0.402466	
-0.402466	
-0.402466	
-0.402954	
-0.402954	
-0.402527	
-0.403992	
-0.400635	
-0.403259	
-0.402832	
-0.402893	
-0.403137	
-0.402771	
-0.403015	
-0.402893	
-0.404175	
-0.402832	
-0.403198	
-0.40448	
-0.402039	
-0.402649	
-0.40094	
-0.402649	
-0.402832	
-0.403198	
-0.402832	
-0.40332	
-0.403687	
-0.403076	
-0.403503	
-0.403442	
-0.402649	
-0.402161	
-0.4104	
-0.412109	
-0.412048	
-0.411865	
-0.412048	
-0.411316	
-0.403381	
-0.402283	
-0.403259	
-0.401123	
-0.4021	
-0.401794	
-0.401184	
-0.402527	
-0.402832	
-0.40271	
-0.403076	
-0.403748	
-0.403137	
-0.403381	
-0.404358	
-0.402405	
-0.40332	
-0.401245	
-0.410522	
-0.412842	
-0.412598	
-0.412598	
-0.412903	
-0.412292	
-0.404419	
-0.403809	
-0.403625	
-0.403259	
-0.402893	
-0.40155	
-0.403625	
-0.403259	
-0.403564	
-0.403503	
-0.403809	
-0.40387	
-0.403748	
-0.404785	
-0.403503	
-0.403809	
-0.403442	
-0.4021	
-0.404175	
-0.404236	
-0.404175	
-0.40448	
-0.404968	
-0.405029	
-0.405212	
-0.40564	
-0.404846	
-0.405457	
-0.404846	
-0.404541	
-0.405823	
-0.406311	
-0.406494	
-0.406616	
-0.407471	
-0.407104	
-0.406921	
-0.407837	
-0.406067	
-0.40625	
-0.404663	
-0.406677	
-0.406738	
-0.406921	
-0.406738	
-0.406982	
-0.407593	
-0.407166	
-0.407593	
-0.406006	
-0.40564	
-0.406006	
-0.40448	
-0.405273	
-0.405457	
-0.405457	
-0.405151	
-0.405518	
-0.405762	
-0.404602	
-0.404907	
-0.403503	
-0.404114	
-0.403687	
-0.402405	
-0.403931	
-0.404175	
-0.404541	
-0.405212	
-0.406982	
-0.40741	
-0.407959	
-0.40918	
-0.408142	
-0.409851	
-0.409241	
-0.411926	
-0.412964	
-0.413818	
-0.415222	
-0.417053	
-0.417725	
-0.418762	
-0.421326	
-0.42157	
-0.421692	
-0.423218	
-0.424866	
-0.425964	
-0.426941	
-0.427795	
-0.428467	
-0.429871	
-0.429626	
-0.429932	
-0.429626	
-0.428284	
-0.428711	
-0.428223	
-0.428345	
-0.42865	
-0.428772	
-0.42926	
-0.429138	
-0.429565	
-0.429138	
-0.429504	
-0.427551	
-0.428894	
-0.427979	
-0.429077	
-0.429749	
-0.429993	
-0.430359	
-0.430969	
-0.432007	
-0.431519	
-0.432739	
-0.431213	
-0.431702	
-0.431152	
-0.431274	
-0.432068	
-0.432007	
-0.431885	
-0.431824	
-0.432739	
-0.432495	
-0.432007	
-0.431458	
-0.429993	
-0.42981	
-0.428528	
-0.42804	
-0.428406	
-0.427734	
-0.427185	
-0.42688	
-0.427856	
-0.427063	
-0.427734	
-0.427185	
-0.427124	
-0.427002	
-0.42688	
-0.428223	
-0.428284	
-0.428345	
-0.428406	
-0.428223	
-0.427429	
-0.42688	
-0.427307	
-0.423401	
-0.423584	
-0.420898	
-0.42041	
-0.418701	
-0.416504	
-0.414795	
-0.412292	
-0.410706	
-0.407654	
-0.406311	
-0.402283	
-0.399597	
-0.3974	
-0.394897	
-0.392944	
-0.390625	
-0.387695	
-0.385132	
-0.382507	
-0.380554	
-0.376282	
-0.374756	
-0.368774	
-0.365967	
-0.361816	
-0.35791	
-0.356018	
-0.3526	
-0.349365	
-0.34668	
-0.345215	
-0.341797	
-0.340149	
-0.338318	
-0.336365	
-0.334595	
-0.331421	
-0.332581	
-0.331787	
-0.331543	
-0.330688	
-0.330505	
-0.330566	
-0.330078	
-0.330933	
-0.329102	
-0.329895	
-0.328796	
-0.330627	
-0.330933	
-0.330933	
-0.33136	
-0.332214	
-0.332886	
-0.333496	
-0.333923	
-0.333923	
-0.335022	
-0.3349	
-0.33606	
-0.337708	
-0.338989	
-0.340027	
-0.341614	
-0.34259	
-0.344604	
-0.344788	
-0.346008	
-0.346985	
-0.347839	
-0.349426	
-0.352051	
-0.352722	
-0.354004	
-0.355347	
-0.357544	
-0.358276	
-0.358459	
-0.358337	
-0.359863	
-0.360413	
-0.360657	
-0.362427	
-0.363464	
-0.364746	
-0.365295	
-0.367981	
-0.36731	
-0.368408	
-0.367737	
-0.368713	
-0.369385	
-0.369446	
-0.370789	
-0.37146	
-0.371704	
-0.372986	
-0.37439	
-0.373596	
-0.374207	
-0.373291	
-0.374329	
-0.373596	
-0.375183	
-0.376038	
-0.376343	
-0.377258	
-0.377747	
-0.379639	
-0.378845	
-0.380432	
-0.378784	
-0.379517	
-0.379761	
-0.380798	
-0.381409	
-0.381531	
-0.381653	
-0.381958	
-0.383118	
-0.382629	
-0.383667	
-0.381592	
-0.381653	
-0.382629	
-0.383362	
-0.383728	
-0.384338	
-0.384338	
-0.384766	
-0.385559	
-0.386108	
-0.387268	
-0.385315	
-0.385925	
-0.385925	
-0.385864	
-0.386963	
-0.387695	
-0.387634	
-0.387634	
-0.388428	
-0.389038	
-0.388672	
-0.390198	
-0.388184	
-0.388123	
-0.387756	
-0.388794	
-0.389343	
-0.389038	
-0.389221	
-0.389587	
-0.390686	
-0.389832	
-0.390564	
-0.389404	
-0.388306	
-0.389038	
-0.388062	
-0.389221	
-0.388916	
-0.389221	
-0.389404	
-0.390259	
-0.390503	
-0.390869	
-0.389832	
-0.389709	
-0.389771	
-0.389587	
-0.390808	
-0.391296	
-0.391296	
-0.391418	
-0.393005	
-0.392456	
-0.393188	
-0.391113	
-0.391602	
-0.390625	
-0.391663	
-0.391785	
-0.392334	
-0.392029	
-0.3927	
-0.392212	
-0.392761	
-0.393066	
-0.391174	
-0.391785	
-0.390625	
-0.392212	
-0.39209	
-0.392029	
-0.392273	
-0.392456	
-0.392273	
-0.392883	
-0.3927	
-0.391479	
-0.391357	
-0.390381	
-0.391418	
-0.391052	
-0.39093	
-0.390503	
-0.390564	
-0.389893	
-0.391235	
-0.390564	
-0.388489	
-0.388916	
-0.388123	
-0.389526	
-0.389221	
-0.389465	
-0.389709	
-0.389404	
-0.390381	
-0.390747	
-0.390137	
-0.389832	
-0.389343	
-0.388184	
-0.389832	
-0.389648	
-0.390076	
-0.390503	
-0.391052	
-0.391968	
-0.391968	
-0.394348	
-0.3927	
-0.392822	
-0.392822	
-0.393066	
-0.39386	
-0.394165	
-0.394043	
-0.394714	
-0.394836	
-0.394775	
-0.395752	
-0.395569	
-0.394226	
-0.394653	
-0.394043	
-0.394531	
-0.395508	
-0.395935	
-0.395874	
-0.395996	
-0.395752	
-0.39624	
-0.396851	
-0.395081	
-0.39563	
-0.394104	
-0.395325	
-0.395386	
-0.39624	
-0.395752	
-0.395691	
-0.396484	
-0.395996	
-0.396179	
-0.394958	
-0.394409	
-0.392151	
-0.394043	
-0.39386	
-0.394409	
-0.394592	
-0.394348	
-0.394592	
-0.394531	
-0.395447	
-0.394226	
-0.3927	
-0.392151	
-0.3927	
-0.392334	
-0.392456	
-0.392151	
-0.39209	
-0.392334	
-0.392456	
-0.393433	
-0.39325	
-0.393005	
-0.392212	
-0.390869	
-0.392517	
-0.392639	
-0.392578	
-0.393372	
-0.393799	
-0.394531	
-0.394531	
-0.395081	
-0.39447	
-0.39447	
-0.392517	
-0.394897	
-0.395081	
-0.395081	
-0.394958	
-0.395142	
-0.395203	
-0.396057	
-0.395996	
-0.395203	
-0.395691	
-0.393677	
-0.394592	
-0.394714	
-0.395569	
-0.395935	
-0.396057	
-0.395874	
-0.39624	
-0.396912	
-0.396057	
-0.397034	
-0.394287	
-0.397095	
-0.396484	
-0.397156	
-0.397034	
-0.3974	
-0.397888	
-0.397522	
-0.39856	
-0.397339	
-0.398254	
-0.396729	
-0.3974	
-0.397217	
-0.398682	
-0.398499	
-0.398743	
-0.399536	
-0.399353	
-0.400452	
-0.399353	
-0.399353	
-0.398987	
-0.398071	
-0.398376	
-0.399109	
-0.399536	
-0.399475	
-0.39978	
-0.39978	
-0.39978	
-0.400757	
-0.399231	
-0.399231	
-0.397888	
-0.399048	
-0.398499	
-0.399414	
-0.399292	
-0.399292	
-0.39978	
-0.399475	
-0.401001	
-0.399475	
-0.40033	
-0.399353	
-0.400024	
-0.398926	
-0.399719	
-0.400452	
-0.400452	
-0.401306	
-0.40033	
-0.400879	
-0.399658	
-0.400879	
-0.399109	
-0.39856	
-0.399231	
-0.398682	
-0.400146	
-0.400269	
-0.401245	
-0.401123	
-0.401489	
-0.401306	
-0.401306	
-0.400818	
-0.400513	
-0.400513	
-0.400513	
-0.401611	
-0.401428	
-0.401855	
-0.402222	
-0.401794	
-0.402466	
-0.402527	
-0.402283	
-0.40155	
-0.400635	
-0.401001	
-0.401855	
-0.401611	
-0.401917	
-0.402527	
-0.401978	
-0.40271	
-0.402344	
-0.40271	
-0.401306	
-0.400574	
-0.400574	
-0.401733	
-0.4021	
-0.40155	
-0.402222	
-0.401489	
-0.402405	
-0.402527	
-0.403015	
-0.401855	
-0.402161	
-0.401062	
-0.400696	
-0.402161	
-0.402039	
-0.4021	
-0.401855	
-0.402405	
-0.4021	
-0.402344	
-0.402771	
-0.401917	
-0.401184	
-0.399902	
-0.40155	
-0.401428	
-0.401184	
-0.40155	
-0.401306	
-0.401001	
-0.401001	
-0.401428	
-0.399536	
-0.400085	
-0.398987	
-0.400269	
-0.400452	
-0.400818	
-0.400757	
-0.400574	
-0.401428	
-0.401245	
-0.401855	
-0.400635	
-0.400757	
-0.399902	
-0.399841	
-0.400696	
-0.400452	
-0.400391	
-0.401367	
-0.401123	
-0.401184	
-0.400269	
-0.401245	
-0.400696	
-0.400574	
-0.399048	
-0.40033	
-0.400696	
-0.401428	
-0.401855	
-0.401428	
-0.401245	
-0.401062	
-0.402527	
-0.399841	
-0.401062	
-0.400024	
-0.400696	
-0.400635	
-0.401001	
-0.401367	
-0.401306	
-0.401611	
-0.401611	
-0.4021	
-0.401245	
-0.401794	
-0.401123	
-0.401062	
-0.402283	
-0.402832	
-0.402527	
-0.403381	
-0.403137	
-0.402954	
-0.403198	
-0.403687	
-0.4021	
-0.402771	
-0.401062	
-0.402588	
-0.402893	
-0.40332	
-0.403992	
-0.403809	
-0.40448	
-0.40332	
-0.404541	
-0.403992	
-0.403564	
-0.403442	
-0.402588	
-0.403809	
-0.403442	
-0.403748	
-0.403992	
-0.404236	
-0.403931	
-0.403503	
-0.405212	
-0.404053	
-0.403564	
-0.403381	
-0.403992	
-0.404297	
-0.404114	
-0.40509	
-0.405212	
-0.405884	
-0.405334	
-0.406738	
-0.405945	
-0.405701	
-0.404907	
-0.40564	
-0.406433	
-0.406738	
-0.407166	
-0.407532	
-0.407227	
-0.40686	
-0.407532	
-0.407593	
-0.40564	
-0.406372	
-0.406799	
-0.40686	
-0.406433	
-0.406677	
-0.407959	
-0.406677	
-0.40741	
-0.406921	
-0.407471	
-0.405579	
-0.405518	
-0.40448	
-0.40387	
-0.404785	
-0.404846	
-0.404846	
-0.405457	
-0.404724	
-0.40448	
-0.405701	
-0.40448	
-0.40332	
-0.403992	
-0.403809	
-0.404724	
-0.404541	
-0.404663	
-0.404968	
-0.404419	
-0.405396	
-0.405212	
-0.404602	
-0.404236	
-0.404602	
-0.403503	
-0.40448	
-0.40509	
-0.405212	
-0.405334	
-0.406494	
-0.405579	
-0.405823	
-0.406982	
-0.406372	
-0.404602	
-0.405518	
-0.405762	
-0.406311	
-0.406311	
-0.406616	
-0.406616	
-0.407593	
-0.40863	
-0.408142	
-0.408325	
-0.407227	
-0.407837	
-0.406494	
-0.408264	
-0.408691	
-0.408875	
-0.409546	
-0.40918	
-0.408142	
-0.409668	
-0.410034	
-0.408447	
-0.408203	
-0.407959	
-0.408569	
-0.408752	
-0.408508	
-0.407898	
-0.407837	
-0.408386	
-0.407715	
-0.40918	
-0.407532	
-0.406921	
-0.406372	
-0.405823	
-0.406006	
-0.406372	
-0.406189	
-0.406372	
-0.406372	
-0.406982	
-0.407471	
-0.407715	
-0.406616	
-0.406372	
-0.405945	
-0.406555	
-0.40686	
-0.406738	
-0.406677	
-0.406433	
-0.407654	
-0.40686	
-0.407959	
-0.406555	
-0.406982	
-0.406189	
-0.405396	
-0.406372	
-0.406799	
-0.406494	
-0.40625	
-0.406677	
-0.406555	
-0.407104	
-0.407471	
-0.406555	
-0.406128	
-0.405029	
-0.406006	
-0.406555	
-0.40625	
-0.405823	
-0.405579	
-0.406311	
-0.405579	
-0.40686	
-0.405151	
-0.40509	
-0.404724	
-0.404236	
-0.404114	
-0.405518	
-0.405579	
-0.405701	
-0.405579	
-0.405945	
-0.406128	
-0.407288	
-0.405884	
-0.405701	
-0.404114	
-0.405823	
-0.405945	
-0.406128	
-0.406311	
-0.406799	
-0.407227	
-0.406677	
-0.408264	
-0.406189	
-0.407227	
-0.405151	
-0.405518	
-0.405884	
-0.405945	
-0.406006	
-0.406189	
-0.405884	
-0.405945	
-0.406921	
-0.407349	
-0.404785	
-0.406311	
-0.405884	
-0.406067	
-0.405396	
-0.40625	
-0.405762	
-0.405701	
-0.406311	
-0.405273	
-0.40625	
-0.405029	
-0.405396	
-0.404663	
-0.40332	
-0.404907	
-0.403992	
-0.405029	
-0.404968	
-0.405518	
-0.404846	
-0.40509	
-0.405884	
-0.404053	
-0.404907	
-0.403809	
-0.404297	
-0.404053	
-0.404419	
-0.404846	
-0.404663	
-0.405579	
-0.405457	
-0.405884	
-0.405151	
-0.405396	
-0.404663	
-0.403931	
-0.405396	
-0.404846	
-0.405457	
-0.405457	
-0.405212	
-0.405457	
-0.405762	
-0.406189	
-0.40448	
-0.406067	
-0.404053	
-0.40448	
-0.405151	
-0.404968	
-0.404846	
-0.405273	
-0.406189	
-0.40564	
-0.406311	
-0.406494	
-0.40625	
-0.406555	
-0.405029	
-0.406006	
-0.406128	
-0.406677	
-0.406555	
-0.406433	
-0.407104	
-0.408081	
-0.408508	
-0.406738	
-0.407776	
-0.406982	
-0.406738	
-0.407654	
-0.407593	
-0.407349	
-0.407532	
-0.407166	
-0.407166	
-0.407898	
-0.406982	
-0.405701	
-0.407898	
-0.405823	
-0.40686	
-0.406982	
-0.407166	
-0.407104	
-0.407532	
-0.407898	
-0.407654	
-0.408936	
-0.407715	
-0.407593	
-0.406738	
-0.406921	
-0.407593	
-0.406494	
-0.407104	
-0.407349	
-0.40741	
-0.40741	
-0.408325	
-0.40741	
-0.406311	
-0.407471	
-0.407166	
-0.407043	
-0.407288	
-0.407654	
-0.407654	
-0.408081	
-0.407837	
-0.407837	
-0.408569	
-0.407959	
-0.406738	
-0.406372	
-0.406311	
-0.406372	
-0.406189	
-0.406372	
-0.406616	
-0.406738	
-0.406921	
-0.406738	
-0.406555	
-0.40564	
-0.406494	
-0.40448	
-0.405823	
-0.405884	
-0.405212	
-0.405884	
-0.405823	
-0.406372	
-0.406128	
-0.407043	
-0.406555	
-0.405212	
-0.405762	
-0.405579	
-0.405701	
-0.405701	
-0.405884	
-0.405884	
-0.40564	
-0.406494	
-0.406433	
-0.405701	
-0.406067	
-0.405457	
-0.404297	
-0.404907	
-0.405029	
-0.404785	
-0.404785	
-0.40448	
-0.404602	
-0.404297	
-0.404785	
-0.403931	
-0.40271	
-0.402954	
-0.402588	
-0.402893	
-0.402344	
-0.401672	
-0.402466	
-0.402832	
-0.403503	
-0.403076	
-0.402649	
-0.402771	
-0.402832	
-0.401489	
-0.401978	
-0.403015	
-0.402588	
-0.402283	
-0.402771	
-0.40271	
-0.403198	
-0.403931	
-0.403076	
-0.403198	
-0.403564	
-0.404907	
-0.40332	
-0.404785	
-0.404541	
-0.405029	
-0.405273	
-0.405823	
-0.405334	
-0.406433	
-0.405762	
-0.405212	
-0.404663	
-0.405151	
-0.40564	
-0.405273	
-0.404358	
-0.405396	
-0.405762	
-0.405273	
-0.406555	
-0.405457	
-0.405029	
-0.404114	
-0.40509	
-0.403992	
-0.404541	
-0.404907	
-0.403442	
-0.404114	
-0.405457	
-0.404846	
-0.404663	
-0.404236	
-0.403503	
-0.40271	
-0.404053	
-0.403015	
-0.40332	
-0.403442	
-0.402954	
-0.403137	
-0.40332	
-0.404663	
-0.403137	
-0.40271	
-0.402649	
-0.401367	
-0.4021	
-0.402039	
-0.40155	
-0.402039	
-0.401794	
-0.402527	
-0.401855	
-0.402283	
-0.401672	
-0.401855	
-0.400574	
-0.401917	
-0.401733	
-0.402283	
-0.402222	
-0.401794	
-0.402649	
-0.403137	
-0.404907	
-0.402832	
-0.402954	
-0.402466	
-0.403564	
-0.403931	
-0.40387	
-0.403503	
-0.403442	
-0.403564	
-0.404602	
-0.403687	
-0.404114	
-0.403442	
-0.403503	
-0.402466	
-0.40387	
-0.40332	
-0.403381	
-0.403687	
-0.403564	
-0.403931	
-0.403625	
-0.403931	
-0.402832	
-0.403687	
-0.403259	
-0.403687	
-0.403442	
-0.403809	
-0.403992	
-0.403687	
-0.403259	
-0.404236	
-0.404419	
-0.404114	
-0.403442	
-0.404785	
-0.401855	
-0.404175	
-0.404602	
-0.404175	
-0.404846	
-0.404297	
-0.404785	
-0.40509	
-0.406921	
-0.404907	
-0.404358	
-0.404663	
-0.404846	
-0.40509	
-0.404968	
-0.404724	
-0.40509	
-0.404602	
-0.405151	
-0.404846	
-0.405945	
-0.404358	
-0.405334	
-0.403503	
-0.404541	
-0.404053	
-0.404602	
-0.403992	
-0.403992	
-0.403687	
-0.404114	
-0.40448	
-0.403992	
-0.402832	
-0.404602	
-0.403992	
-0.40448	
-0.404663	
-0.404358	
-0.404663	
-0.404419	
-0.404785	
-0.404602	
-0.405334	
-0.403931	
-0.403198	
-0.40332	
-0.403748	
-0.403931	
-0.404968	
-0.404236	
-0.404907	
-0.404663	
-0.406006	
-0.405518	
-0.406311	
-0.40509	
-0.405273	
-0.403748	
-0.404968	
-0.405212	
-0.405701	
-0.405212	
-0.405518	
-0.405701	
-0.405701	
-0.406738	
-0.40564	
-0.406311	
-0.406067	
-0.405823	
-0.405701	
-0.405273	
-0.406006	
-0.40564	
-0.405273	
-0.406006	
-0.405945	
-0.406128	
-0.404968	
-0.406189	
-0.403992	
-0.405334	
-0.404968	
-0.405457	
-0.404724	
-0.405029	
-0.405212	
-0.405762	
-0.40625	
-0.405884	
-0.404663	
-0.404968	
-0.404541	
-0.405579	
-0.405334	
-0.406067	
-0.405396	
-0.405212	
-0.404663	
-0.405334	
-0.406006	
-0.404785	
-0.405945	
-0.403625	
-0.40509	
-0.404846	
-0.405334	
-0.404785	
-0.404968	
-0.404663	
-0.403259	
-0.40448	
-0.404358	
-0.403503	
-0.40387	
-0.402954	
-0.403625	
-0.403503	
-0.404236	
-0.404053	
-0.403625	
-0.404419	
-0.404297	
-0.404724	
-0.404114	
-0.404358	
-0.403198	
-0.402893	
-0.403564	
-0.403992	
-0.404236	
-0.403931	
-0.403931	
-0.40448	
-0.404358	
-0.404907	
-0.403748	
-0.403687	
-0.40332	
-0.404297	
-0.403076	
-0.404785	
-0.40448	
-0.403992	
-0.404358	
-0.404114	
-0.404236	
-0.404663	
-0.404053	
-0.403198	
-0.403687	
-0.404053	
-0.403992	
-0.404236	
-0.404175	
-0.404053	
-0.404724	
-0.403931	
-0.404541	
-0.404724	
-0.404419	
-0.40387	
-0.404114	
-0.404846	
-0.405212	
-0.405701	
-0.404968	
-0.405457	
-0.405151	
-0.405518	
-0.405701	
-0.404053	
-0.404419	
-0.404541	
-0.404724	
-0.405273	
-0.405518	
-0.406311	
-0.405518	
-0.405945	
-0.405884	
-0.405762	
-0.405396	
-0.405212	
-0.404846	
-0.404358	
-0.404602	
-0.405457	
-0.406433	
-0.405701	
-0.405396	
-0.406921	
-0.406982	
-0.406311	
-0.406799	
-0.406128	
-0.405334	
-0.405701	
-0.406555	
-0.406738	
-0.407288	
-0.407166	
-0.407654	
-0.407654	
-0.408508	
-0.408508	
-0.406799	
-0.407288	
-0.407288	
-0.407837	
-0.408325	
-0.408936	
-0.408569	
-0.408447	
-0.40863	
-0.408264	
-0.409058	
-0.407898	
-0.407837	
-0.408081	
-0.407288	
-0.407043	
-0.408447	
-0.408691	
-0.408325	
-0.407776	
-0.408325	
-0.408203	
-0.407654	
-0.406982	
-0.406067	
-0.405762	
-0.405334	
-0.405945	
-0.405762	
-0.406311	
-0.405945	
-0.406006	
-0.405334	
-0.406738	
-0.405945	
-0.404663	
-0.404236	
-0.405579	
-0.404602	
-0.405762	
-0.405579	
-0.406006	
-0.406128	
-0.406921	
-0.405273	
-0.40686	
-0.406677	
-0.405762	
-0.405701	
-0.406555	
-0.406311	
-0.406311	
-0.407104	
-0.406982	
-0.407471	
-0.407715	
-0.407959	
-0.407288	
-0.406921	
-0.407349	
-0.406555	
-0.406738	
-0.407959	
-0.408508	
-0.408813	
-0.40918	
-0.409241	
-0.409058	
-0.410645	
-0.40979	
-0.408203	
-0.408386	
-0.410034	
-0.410034	
-0.410034	
-0.410278	
-0.410217	
-0.409851	
-0.409668	
-0.409546	
-0.410522	
-0.410645	
-0.40918	
-0.409546	
-0.409607	
-0.409424	
-0.409485	
-0.409851	
-0.408997	
-0.40863	
-0.408691	
-0.409607	
-0.408691	
-0.407959	
-0.40741	
-0.406677	
-0.407898	
-0.407837	
-0.408081	
-0.407898	
-0.407776	
-0.40802	
-0.407471	
-0.409119	
-0.408325	
-0.407593	
-0.40686	
-0.40802	
-0.408081	
-0.408569	
-0.408264	
-0.408569	
-0.408447	
-0.408447	
-0.408813	
-0.40918	
-0.407959	
-0.407166	
-0.406677	
-0.406921	
-0.407898	
-0.408508	
-0.40802	
-0.407654	
-0.407593	
-0.407959	
-0.408936	
-0.408752	
-0.407043	
-0.407043	
-0.406494	
-0.407227	
-0.40686	
-0.407532	
-0.406738	
-0.407043	
-0.406738	
-0.407104	
-0.40802	
-0.407043	
-0.406799	
-0.405884	
-0.406494	
-0.407104	
-0.407349	
-0.408386	
-0.407104	
-0.407349	
-0.407532	
-0.407593	
-0.407898	
-0.407776	
-0.407227	
-0.406189	
-0.406372	
-0.407959	
-0.407715	
-0.408203	
-0.407593	
-0.407349	
-0.40686	
-0.409119	
-0.407959	
-0.406921	
-0.406555	
-0.407043	
-0.406616	
-0.407166	
-0.407288	
-0.407043	
-0.407349	
-0.40741	
-0.406982	
-0.408081	
-0.408081	
-0.407104	
-0.404846	
-0.40686	
-0.406982	
-0.406189	
-0.40686	
-0.406128	
-0.406128	
-0.406128	
-0.406311	
-0.40625	
-0.405823	
-0.405945	
-0.403198	
-0.404907	
-0.405701	
-0.405701	
-0.405701	
-0.405701	
-0.406006	
-0.405273	
-0.407166	
-0.405884	
-0.40564	
-0.405334	
-0.405212	
-0.405762	
-0.405823	
-0.406311	
-0.405701	
-0.406006	
-0.406128	
-0.406189	
-0.406982	
-0.406799	
-0.406189	
-0.40509	
-0.405273	
-0.406433	
-0.406189	
-0.407166	
-0.40625	
-0.406189	
-0.406311	
-0.407532	
-0.406921	
-0.406006	
-0.405518	
-0.404846	
-0.405823	
-0.406372	
-0.406738	
-0.407104	
-0.406738	
-0.406799	
-0.407837	
-0.408813	
-0.408569	
-0.407532	
-0.406128	
-0.407227	
-0.407593	
-0.408569	
-0.408813	
-0.408875	
-0.409302	
-0.408936	
-0.409729	
-0.409363	
-0.408813	
-0.407043	
-0.407593	
-0.407654	
-0.408081	
-0.408203	
-0.408325	
-0.40741	
-0.407776	
-0.407532	
-0.408325	
-0.408447	
-0.40802	
-0.406311	
-0.407349	
-0.407288	
-0.407776	
-0.408386	
-0.40802	
-0.407837	
-0.407898	
-0.407288	
-0.408569	
-0.409058	
-0.407471	
-0.406738	
-0.407104	
-0.407959	
-0.407715	
-0.407959	
-0.407349	
-0.407349	
-0.407776	
-0.409363	
-0.408264	
-0.409119	
-0.406799	
-0.408142	
-0.407471	
-0.407837	
-0.408081	
-0.408386	
-0.407593	
-0.407593	
-0.406921	
-0.407593	
-0.407654	
-0.40686	
-0.405029	
-0.406677	
-0.405823	
-0.406555	
-0.407166	
-0.406677	
-0.407166	
-0.406555	
-0.406494	
-0.407043	
-0.40686	
-0.405884	
-0.405701	
-0.405396	
-0.406006	
-0.406311	
-0.407227	
-0.406616	
-0.406311	
-0.406311	
-0.407532	
-0.407227	
-0.40741	
-0.405029	
-0.406006	
-0.406189	
-0.40625	
-0.406189	
-0.406433	
-0.406067	
-0.40564	
-0.405823	
-0.406311	
-0.405884	
-0.405029	
-0.403503	
-0.404114	
-0.40387	
-0.404175	
-0.40448	
-0.403625	
-0.403809	
-0.403564	
-0.404114	
-0.403687	
-0.403381	
-0.403076	
-0.402954	
-0.402222	
-0.402466	
-0.40332	
-0.403687	
-0.403625	
-0.403503	
-0.403564	
-0.40387	
-0.403992	
-0.404114	
-0.401917	
-0.403198	
-0.403259	
-0.404297	
-0.404297	
-0.405212	
-0.404785	
-0.405212	
-0.405823	
-0.405457	
-0.406067	
-0.405579	
-0.40387	
-0.404785	
-0.40509	
-0.406311	
-0.406494	
-0.406738	
-0.406311	
-0.406311	
-0.407227	
-0.406738	
-0.406311	
-0.405579	
-0.405701	
-0.405701	
-0.404724	
-0.405823	
-0.406372	
-0.405701	
-0.405945	
-0.406128	
-0.40564	
-0.406189	
-0.405945	
-0.403809	
-0.404663	
-0.405273	
-0.404602	
-0.404907	
-0.405884	
-0.404724	
-0.404358	
-0.404602	
-0.403931	
-0.404358	
-0.40387	
-0.401978	
-0.403931	
-0.403076	
-0.403992	
-0.403687	
-0.404419	
-0.403198	
-0.403015	
-0.403748	
-0.403015	
-0.402527	
-0.401611	
	
