E:\DOCUMENTS AND SETTINGS\JPOTAS\MEUS DOCUMENTOS\UFRJ\RSCI-BM 12 WK SERIES\070730-RSCI-BM-09\RSCI-BM-09-REMG\070730-RSCI-BM-09-REMG-0013.ACQ
0.025000 msec/sample
1 channel
Analog input
Volts
CH1	
2000	
-0.399414	
-0.399475	
-0.399536	
-0.401001	
-0.401428	
-0.399963	
-0.400513	
-0.399902	
-0.400146	
-0.400879	
-0.401062	
-0.400635	
-0.400757	
-0.400391	
-0.400818	
-0.401062	
-0.402283	
-0.401489	
-0.402039	
-0.400696	
-0.401733	
-0.402039	
-0.4021	
-0.402039	
-0.402222	
-0.401306	
-0.402771	
-0.403137	
-0.402771	
-0.402893	
-0.403076	
-0.401855	
-0.402771	
-0.403809	
-0.403198	
-0.402771	
-0.403076	
-0.40332	
-0.403564	
-0.40332	
-0.402405	
-0.402466	
-0.402161	
-0.401001	
-0.402161	
-0.401855	
-0.402466	
-0.40271	
-0.403137	
-0.403992	
-0.404541	
-0.404846	
-0.404114	
-0.404724	
-0.403625	
-0.404419	
-0.404724	
-0.404053	
-0.404968	
-0.404968	
-0.40448	
-0.406372	
-0.406311	
-0.406189	
-0.406006	
-0.406311	
-0.405151	
-0.405823	
-0.406555	
-0.405701	
-0.405334	
-0.405212	
-0.405334	
-0.405823	
-0.406006	
-0.405273	
-0.404785	
-0.404419	
-0.403625	
-0.404785	
-0.404663	
-0.404053	
-0.403687	
-0.403137	
-0.40271	
-0.402344	
-0.402832	
-0.401062	
-0.399719	
-0.400024	
-0.400635	
-0.400757	
-0.399658	
-0.40033	
-0.399719	
-0.399231	
-0.400757	
-0.401123	
-0.399902	
-0.399902	
-0.399719	
-0.399597	
-0.400574	
-0.401672	
-0.400696	
-0.401428	
-0.401306	
-0.401489	
-0.402649	
-0.40332	
-0.402161	
-0.401794	
-0.402222	
-0.401306	
-0.402771	
-0.403259	
-0.40332	
-0.403503	
-0.403137	
-0.403809	
-0.404053	
-0.404419	
-0.403076	
-0.402954	
-0.402527	
-0.403381	
-0.403198	
-0.402283	
-0.403076	
-0.402649	
-0.402466	
-0.402954	
-0.404114	
-0.403137	
-0.403381	
-0.403503	
-0.403442	
-0.404297	
-0.404968	
-0.404785	
-0.404968	
-0.404541	
-0.404846	
-0.405701	
-0.406677	
-0.405579	
-0.405334	
-0.405029	
-0.404419	
-0.405579	
-0.40564	
-0.405762	
-0.405029	
-0.404907	
-0.405579	
-0.406555	
-0.40625	
-0.405884	
-0.406738	
-0.405457	
-0.406433	
-0.406799	
-0.405762	
-0.406433	
-0.406616	
-0.407471	
-0.407288	
-0.408081	
-0.407349	
-0.406738	
-0.40686	
-0.404968	
-0.407043	
-0.406982	
-0.406921	
-0.407227	
-0.406982	
-0.407288	
-0.407532	
-0.407593	
-0.407166	
-0.407166	
-0.406372	
-0.405457	
-0.40741	
-0.406616	
-0.406616	
-0.405823	
-0.404785	
-0.405762	
-0.405762	
-0.40686	
-0.405518	
-0.405273	
-0.404236	
-0.404846	
-0.405884	
-0.404175	
-0.412964	
-0.406677	
-0.406311	
-0.406189	
-0.407043	
-0.406372	
-0.406433	
-0.406189	
-0.405273	
-0.406372	
-0.407166	
-0.406799	
-0.407043	
-0.406677	
-0.407471	
-0.40802	
-0.408752	
-0.407471	
-0.407959	
-0.407959	
-0.406616	
-0.408325	
-0.408508	
-0.407959	
-0.408081	
-0.407166	
-0.408142	
-0.408447	
-0.409668	
-0.407898	
-0.407776	
-0.406738	
-0.40802	
-0.40802	
-0.406616	
-0.407532	
-0.407593	
-0.407043	
-0.407776	
-0.408386	
-0.408936	
-0.407715	
-0.408081	
-0.407288	
-0.408325	
-0.408508	
-0.407227	
-0.408691	
-0.408997	
-0.408447	
-0.409424	
-0.410034	
-0.409302	
-0.409119	
-0.409241	
-0.407776	
-0.409058	
-0.408875	
-0.408325	
-0.407837	
-0.407471	
-0.407898	
-0.408691	
-0.40979	
-0.408508	
-0.40863	
-0.408569	
-0.407227	
-0.408997	
-0.407959	
-0.408264	
-0.408142	
-0.407288	
-0.408386	
-0.409058	
-0.409119	
-0.408142	
-0.408142	
-0.407837	
-0.407776	
-0.409058	
-0.407898	
-0.40863	
-0.408203	
-0.408081	
-0.40802	
-0.408142	
-0.407898	
-0.406372	
-0.406128	
-0.404785	
-0.406494	
-0.406799	
-0.406982	
-0.407532	
-0.407288	
-0.409058	
-0.411194	
-0.41217	
-0.413147	
-0.413452	
-0.414673	
-0.415833	
-0.41803	
-0.418152	
-0.421631	
-0.422729	
-0.424988	
-0.427551	
-0.430054	
-0.432983	
-0.435059	
-0.437073	
-0.439575	
-0.443115	
-0.444824	
-0.447205	
-0.449768	
-0.451416	
-0.454224	
-0.456482	
-0.458069	
-0.458923	
-0.460083	
-0.460693	
-0.461304	
-0.46405	
-0.464111	
-0.464905	
-0.465332	
-0.467346	
-0.468262	
-0.469299	
-0.469666	
-0.46991	
-0.469177	
-0.470337	
-0.471497	
-0.47052	
-0.47229	
-0.472534	
-0.473267	
-0.473938	
-0.475525	
-0.474976	
-0.475647	
-0.475342	
-0.474976	
-0.475647	
-0.474854	
-0.474304	
-0.473755	
-0.473755	
-0.473022	
-0.472595	
-0.471863	
-0.470642	
-0.469482	
-0.467346	
-0.466492	
-0.46637	
-0.464722	
-0.464294	
-0.462769	
-0.462402	
-0.461609	
-0.461182	
-0.460022	
-0.459534	
-0.459534	
-0.459167	
-0.458313	
-0.458923	
-0.459351	
-0.459412	
-0.458496	
-0.458191	
-0.459229	
-0.458191	
-0.458069	
-0.456299	
-0.454163	
-0.453369	
-0.451721	
-0.449463	
-0.447144	
-0.444092	
-0.442566	
-0.440247	
-0.438232	
-0.43457	
-0.431763	
-0.427002	
-0.424805	
-0.421692	
-0.417664	
-0.415344	
-0.411865	
-0.408936	
-0.405884	
-0.403259	
-0.399658	
-0.395752	
-0.392151	
-0.387207	
-0.384888	
-0.380859	
-0.37616	
-0.373352	
-0.369629	
-0.365845	
-0.36261	
-0.361023	
-0.356689	
-0.354187	
-0.352112	
-0.349304	
-0.348145	
-0.345642	
-0.345459	
-0.344177	
-0.343689	
-0.343628	
-0.343872	
-0.342346	
-0.34198	
-0.341858	
-0.341187	
-0.341187	
-0.338989	
-0.339783	
-0.3396	
-0.339966	
-0.340027	
-0.340881	
-0.341125	
-0.341187	
-0.341797	
-0.342651	
-0.344055	
-0.34314	
-0.343872	
-0.345947	
-0.346985	
-0.348022	
-0.349182	
-0.351013	
-0.35144	
-0.352234	
-0.353699	
-0.355225	
-0.353577	
-0.354919	
-0.35614	
-0.357727	
-0.358948	
-0.359985	
-0.362732	
-0.362427	
-0.363586	
-0.364014	
-0.364868	
-0.365662	
-0.366577	
-0.367126	
-0.367432	
-0.368958	
-0.370117	
-0.371887	
-0.370605	
-0.371643	
-0.371704	
-0.372253	
-0.372742	
-0.372437	
-0.373474	
-0.373474	
-0.374756	
-0.375427	
-0.37677	
-0.37616	
-0.376953	
-0.375244	
-0.376587	
-0.37738	
-0.37616	
-0.377563	
-0.377136	
-0.378296	
-0.378601	
-0.378418	
-0.378357	
-0.379028	
-0.377136	
-0.378723	
-0.378784	
-0.378113	
-0.378418	
-0.378113	
-0.379089	
-0.3797	
-0.379761	
-0.379761	
-0.380127	
-0.379211	
-0.380371	
-0.380615	
-0.380432	
-0.381042	
-0.380554	
-0.382385	
-0.38324	
-0.382813	
-0.382751	
-0.383057	
-0.38385	
-0.383789	
-0.384277	
-0.382813	
-0.384583	
-0.384705	
-0.385986	
-0.387268	
-0.387329	
-0.387573	
-0.388367	
-0.389282	
-0.387939	
-0.389465	
-0.388977	
-0.388184	
-0.38916	
-0.388367	
-0.389343	
-0.389832	
-0.389832	
-0.38916	
-0.389404	
-0.389343	
-0.389099	
-0.388428	
-0.38623	
-0.387878	
-0.387024	
-0.387634	
-0.387634	
-0.387573	
-0.386902	
-0.387146	
-0.387146	
-0.387146	
-0.387268	
-0.384705	
-0.387085	
-0.385986	
-0.38739	
-0.387512	
-0.387695	
-0.387451	
-0.388184	
-0.387878	
-0.387085	
-0.388062	
-0.387268	
-0.388428	
-0.387695	
-0.388611	
-0.389099	
-0.388855	
-0.389832	
-0.389343	
-0.390381	
-0.389343	
-0.389648	
-0.389038	
-0.390137	
-0.389771	
-0.390076	
-0.390564	
-0.390137	
-0.390381	
-0.389832	
-0.390564	
-0.389709	
-0.389526	
-0.388977	
-0.388855	
-0.388184	
-0.389099	
-0.389587	
-0.389465	
-0.389709	
-0.389526	
-0.389893	
-0.389099	
-0.389587	
-0.388977	
-0.387756	
-0.388489	
-0.388672	
-0.389038	
-0.389343	
-0.389099	
-0.388733	
-0.389282	
-0.388977	
-0.389343	
-0.38916	
-0.388245	
-0.389771	
-0.388733	
-0.390747	
-0.390381	
-0.390747	
-0.391357	
-0.391174	
-0.390442	
-0.390747	
-0.39209	
-0.390076	
-0.392395	
-0.392517	
-0.393677	
-0.394226	
-0.394531	
-0.394958	
-0.39502	
-0.395447	
-0.394775	
-0.395447	
-0.394836	
-0.39563	
-0.395447	
-0.396179	
-0.396545	
-0.396912	
-0.396301	
-0.396118	
-0.396423	
-0.396057	
-0.395325	
-0.395386	
-0.394226	
-0.395264	
-0.393616	
-0.394287	
-0.394226	
-0.394592	
-0.393616	
-0.393066	
-0.393982	
-0.391602	
-0.392822	
-0.391602	
-0.391785	
-0.391418	
-0.392212	
-0.391907	
-0.392334	
-0.391724	
-0.391418	
-0.392212	
-0.391113	
-0.391663	
-0.391479	
-0.391479	
-0.391113	
-0.391357	
-0.391846	
-0.392395	
-0.391907	
-0.392395	
-0.391907	
-0.391968	
-0.392029	
-0.392273	
-0.391663	
-0.392822	
-0.392883	
-0.392944	
-0.392822	
-0.393127	
-0.394165	
-0.393555	
-0.39386	
-0.393555	
-0.394104	
-0.394104	
-0.394531	
-0.39447	
-0.395264	
-0.395813	
-0.396912	
-0.39624	
-0.395325	
-0.396057	
-0.396057	
-0.396362	
-0.395691	
-0.395203	
-0.396301	
-0.396423	
-0.396851	
-0.396973	
-0.397644	
-0.396973	
-0.397095	
-0.396973	
-0.397339	
-0.39679	
-0.394958	
-0.396545	
-0.397034	
-0.396423	
-0.397034	
-0.397766	
-0.397827	
-0.397644	
-0.39856	
-0.397705	
-0.398438	
-0.397278	
-0.398621	
-0.399292	
-0.399292	
-0.399841	
-0.39978	
-0.401062	
-0.400513	
-0.40155	
-0.40094	
-0.401001	
-0.400085	
-0.398865	
-0.40094	
-0.401672	
-0.401306	
-0.401306	
-0.401489	
-0.401001	
-0.399902	
-0.402344	
-0.401062	
-0.401001	
-0.399841	
-0.399902	
-0.400269	
-0.400513	
-0.40094	
-0.400696	
-0.399719	
-0.399597	
-0.400696	
-0.398193	
-0.398193	
-0.397339	
-0.397217	
-0.397095	
-0.397095	
-0.396973	
-0.396973	
-0.397217	
-0.396179	
-0.395691	
-0.396912	
-0.395996	
-0.396423	
-0.395264	
-0.395508	
-0.396667	
-0.397156	
-0.397217	
-0.397339	
-0.398376	
-0.396912	
-0.398804	
-0.398254	
-0.398376	
-0.398438	
-0.396729	
-0.398621	
-0.399048	
-0.399536	
-0.399719	
-0.400452	
-0.399536	
-0.400635	
-0.401794	
-0.400024	
-0.400269	
-0.397827	
-0.400757	
-0.400513	
-0.40155	
-0.400452	
-0.400574	
-0.400146	
-0.400269	
-0.4021	
-0.399719	
-0.400513	
-0.400085	
-0.399597	
-0.401184	
-0.401306	
-0.401978	
-0.401794	
-0.402649	
-0.401794	
-0.403259	
-0.403442	
-0.402344	
-0.40271	
-0.40094	
-0.403015	
-0.403564	
-0.404541	
-0.40332	
-0.404053	
-0.40387	
-0.403809	
-0.40564	
-0.402222	
-0.404053	
-0.403931	
-0.40448	
-0.404663	
-0.405884	
-0.405273	
-0.404785	
-0.405518	
-0.405457	
-0.40741	
-0.404602	
-0.405579	
-0.405334	
-0.405884	
-0.406067	
-0.406067	
-0.407043	
-0.406433	
-0.406921	
-0.406433	
-0.406982	
-0.406555	
-0.406006	
-0.406128	
-0.404053	
-0.405884	
-0.406311	
-0.406433	
-0.406128	
-0.405945	
-0.406677	
-0.405151	
-0.40686	
-0.405273	
-0.405151	
-0.404724	
-0.403259	
-0.404358	
-0.404358	
-0.40509	
-0.40448	
-0.404968	
-0.404297	
-0.405334	
-0.405884	
-0.404907	
-0.404602	
-0.402466	
-0.405457	
-0.405701	
-0.406189	
-0.405884	
-0.406433	
-0.40625	
-0.405212	
-0.408813	
-0.405701	
-0.406921	
-0.406006	
-0.407104	
-0.407227	
-0.407837	
-0.407837	
-0.407715	
-0.407776	
-0.407471	
-0.408691	
-0.408752	
-0.407227	
-0.407593	
-0.407104	
-0.40802	
-0.407471	
-0.407776	
-0.407532	
-0.407776	
-0.407837	
-0.406433	
-0.408752	
-0.407227	
-0.407288	
-0.407166	
-0.406738	
-0.407837	
-0.407593	
-0.408203	
-0.407898	
-0.408936	
-0.407715	
-0.408875	
-0.409241	
-0.409241	
-0.408081	
-0.40741	
-0.409119	
-0.409241	
-0.40918	
-0.409729	
-0.409607	
-0.409058	
-0.408752	
-0.40918	
-0.407532	
-0.408203	
-0.407227	
-0.406555	
-0.408447	
-0.408569	
-0.409363	
-0.408508	
-0.408997	
-0.408508	
-0.409729	
-0.409912	
-0.40863	
-0.40802	
-0.406738	
-0.408081	
-0.408081	
-0.408264	
-0.408203	
-0.408142	
-0.407959	
-0.407166	
-0.409912	
-0.407227	
-0.407837	
-0.407471	
-0.407715	
-0.407104	
-0.40686	
-0.407166	
-0.406311	
-0.406311	
-0.405762	
-0.405884	
-0.40509	
-0.405762	
-0.405457	
-0.403564	
-0.405151	
-0.405457	
-0.405151	
-0.405457	
-0.405151	
-0.404785	
-0.404541	
-0.406433	
-0.403992	
-0.405457	
-0.404968	
-0.404724	
-0.406006	
-0.406494	
-0.407654	
-0.407043	
-0.408569	
-0.408142	
-0.408813	
-0.409607	
-0.40918	
-0.40918	
-0.406982	
-0.409912	
-0.409668	
-0.410034	
-0.4104	
-0.410828	
-0.410522	
-0.410339	
-0.41333	
-0.411072	
-0.411133	
-0.409851	
-0.410645	
-0.411255	
-0.411133	
-0.411072	
-0.410645	
-0.411621	
-0.410828	
-0.411255	
-0.410156	
-0.410156	
-0.410034	
-0.406677	
-0.40979	
-0.409912	
-0.410034	
-0.409851	
-0.410034	
-0.409729	
-0.408875	
-0.411255	
-0.408142	
-0.409668	
-0.408997	
-0.408813	
-0.408325	
-0.408325	
-0.40863	
-0.408081	
-0.408447	
-0.407532	
-0.407959	
-0.407715	
-0.407349	
-0.406982	
-0.404907	
-0.407166	
-0.406921	
-0.406921	
-0.407593	
-0.407593	
-0.407593	
-0.406921	
-0.408203	
-0.406128	
-0.406738	
-0.405396	
-0.406128	
-0.407227	
-0.40741	
-0.408081	
-0.407349	
-0.407593	
-0.406738	
-0.407593	
-0.408142	
-0.405884	
-0.40564	
-0.404968	
-0.405334	
-0.404419	
-0.404541	
-0.404663	
-0.404114	
-0.403625	
-0.402954	
-0.404419	
-0.402344	
-0.402771	
-0.402466	
-0.401611	
-0.40271	
-0.402466	
-0.40271	
-0.40271	
-0.403503	
-0.402649	
-0.402771	
-0.404297	
-0.402649	
-0.402893	
-0.403442	
-0.402527	
-0.40387	
-0.404053	
-0.405212	
-0.404236	
-0.404968	
-0.405212	
-0.405396	
-0.406616	
-0.406067	
-0.406677	
-0.406006	
-0.407593	
-0.407532	
-0.40802	
-0.407776	
-0.408569	
-0.408569	
-0.408203	
-0.408752	
-0.407837	
-0.40802	
-0.408142	
-0.40741	
-0.408508	
-0.408508	
-0.409058	
-0.408081	
-0.408142	
-0.407837	
-0.407471	
-0.408752	
-0.406982	
-0.406128	
-0.406677	
-0.405884	
-0.406982	
-0.406799	
-0.407349	
-0.406372	
-0.405701	
-0.40509	
-0.405457	
-0.405701	
-0.40448	
-0.40509	
-0.403748	
-0.405212	
-0.404968	
-0.405762	
-0.405334	
-0.406006	
-0.40564	
-0.40564	
-0.406677	
-0.405579	
-0.404297	
-0.404846	
-0.404968	
-0.404846	
-0.40509	
-0.405151	
-0.404114	
-0.403442	
-0.404175	
-0.403992	
-0.404846	
-0.403442	
-0.403503	
-0.402954	
-0.403259	
-0.403503	
-0.403748	
-0.403137	
-0.404175	
-0.403381	
-0.403015	
-0.40332	
-0.403564	
-0.401367	
-0.402588	
-0.400818	
-0.402466	
-0.402405	
-0.402527	
-0.401794	
-0.401672	
-0.401794	
-0.401489	
-0.401184	
-0.40094	
-0.400818	
-0.400269	
-0.401245	
-0.400818	
-0.401184	
-0.401001	
-0.401794	
-0.401184	
-0.40033	
-0.401428	
-0.401184	
-0.400146	
-0.400879	
-0.399109	
-0.40094	
-0.401001	
-0.4021	
-0.401428	
-0.401245	
-0.401917	
-0.401794	
-0.402588	
-0.402588	
-0.402649	
-0.402344	
-0.402405	
-0.403198	
-0.40332	
-0.40271	
-0.403259	
-0.402466	
-0.402283	
-0.403015	
-0.402893	
-0.40155	
-0.401367	
-0.401428	
-0.40155	
-0.401428	
-0.401855	
-0.401428	
-0.401184	
-0.401367	
-0.400696	
-0.400513	
-0.400452	
-0.400146	
-0.399109	
-0.399353	
-0.399658	
-0.399719	
-0.399841	
-0.400208	
-0.399719	
-0.398438	
-0.399536	
-0.399658	
-0.39856	
-0.399353	
-0.39856	
-0.399658	
-0.39978	
-0.400574	
-0.39978	
-0.400208	
-0.39978	
-0.399902	
-0.399658	
-0.39917	
-0.399719	
-0.399109	
-0.398926	
-0.399475	
-0.40033	
-0.400024	
-0.40033	
-0.400513	
-0.399353	
-0.400085	
-0.399536	
-0.39917	
-0.39917	
-0.398865	
-0.397949	
-0.398926	
-0.399536	
-0.398987	
-0.399109	
-0.399841	
-0.399597	
-0.399048	
-0.399841	
-0.399109	
-0.398865	
-0.398743	
-0.399048	
-0.398865	
-0.399109	
-0.399414	
-0.398926	
-0.398743	
-0.39917	
-0.398987	
-0.399475	
-0.399292	
-0.399109	
-0.399963	
-0.399963	
-0.399841	
-0.39978	
-0.400452	
-0.400085	
-0.399902	
-0.400146	
-0.400391	
-0.400452	
-0.400696	
-0.401306	
-0.401917	
-0.402771	
-0.402649	
-0.403687	
-0.402832	
-0.401855	
-0.402954	
-0.403259	
-0.402039	
-0.402893	
-0.403076	
-0.402344	
-0.403625	
-0.404907	
-0.404175	
-0.404114	
-0.404114	
-0.403625	
-0.40387	
-0.404053	
-0.40332	
-0.402588	
-0.402771	
-0.402771	
-0.40271	
-0.401611	
-0.401184	
-0.400757	
-0.400757	
-0.39978	
-0.399841	
-0.399475	
-0.399414	
-0.398438	
-0.398071	
-0.399231	
-0.399048	
-0.398132	
-0.398254	
-0.398193	
-0.39801	
-0.3974	
-0.398315	
-0.397217	
-0.397644	
-0.396606	
-0.397949	
-0.398315	
-0.398193	
-0.398621	
-0.397705	
-0.398376	
-0.398376	
-0.398621	
-0.398621	
-0.398804	
-0.398193	
-0.398315	
-0.399536	
-0.400513	
-0.399475	
-0.400269	
-0.399536	
-0.399658	
-0.39917	
-0.400696	
-0.399536	
-0.400085	
-0.39917	
-0.400391	
-0.400574	
-0.400879	
-0.401123	
-0.400818	
-0.400452	
-0.401123	
-0.401489	
-0.402283	
-0.400024	
-0.401489	
-0.401001	
-0.401489	
-0.401794	
-0.401794	
-0.402588	
-0.401917	
-0.402893	
-0.401733	
-0.402771	
-0.401306	
-0.401917	
-0.400635	
-0.401367	
-0.401245	
-0.401672	
-0.401489	
-0.401855	
-0.401855	
-0.402405	
-0.402832	
-0.403748	
-0.402344	
-0.403015	
-0.403381	
-0.403687	
-0.404236	
-0.404419	
-0.404968	
-0.404175	
-0.40332	
-0.404297	
-0.405518	
-0.404846	
-0.404053	
-0.404602	
-0.404602	
-0.405273	
-0.40564	
-0.405212	
-0.404846	
-0.404602	
-0.405029	
-0.403564	
-0.40509	
-0.403931	
-0.404541	
-0.404053	
-0.403809	
-0.40387	
-0.404053	
-0.404053	
-0.402893	
-0.402283	
-0.402344	
-0.401428	
-0.401489	
-0.399963	
-0.399841	
-0.399841	
-0.400635	
-0.40094	
-0.39978	
-0.400452	
-0.399658	
-0.400146	
-0.399963	
-0.40033	
-0.39978	
-0.399475	
-0.399536	
-0.399048	
-0.400574	
-0.40094	
-0.401062	
-0.401123	
-0.400513	
-0.4021	
-0.401184	
-0.40271	
-0.401245	
-0.401672	
-0.401611	
-0.4021	
-0.403442	
-0.403137	
-0.40332	
-0.403015	
-0.40332	
-0.403992	
-0.403625	
-0.403564	
-0.401917	
-0.40332	
-0.402771	
-0.403625	
-0.403259	
-0.403137	
-0.403381	
-0.402222	
-0.403625	
-0.402283	
-0.40332	
-0.403259	
-0.402405	
-0.403809	
-0.403687	
-0.405701	
-0.404907	
-0.404968	
-0.404846	
-0.405579	
-0.406067	
-0.404785	
-0.405701	
-0.40448	
-0.405457	
-0.404297	
-0.405334	
-0.406311	
-0.406006	
-0.406555	
-0.404968	
-0.405945	
-0.406311	
-0.406799	
-0.40625	
-0.40509	
-0.406311	
-0.407104	
-0.407227	
-0.406616	
-0.407349	
-0.40802	
-0.407227	
-0.408875	
-0.406738	
-0.408386	
-0.407532	
-0.407837	
-0.407654	
-0.407532	
-0.408325	
-0.407959	
-0.407959	
-0.407471	
-0.408081	
-0.408569	
-0.407166	
-0.40802	
-0.407043	
-0.40741	
-0.407471	
-0.408142	
-0.407898	
-0.407898	
-0.408508	
-0.405945	
-0.407959	
-0.40686	
-0.407043	
-0.405945	
-0.404419	
-0.405945	
-0.406128	
-0.406738	
-0.40625	
-0.40625	
-0.406555	
-0.406738	
-0.408142	
-0.406067	
-0.407043	
-0.406555	
-0.407349	
-0.406555	
-0.407837	
-0.408752	
-0.407959	
-0.408325	
-0.408142	
-0.409302	
-0.409607	
-0.408386	
-0.408813	
-0.408325	
-0.40863	
-0.408936	
-0.40918	
-0.409424	
-0.409424	
-0.409607	
-0.408081	
-0.409912	
-0.409241	
-0.409119	
-0.408691	
-0.408447	
-0.408142	
-0.40918	
-0.40979	
-0.409241	
-0.409302	
-0.409119	
-0.409119	
-0.4104	
-0.408508	
-0.40863	
-0.407898	
-0.408997	
-0.408142	
-0.409363	
-0.410339	
-0.410034	
-0.410156	
-0.409241	
-0.410583	
-0.410889	
-0.4104	
-0.4104	
-0.409851	
-0.410095	
-0.410706	
-0.410767	
-0.410339	
-0.410339	
-0.410767	
-0.409485	
-0.411072	
-0.409668	
-0.409851	
-0.409363	
-0.409241	
-0.409607	
-0.410156	
-0.411011	
-0.409546	
-0.4104	
-0.409912	
-0.410156	
-0.410217	
-0.409607	
-0.409058	
-0.40802	
-0.409363	
-0.409729	
-0.409546	
-0.410095	
-0.409424	
-0.409546	
-0.408569	
-0.40979	
-0.40863	
-0.408081	
-0.407288	
-0.406799	
-0.406128	
-0.407532	
-0.407104	
-0.406982	
-0.407227	
-0.406616	
-0.406494	
-0.407776	
-0.405762	
-0.405884	
-0.404968	
-0.404968	
-0.405212	
-0.405701	
-0.405884	
-0.405396	
-0.406433	
-0.405518	
-0.406311	
-0.406128	
-0.407104	
-0.406616	
-0.406433	
-0.407715	
-0.408264	
-0.408875	
-0.409424	
-0.409485	
-0.410278	
-0.408752	
-0.41095	
-0.410278	
-0.410645	
-0.410095	
-0.409485	
-0.409973	
-0.411316	
-0.411987	
-0.411133	
-0.41156	
-0.411072	
-0.411682	
-0.412659	
-0.411499	
-0.411438	
-0.410217	
-0.411438	
-0.410461	
-0.411682	
-0.411438	
-0.411377	
-0.411804	
-0.410706	
-0.412231	
-0.410706	
-0.411072	
-0.4104	
-0.410278	
-0.410095	
-0.410828	
-0.411072	
-0.4104	
-0.410767	
-0.410645	
-0.409546	
-0.410645	
-0.409485	
-0.409546	
-0.40802	
-0.408813	
-0.407898	
-0.40863	
-0.409424	
-0.40863	
-0.408875	
-0.407349	
-0.408875	
-0.408264	
-0.408386	
-0.408325	
-0.406799	
-0.407898	
-0.407043	
-0.40863	
-0.407959	
-0.408386	
-0.409058	
-0.407959	
-0.409119	
-0.408447	
-0.409241	
-0.407837	
-0.408813	
-0.408508	
-0.408997	
-0.40918	
-0.407837	
-0.407593	
-0.407593	
-0.407593	
-0.407166	
-0.406128	
-0.406433	
-0.40564	
-0.405884	
-0.405334	
-0.405884	
-0.404785	
-0.405457	
-0.405396	
-0.403625	
-0.405457	
-0.40448	
-0.404419	
-0.404358	
-0.403442	
-0.404724	
-0.403931	
-0.405518	
-0.404724	
-0.405396	
-0.404907	
-0.405212	
-0.405518	
-0.404724	
-0.406433	
-0.405151	
-0.405945	
-0.406494	
-0.406433	
-0.407898	
-0.407654	
-0.408386	
-0.408142	
-0.409607	
-0.409241	
-0.408386	
-0.409119	
-0.408997	
-0.409912	
-0.408936	
-0.409851	
-0.409363	
-0.409546	
-0.410583	
-0.409973	
-0.410217	
-0.409607	
-0.40979	
-0.408203	
-0.409119	
-0.409119	
-0.407959	
-0.409485	
-0.408386	
-0.408813	
-0.408386	
-0.409241	
-0.408325	
-0.40741	
-0.408508	
-0.406677	
-0.407349	
-0.406738	
-0.407043	
-0.406982	
-0.406494	
-0.406616	
-0.406128	
-0.406494	
-0.406677	
-0.406372	
-0.404724	
-0.405396	
-0.406799	
-0.405518	
-0.407349	
-0.40686	
-0.406799	
-0.406799	
-0.407471	
-0.406921	
-0.405029	
-0.405884	
-0.404114	
-0.405151	
-0.404846	
-0.404724	
-0.405457	
-0.404724	
-0.405701	
-0.404785	
-0.405823	
-0.404785	
-0.405029	
-0.405029	
-0.403687	
-0.404114	
-0.403381	
-0.404236	
-0.40387	
-0.404724	
-0.404968	
-0.403748	
-0.404297	
-0.403259	
-0.403381	
-0.401794	
-0.402832	
-0.402893	
-0.401672	
-0.403137	
-0.402405	
-0.402466	
-0.401794	
-0.402832	
-0.401917	
-0.401428	
-0.402527	
-0.400757	
-0.402039	
-0.401794	
-0.402344	
-0.401978	
-0.401978	
-0.402954	
-0.401062	
-0.403015	
-0.401794	
-0.401733	
-0.401245	
-0.401978	
-0.402405	
-0.4021	
-0.403381	
-0.403687	
-0.403564	
-0.403931	
-0.404724	
-0.404114	
-0.402832	
-0.403687	
-0.403259	
-0.403687	
-0.403381	
-0.403259	
-0.403625	
-0.402771	
-0.403198	
-0.4021	
-0.403564	
-0.402344	
-0.402405	
-0.4021	
-0.4021	
-0.402161	
-0.40155	
-0.402039	
-0.401306	
-0.401733	
-0.40155	
-0.401428	
-0.400696	
-0.400696	
-0.400818	
-0.39917	
-0.400513	
-0.400574	
-0.400024	
-0.401428	
-0.400269	
-0.400574	
-0.401001	
-0.401672	
-0.400513	
-0.399536	
-0.400452	
-0.401001	
-0.401001	
-0.400635	
-0.399963	
-0.400696	
-0.400635	
-0.401062	
-0.401489	
-0.40155	
-0.400452	
-0.40033	
-0.400635	
-0.40033	
-0.400391	
-0.400574	
-0.40094	
-0.400024	
-0.399963	
-0.399902	
-0.401123	
-0.399841	
-0.399536	
-0.399475	
-0.399536	
-0.399841	
-0.399902	
-0.399475	
-0.400269	
-0.400513	
-0.400513	
-0.400208	
-0.40094	
-0.400146	
-0.398987	
-0.39978	
-0.39978	
-0.399658	
-0.400146	
-0.400208	
-0.400269	
-0.400208	
-0.40094	
-0.401611	
-0.400879	
-0.400452	
-0.400696	
-0.400085	
-0.40094	
-0.401184	
-0.401062	
-0.401733	
-0.401306	
-0.401855	
-0.4021	
-0.403748	
-0.402588	
-0.402771	
-0.403259	
-0.403259	
-0.403137	
-0.403381	
-0.404358	
-0.403687	
-0.404053	
-0.404236	
-0.405151	
-0.405029	
-0.404663	
-0.403625	
-0.405151	
-0.404968	
-0.404724	
-0.404724	
-0.40509	
-0.404419	
-0.404175	
-0.404175	
-0.404785	
-0.403198	
-0.402588	
-0.402161	
-0.400635	
-0.401306	
-0.400879	
-0.400452	
-0.40094	
-0.400208	
-0.399963	
-0.400879	
-0.401062	
-0.39917	
-0.398987	
-0.398621	
-0.399353	
-0.398865	
-0.398682	
-0.398926	
-0.39856	
-0.398743	
-0.398865	
-0.399536	
-0.39978	
-0.398865	
	
