E:\DOCUMENTS AND SETTINGS\JPOTAS\MEUS DOCUMENTOS\UFRJ\RSCI-BM 12 WK SERIES\070730-RSCI-BM-09\RSCI-BM-09-REMG\070730-RSCI-BM-09-REMG-0012.ACQ
0.025000 msec/sample
1 channel
Analog input
Volts
CH1	
2000	
-0.40387	
-0.404541	
-0.405396	
-0.403992	
-0.404358	
-0.404663	
-0.403809	
-0.404663	
-0.404419	
-0.404053	
-0.404297	
-0.405151	
-0.404968	
-0.405212	
-0.406128	
-0.404968	
-0.405029	
-0.40509	
-0.403992	
-0.404236	
-0.404236	
-0.404175	
-0.403992	
-0.403198	
-0.403625	
-0.403992	
-0.403259	
-0.401917	
-0.401733	
-0.402161	
-0.400818	
-0.40155	
-0.401123	
-0.401123	
-0.402466	
-0.401672	
-0.401855	
-0.401978	
-0.402405	
-0.401428	
-0.401062	
-0.40094	
-0.401917	
-0.401978	
-0.401367	
-0.402466	
-0.402832	
-0.402405	
-0.403381	
-0.403259	
-0.402466	
-0.402039	
-0.403137	
-0.401489	
-0.402771	
-0.401917	
-0.402832	
-0.403198	
-0.402405	
-0.402161	
-0.402588	
-0.402771	
-0.402222	
-0.401489	
-0.402466	
-0.40094	
-0.4021	
-0.401489	
-0.402405	
-0.402649	
-0.401917	
-0.402222	
-0.402161	
-0.403198	
-0.401855	
-0.401367	
-0.401978	
-0.4021	
-0.402161	
-0.402405	
-0.402893	
-0.404175	
-0.40332	
-0.404053	
-0.403625	
-0.403687	
-0.403259	
-0.402954	
-0.402405	
-0.403015	
-0.402405	
-0.403076	
-0.40332	
-0.40332	
-0.403687	
-0.403137	
-0.402893	
-0.403503	
-0.402527	
-0.402832	
-0.401062	
-0.403137	
-0.4021	
-0.403076	
-0.403198	
-0.402344	
-0.402344	
-0.402344	
-0.403015	
-0.40271	
-0.402039	
-0.402649	
-0.40332	
-0.403503	
-0.404114	
-0.404236	
-0.405396	
-0.404602	
-0.405701	
-0.405334	
-0.405884	
-0.405823	
-0.405518	
-0.404907	
-0.406006	
-0.405701	
-0.406128	
-0.406433	
-0.406555	
-0.406372	
-0.405945	
-0.406738	
-0.406006	
-0.405151	
-0.405396	
-0.404053	
-0.404602	
-0.403442	
-0.403381	
-0.403564	
-0.40332	
-0.403015	
-0.403137	
-0.40271	
-0.402527	
-0.401733	
-0.401001	
-0.402161	
-0.401367	
-0.401733	
-0.402039	
-0.402588	
-0.401367	
-0.402222	
-0.4021	
-0.401855	
-0.400818	
-0.40155	
-0.400513	
-0.400513	
-0.400757	
-0.400269	
-0.401001	
-0.401184	
-0.40033	
-0.401733	
-0.401917	
-0.401306	
-0.401489	
-0.401672	
-0.399658	
-0.401489	
-0.401123	
-0.401794	
-0.401855	
-0.40155	
-0.402222	
-0.402893	
-0.403137	
-0.403259	
-0.402832	
-0.402527	
-0.403259	
-0.404419	
-0.403931	
-0.404602	
-0.404785	
-0.40509	
-0.405884	
-0.406372	
-0.406738	
-0.405884	
-0.405762	
-0.405945	
-0.405884	
-0.406067	
-0.404968	
-0.405396	
-0.413879	
-0.414795	
-0.415649	
-0.414856	
-0.41449	
-0.41333	
-0.406128	
-0.403442	
-0.40387	
-0.402954	
-0.403259	
-0.404053	
-0.403564	
-0.403564	
-0.404358	
-0.404663	
-0.403503	
-0.402954	
-0.404602	
-0.404297	
-0.404175	
-0.404602	
-0.404785	
-0.405396	
-0.40509	
-0.406189	
-0.405579	
-0.406799	
-0.40564	
-0.405457	
-0.406006	
-0.405762	
-0.405823	
-0.405701	
-0.406677	
-0.406616	
-0.406128	
-0.407471	
-0.406433	
-0.40686	
-0.406311	
-0.405884	
-0.40564	
-0.406433	
-0.406311	
-0.406128	
-0.40686	
-0.406128	
-0.406189	
-0.406494	
-0.406494	
-0.405884	
-0.404785	
-0.406372	
-0.405457	
-0.405823	
-0.40625	
-0.406006	
-0.407349	
-0.406067	
-0.407349	
-0.406311	
-0.407043	
-0.405457	
-0.405579	
-0.406433	
-0.40564	
-0.405273	
-0.404907	
-0.405579	
-0.405884	
-0.405151	
-0.406128	
-0.405029	
-0.404785	
-0.404785	
-0.404114	
-0.403687	
-0.405151	
-0.405518	
-0.404419	
-0.405823	
-0.406128	
-0.405945	
-0.406372	
-0.405579	
-0.406311	
-0.40509	
-0.405334	
-0.405334	
-0.405457	
-0.405518	
-0.406067	
-0.407837	
-0.408081	
-0.409424	
-0.411011	
-0.410645	
-0.412415	
-0.412964	
-0.4151	
-0.416443	
-0.41803	
-0.418823	
-0.421021	
-0.423767	
-0.424622	
-0.427673	
-0.428467	
-0.429565	
-0.431458	
-0.433411	
-0.434998	
-0.437195	
-0.439026	
-0.441223	
-0.444092	
-0.445435	
-0.44873	
-0.450134	
-0.451477	
-0.452332	
-0.453186	
-0.455139	
-0.456726	
-0.457581	
-0.45752	
-0.459534	
-0.460205	
-0.460571	
-0.461243	
-0.460999	
-0.461914	
-0.462769	
-0.463745	
-0.463745	
-0.463684	
-0.463867	
-0.464661	
-0.466064	
-0.466125	
-0.467712	
-0.46814	
-0.467712	
-0.468018	
-0.467468	
-0.469116	
-0.468933	
-0.46875	
-0.46875	
-0.468384	
-0.468018	
-0.468384	
-0.468567	
-0.467346	
-0.466797	
-0.465637	
-0.465698	
-0.465698	
-0.464905	
-0.463745	
-0.464233	
-0.463623	
-0.463257	
-0.463989	
-0.461914	
-0.461487	
-0.459412	
-0.461182	
-0.460022	
-0.460083	
-0.459839	
-0.4599	
-0.460266	
-0.459656	
-0.460571	
-0.459229	
-0.457947	
-0.456787	
-0.456787	
-0.455627	
-0.455261	
-0.453857	
-0.451538	
-0.451538	
-0.450012	
-0.447632	
-0.446838	
-0.443298	
-0.440491	
-0.438232	
-0.436523	
-0.433228	
-0.43042	
-0.427612	
-0.42511	
-0.422058	
-0.419006	
-0.416443	
-0.413086	
-0.409058	
-0.406067	
-0.401733	
-0.398804	
-0.395081	
-0.391663	
-0.388184	
-0.384094	
-0.380493	
-0.376404	
-0.373718	
-0.368408	
-0.364441	
-0.361145	
-0.358276	
-0.354797	
-0.352722	
-0.349976	
-0.346802	
-0.346252	
-0.34552	
-0.343811	
-0.343384	
-0.340637	
-0.34082	
-0.338684	
-0.338318	
-0.339355	
-0.337891	
-0.336914	
-0.337891	
-0.337646	
-0.336975	
-0.338074	
-0.336731	
-0.337585	
-0.33728	
-0.338562	
-0.340149	
-0.340881	
-0.341736	
-0.342957	
-0.344055	
-0.345215	
-0.346558	
-0.345642	
-0.347473	
-0.347717	
-0.34845	
-0.350098	
-0.351196	
-0.352173	
-0.352478	
-0.353943	
-0.355957	
-0.356934	
-0.356384	
-0.357605	
-0.358032	
-0.359619	
-0.360291	
-0.361206	
-0.361633	
-0.362427	
-0.363281	
-0.365356	
-0.365051	
-0.365601	
-0.367188	
-0.367981	
-0.369446	
-0.370789	
-0.371643	
-0.372375	
-0.373169	
-0.374878	
-0.375977	
-0.37561	
-0.375916	
-0.375977	
-0.377197	
-0.378418	
-0.378357	
-0.378967	
-0.379089	
-0.3797	
-0.380859	
-0.381653	
-0.381042	
-0.381226	
-0.380615	
-0.382446	
-0.383484	
-0.38269	
-0.383118	
-0.383362	
-0.383911	
-0.384949	
-0.385498	
-0.385315	
-0.385864	
-0.384094	
-0.385498	
-0.386414	
-0.386047	
-0.386658	
-0.386719	
-0.387512	
-0.388184	
-0.388916	
-0.38855	
-0.388855	
-0.388123	
-0.387756	
-0.388367	
-0.387634	
-0.387695	
-0.387695	
-0.387817	
-0.388489	
-0.388855	
-0.389038	
-0.388184	
-0.388245	
-0.387329	
-0.389099	
-0.387939	
-0.388794	
-0.389709	
-0.389587	
-0.390686	
-0.39093	
-0.391602	
-0.390625	
-0.390747	
-0.390808	
-0.390625	
-0.392334	
-0.391907	
-0.39209	
-0.391968	
-0.391724	
-0.392395	
-0.39325	
-0.392822	
-0.391907	
-0.391235	
-0.391846	
-0.392334	
-0.391724	
-0.391541	
-0.391602	
-0.391785	
-0.391846	
-0.392456	
-0.392578	
-0.39209	
-0.391235	
-0.391663	
-0.391296	
-0.391602	
-0.391724	
-0.391479	
-0.391785	
-0.391846	
-0.391785	
-0.392273	
-0.392639	
-0.391968	
-0.391968	
-0.391479	
-0.391602	
-0.392029	
-0.391602	
-0.391907	
-0.392761	
-0.392395	
-0.393616	
-0.393555	
-0.393188	
-0.3927	
-0.392517	
-0.393616	
-0.393555	
-0.392883	
-0.39325	
-0.394348	
-0.393555	
-0.394348	
-0.393616	
-0.393005	
-0.392517	
-0.391785	
-0.391724	
-0.392639	
-0.392883	
-0.392761	
-0.394104	
-0.393555	
-0.394104	
-0.393799	
-0.394104	
-0.392456	
-0.392456	
-0.394226	
-0.393188	
-0.393433	
-0.393433	
-0.393921	
-0.393555	
-0.39502	
-0.394897	
-0.394226	
-0.393738	
-0.393982	
-0.395081	
-0.394592	
-0.394836	
-0.39502	
-0.394897	
-0.396179	
-0.396118	
-0.395691	
-0.396118	
-0.395508	
-0.395752	
-0.395264	
-0.394714	
-0.394958	
-0.39447	
-0.393738	
-0.394775	
-0.39447	
-0.394714	
-0.394592	
-0.394409	
-0.393494	
-0.393555	
-0.393982	
-0.393372	
-0.39386	
-0.393494	
-0.393677	
-0.394287	
-0.39502	
-0.394775	
-0.394348	
-0.394348	
-0.394775	
-0.394531	
-0.393799	
-0.395142	
-0.394897	
-0.394043	
-0.395325	
-0.396362	
-0.39563	
-0.395142	
-0.396545	
-0.39563	
-0.395081	
-0.395996	
-0.395996	
-0.395813	
-0.39563	
-0.396484	
-0.396851	
-0.396484	
-0.397217	
-0.397095	
-0.397217	
-0.396667	
-0.397949	
-0.397156	
-0.396973	
-0.396851	
-0.397156	
-0.398254	
-0.397888	
-0.39801	
-0.396912	
-0.398254	
-0.398132	
-0.398743	
-0.398254	
-0.398376	
-0.398499	
-0.397583	
-0.398499	
-0.398743	
-0.398499	
-0.396484	
-0.3974	
-0.397461	
-0.396912	
-0.397583	
-0.396667	
-0.396057	
-0.395813	
-0.396362	
-0.396423	
-0.396729	
-0.39502	
-0.396057	
-0.395813	
-0.394897	
-0.396667	
-0.395996	
-0.396667	
-0.396301	
-0.397827	
-0.398254	
-0.397644	
-0.398071	
-0.397339	
-0.397522	
-0.396973	
-0.398132	
-0.396667	
-0.397766	
-0.397644	
-0.398071	
-0.398621	
-0.3974	
-0.397705	
-0.396545	
-0.398804	
-0.397766	
-0.396606	
-0.397827	
-0.397522	
-0.397583	
-0.39679	
-0.398499	
-0.397522	
-0.397522	
-0.397339	
-0.397217	
-0.398132	
-0.396912	
-0.397827	
-0.397522	
-0.3974	
-0.397583	
-0.398499	
-0.399231	
-0.39801	
-0.398926	
-0.398071	
-0.399414	
-0.398376	
-0.399353	
-0.398743	
-0.398987	
-0.399048	
-0.398499	
-0.399353	
-0.398865	
-0.399414	
-0.398438	
-0.398499	
-0.399231	
-0.39856	
-0.399841	
-0.397949	
-0.399109	
-0.398438	
-0.400024	
-0.399475	
-0.399231	
-0.399719	
-0.398132	
-0.399109	
-0.398682	
-0.399902	
-0.398621	
-0.39856	
-0.398926	
-0.399353	
-0.400391	
-0.399719	
-0.400208	
-0.399414	
-0.401245	
-0.40094	
-0.40155	
-0.401733	
-0.40033	
-0.401428	
-0.401794	
-0.403015	
-0.402771	
-0.402954	
-0.402832	
-0.402893	
-0.403564	
-0.402161	
-0.404114	
-0.402771	
-0.40332	
-0.403137	
-0.402832	
-0.403137	
-0.402161	
-0.402649	
-0.400208	
-0.401855	
-0.401306	
-0.401489	
-0.401001	
-0.400757	
-0.400879	
-0.400452	
-0.401367	
-0.400208	
-0.400208	
-0.399719	
-0.399902	
-0.400452	
-0.398499	
-0.399475	
-0.399109	
-0.39978	
-0.399353	
-0.400085	
-0.399536	
-0.399353	
-0.399353	
-0.398682	
-0.399841	
-0.398254	
-0.399414	
-0.398499	
-0.398315	
-0.398315	
-0.398499	
-0.399414	
-0.399414	
-0.399353	
-0.398438	
-0.398987	
-0.398499	
-0.400024	
-0.399902	
-0.399048	
-0.399902	
-0.399658	
-0.40155	
-0.401306	
-0.402527	
-0.401123	
-0.400574	
-0.402527	
-0.4021	
-0.403198	
-0.402771	
-0.403076	
-0.403625	
-0.403931	
-0.404724	
-0.404175	
-0.403992	
-0.40271	
-0.40387	
-0.403809	
-0.404358	
-0.404968	
-0.402527	
-0.403564	
-0.403442	
-0.404419	
-0.403015	
-0.403381	
-0.401184	
-0.401855	
-0.403259	
-0.402283	
-0.402466	
-0.402161	
-0.402649	
-0.402039	
-0.403259	
-0.403931	
-0.403503	
-0.402588	
-0.403076	
-0.403931	
-0.403564	
-0.403564	
-0.403992	
-0.403381	
-0.404114	
-0.404358	
-0.405518	
-0.404724	
-0.404602	
-0.404541	
-0.405029	
-0.404907	
-0.405396	
-0.40564	
-0.405151	
-0.405701	
-0.405701	
-0.405396	
-0.406006	
-0.405945	
-0.405518	
-0.404785	
-0.405579	
-0.405396	
-0.405823	
-0.406006	
-0.40509	
-0.405518	
-0.405396	
-0.405273	
-0.40509	
-0.405151	
-0.403748	
-0.40448	
-0.404175	
-0.405334	
-0.405701	
-0.403809	
-0.405396	
-0.405396	
-0.405762	
-0.40564	
-0.405579	
-0.404846	
-0.403198	
-0.405029	
-0.404419	
-0.404541	
-0.404785	
-0.403687	
-0.404358	
-0.40448	
-0.405762	
-0.404175	
-0.404053	
-0.403564	
-0.404175	
-0.403259	
-0.404175	
-0.404358	
-0.403748	
-0.404175	
-0.404358	
-0.404358	
-0.404663	
-0.405212	
-0.403809	
-0.40387	
-0.405334	
-0.403931	
-0.404297	
-0.404724	
-0.40509	
-0.405334	
-0.405457	
-0.407104	
-0.406555	
-0.406677	
-0.406311	
-0.407288	
-0.406982	
-0.407166	
-0.40802	
-0.407043	
-0.408264	
-0.407593	
-0.408142	
-0.408447	
-0.408752	
-0.407471	
-0.405396	
-0.407776	
-0.407227	
-0.40741	
-0.407776	
-0.407227	
-0.407349	
-0.406738	
-0.40863	
-0.407227	
-0.40686	
-0.406067	
-0.406616	
-0.405518	
-0.406433	
-0.405762	
-0.405823	
-0.406006	
-0.405701	
-0.405823	
-0.406311	
-0.40625	
-0.405334	
-0.403809	
-0.404419	
-0.404724	
-0.404541	
-0.404419	
-0.404846	
-0.404724	
-0.40387	
-0.404907	
-0.404846	
-0.404175	
-0.403503	
-0.403809	
-0.404358	
-0.404053	
-0.404053	
-0.404175	
-0.404114	
-0.404541	
-0.404297	
-0.405945	
-0.405029	
-0.405334	
-0.404541	
-0.405884	
-0.405945	
-0.406189	
-0.406738	
-0.40686	
-0.407104	
-0.407715	
-0.409058	
-0.409668	
-0.408325	
-0.407898	
-0.408081	
-0.408325	
-0.408386	
-0.40802	
-0.408264	
-0.407898	
-0.407837	
-0.407043	
-0.409485	
-0.407227	
-0.407166	
-0.406433	
-0.406616	
-0.406982	
-0.406555	
-0.406311	
-0.406921	
-0.406799	
-0.406738	
-0.406982	
-0.406738	
-0.406799	
-0.406311	
-0.405273	
-0.406433	
-0.406372	
-0.406555	
-0.407349	
-0.406738	
-0.406677	
-0.406494	
-0.407898	
-0.406982	
-0.406982	
-0.406189	
-0.406311	
-0.407288	
-0.407349	
-0.406677	
-0.406921	
-0.407043	
-0.40686	
-0.406982	
-0.408569	
-0.40686	
-0.406433	
-0.405762	
-0.406616	
-0.405884	
-0.406006	
-0.406494	
-0.405823	
-0.406006	
-0.405762	
-0.40741	
-0.405762	
-0.405579	
-0.404785	
-0.405212	
-0.406006	
-0.405884	
-0.405334	
-0.406433	
-0.406067	
-0.405945	
-0.406128	
-0.407288	
-0.406128	
-0.405884	
-0.406128	
-0.406616	
-0.406555	
-0.406616	
-0.407349	
-0.406921	
-0.406799	
-0.406738	
-0.406799	
-0.406311	
-0.405762	
-0.404785	
-0.403503	
-0.404968	
-0.404907	
-0.403503	
-0.405212	
-0.404175	
-0.403931	
-0.40387	
-0.405579	
-0.403687	
-0.402954	
-0.402649	
-0.402893	
-0.403015	
-0.403137	
-0.402771	
-0.403198	
-0.403442	
-0.404114	
-0.404907	
-0.404785	
-0.404724	
-0.40448	
-0.404663	
-0.405457	
-0.405518	
-0.406006	
-0.405945	
-0.406372	
-0.406433	
-0.406128	
-0.407654	
-0.406738	
-0.406677	
-0.405884	
-0.407227	
-0.407532	
-0.407532	
-0.408691	
-0.408081	
-0.407776	
-0.407776	
-0.408813	
-0.408264	
-0.408081	
-0.407593	
-0.406616	
-0.408508	
-0.408264	
-0.408508	
-0.409241	
-0.408752	
-0.408752	
-0.408264	
-0.40979	
-0.408508	
-0.408508	
-0.407776	
-0.408325	
-0.408142	
-0.407837	
-0.407959	
-0.408203	
-0.407471	
-0.40686	
-0.407043	
-0.407471	
-0.405518	
-0.405273	
-0.405457	
-0.405334	
-0.404541	
-0.404419	
-0.403992	
-0.40387	
-0.403625	
-0.40332	
-0.404663	
-0.403992	
-0.404053	
-0.404114	
-0.403137	
-0.40387	
-0.403809	
-0.403625	
-0.40387	
-0.403748	
-0.404114	
-0.405518	
-0.40686	
-0.404785	
-0.404968	
-0.405273	
-0.405334	
-0.405334	
-0.405334	
-0.405151	
-0.405823	
-0.405212	
-0.40448	
-0.405396	
-0.405823	
-0.404663	
-0.404419	
-0.403564	
-0.404236	
-0.404419	
-0.403809	
-0.403992	
-0.40387	
-0.403137	
-0.403992	
-0.404968	
-0.403442	
-0.402954	
-0.402344	
-0.403137	
-0.403137	
-0.403015	
-0.402466	
-0.402588	
-0.402466	
-0.401917	
-0.403625	
-0.403625	
-0.402649	
-0.402771	
-0.402405	
-0.403015	
-0.403076	
-0.403442	
-0.403259	
-0.403687	
-0.403137	
-0.403931	
-0.403625	
-0.403564	
-0.403381	
-0.403503	
-0.401245	
-0.403381	
-0.403198	
-0.403442	
-0.403198	
-0.403442	
-0.403931	
-0.404602	
-0.40564	
-0.404175	
-0.40387	
-0.403931	
-0.404236	
-0.404419	
-0.403687	
-0.404297	
-0.404114	
-0.403992	
-0.404846	
-0.404846	
-0.406067	
-0.404297	
-0.404968	
-0.403137	
-0.404724	
-0.404907	
-0.403687	
-0.404602	
-0.404358	
-0.403687	
-0.405212	
-0.405334	
-0.404724	
-0.403992	
-0.405396	
-0.403931	
-0.404785	
-0.405273	
-0.404236	
-0.403564	
-0.402649	
-0.403015	
-0.402527	
-0.403503	
-0.402161	
-0.401184	
-0.400513	
-0.401489	
-0.401672	
-0.400452	
-0.401245	
-0.401062	
-0.400879	
-0.402283	
-0.402405	
-0.402344	
-0.401794	
-0.402344	
-0.40155	
-0.402466	
-0.402649	
-0.401489	
-0.402161	
-0.402405	
-0.403076	
-0.402527	
-0.404175	
-0.402832	
-0.402832	
-0.403259	
-0.403137	
-0.40332	
-0.403137	
-0.402954	
-0.403381	
-0.40271	
-0.403809	
-0.403687	
-0.404175	
-0.403625	
-0.404175	
-0.402954	
-0.40387	
-0.404358	
-0.404175	
-0.404114	
-0.404175	
-0.40448	
-0.404541	
-0.405823	
-0.404419	
-0.403442	
-0.404968	
-0.403503	
-0.404907	
-0.404114	
-0.404419	
-0.404602	
-0.403625	
-0.405029	
-0.404602	
-0.405518	
-0.402832	
-0.403198	
-0.402893	
-0.403015	
-0.403137	
-0.400757	
-0.401611	
-0.401489	
-0.401611	
-0.401672	
-0.402588	
-0.401428	
-0.400757	
-0.401917	
-0.401672	
-0.401489	
-0.401123	
-0.401367	
-0.401062	
-0.401978	
-0.40271	
-0.402588	
-0.40332	
-0.402039	
-0.402649	
-0.402405	
-0.402527	
-0.402832	
-0.401672	
-0.402283	
-0.402527	
-0.402344	
-0.402161	
-0.402771	
-0.403015	
-0.401489	
-0.402466	
-0.401733	
-0.402466	
-0.402527	
-0.401123	
-0.401978	
-0.40155	
-0.402954	
-0.402222	
-0.40271	
-0.401917	
-0.402039	
-0.401367	
-0.401917	
-0.402527	
-0.401672	
-0.401855	
-0.401978	
-0.402161	
-0.402893	
-0.403259	
-0.402954	
-0.40271	
-0.403381	
-0.403809	
-0.403687	
-0.403015	
-0.40271	
-0.40271	
-0.403198	
-0.402954	
-0.40332	
-0.403748	
-0.402954	
-0.402466	
-0.403076	
-0.401978	
-0.403503	
-0.402832	
-0.402344	
-0.40271	
-0.40332	
-0.403687	
-0.403198	
-0.40332	
-0.402405	
-0.402344	
-0.402832	
-0.402649	
-0.402222	
-0.402222	
-0.402405	
-0.402649	
-0.403137	
-0.403625	
-0.404175	
-0.403809	
-0.403625	
-0.403748	
-0.404358	
-0.40509	
-0.40509	
-0.404846	
-0.404541	
-0.405762	
-0.406067	
-0.406677	
-0.406921	
-0.406067	
-0.406067	
-0.406067	
-0.40686	
-0.405823	
-0.405579	
-0.405762	
-0.405212	
-0.405579	
-0.404724	
-0.405212	
-0.404053	
-0.403137	
-0.40332	
-0.402649	
-0.403015	
-0.402527	
-0.402222	
-0.4021	
-0.402466	
-0.402954	
-0.402588	
-0.40271	
-0.401306	
-0.40094	
-0.400818	
-0.4021	
-0.401062	
-0.400818	
-0.399719	
-0.401062	
-0.401489	
-0.401672	
-0.401978	
-0.401184	
-0.399597	
-0.400696	
-0.401367	
-0.401001	
-0.400696	
-0.400146	
-0.399536	
-0.40094	
-0.402039	
-0.401794	
-0.402283	
-0.401428	
-0.401733	
-0.400696	
-0.402039	
-0.401917	
-0.402283	
-0.401489	
-0.402039	
-0.403992	
-0.404236	
-0.405334	
-0.403748	
-0.404297	
-0.40448	
-0.404663	
-0.406128	
-0.405945	
-0.405273	
-0.405396	
-0.406006	
-0.406189	
-0.406189	
-0.406921	
-0.405945	
-0.405579	
-0.405701	
-0.406128	
-0.405823	
-0.405884	
-0.404785	
-0.405212	
-0.404724	
-0.404907	
-0.40509	
-0.40509	
-0.40332	
-0.404419	
-0.404541	
-0.404663	
-0.404297	
-0.404236	
-0.403931	
-0.404541	
-0.405212	
-0.405334	
-0.406189	
-0.405151	
-0.404602	
-0.404541	
-0.406799	
-0.405701	
-0.405945	
-0.40564	
-0.404968	
-0.40625	
-0.40741	
-0.407227	
-0.406433	
-0.406555	
-0.406433	
-0.405884	
-0.408142	
-0.407043	
-0.407104	
-0.40564	
-0.407288	
-0.407532	
-0.40741	
-0.408325	
-0.406494	
-0.40625	
-0.406433	
-0.407837	
-0.406433	
-0.406372	
-0.406433	
-0.406128	
-0.406372	
-0.407593	
-0.407349	
-0.406616	
-0.405823	
-0.406311	
-0.405884	
-0.407898	
-0.407043	
-0.40686	
-0.405945	
-0.406372	
-0.406433	
-0.40686	
-0.406433	
-0.405762	
-0.405579	
-0.404846	
-0.405701	
-0.406067	
-0.40564	
-0.404907	
-0.404358	
-0.405457	
-0.405945	
-0.405273	
-0.405762	
-0.404907	
-0.404968	
-0.404053	
-0.406494	
-0.404968	
-0.405518	
-0.404663	
-0.405273	
-0.405334	
-0.406372	
-0.406555	
-0.405151	
-0.404968	
-0.405029	
-0.404724	
-0.407104	
-0.406616	
-0.406616	
-0.40564	
-0.407654	
-0.40802	
-0.408447	
-0.408813	
-0.408203	
-0.407349	
-0.407593	
-0.409973	
-0.408813	
-0.40863	
-0.408386	
-0.409058	
-0.408386	
-0.40863	
-0.408386	
-0.408691	
-0.407898	
-0.407959	
-0.406799	
-0.408447	
-0.407776	
-0.407471	
-0.406738	
-0.407593	
-0.407837	
-0.408447	
-0.409302	
-0.407471	
-0.406494	
-0.406799	
-0.407898	
-0.407227	
-0.406738	
-0.406311	
-0.405518	
-0.406738	
-0.406677	
-0.406555	
-0.407227	
-0.406494	
-0.405273	
-0.40564	
-0.406982	
-0.406067	
-0.40564	
-0.40448	
-0.40564	
-0.405396	
-0.406616	
-0.406067	
-0.405945	
-0.404968	
-0.405151	
-0.405701	
-0.405823	
-0.405273	
-0.405701	
-0.405945	
-0.406799	
-0.406555	
-0.407898	
-0.408752	
-0.406921	
-0.407288	
-0.408142	
-0.409851	
-0.408752	
-0.408936	
-0.408813	
-0.40918	
-0.409729	
-0.409546	
-0.410461	
-0.409729	
-0.408997	
-0.408325	
-0.408142	
-0.409424	
-0.409241	
-0.408813	
-0.407959	
-0.40802	
-0.408142	
-0.40863	
-0.40863	
-0.407349	
-0.407776	
-0.407104	
-0.407959	
-0.40802	
-0.407776	
-0.406067	
-0.408081	
-0.408264	
-0.407776	
-0.408691	
-0.409058	
-0.407654	
-0.407715	
-0.407349	
-0.408081	
-0.407959	
-0.407532	
-0.407166	
-0.408081	
-0.408386	
-0.408508	
-0.409485	
-0.409424	
-0.408508	
-0.407471	
-0.409485	
-0.408691	
-0.408203	
-0.407715	
-0.408386	
-0.40802	
-0.408142	
-0.408447	
-0.408447	
-0.407288	
-0.406555	
-0.407532	
-0.406616	
-0.407227	
-0.406921	
-0.406128	
-0.407471	
-0.407227	
-0.407715	
-0.407959	
-0.408264	
-0.407166	
-0.406372	
-0.408142	
-0.40741	
-0.407349	
-0.406982	
-0.406189	
-0.407471	
-0.407654	
-0.408569	
-0.408813	
-0.40863	
-0.407776	
-0.408386	
-0.409424	
-0.408203	
-0.407776	
-0.406677	
-0.407227	
-0.406799	
-0.407043	
-0.406555	
-0.406982	
-0.405823	
-0.404907	
-0.40625	
-0.405151	
-0.404724	
-0.404602	
-0.404602	
-0.404236	
-0.404236	
-0.404663	
-0.404785	
-0.404846	
-0.403687	
-0.404541	
-0.405029	
-0.404541	
-0.404907	
-0.404602	
-0.40564	
-0.40625	
-0.406677	
-0.407166	
-0.407959	
-0.407593	
-0.406616	
-0.407593	
-0.406555	
-0.407227	
-0.407532	
-0.406189	
-0.407898	
-0.408203	
-0.409302	
-0.408813	
-0.410156	
-0.408752	
-0.409241	
-0.409973	
-0.408997	
-0.40918	
-0.408508	
-0.409668	
-0.409546	
-0.409668	
-0.410706	
-0.410156	
-0.410034	
-0.409485	
-0.4104	
-0.409546	
-0.409851	
-0.409607	
-0.409241	
-0.409729	
-0.409912	
-0.409851	
-0.409546	
-0.40918	
-0.409424	
-0.408081	
-0.407959	
-0.406921	
-0.407471	
-0.40686	
-0.406311	
-0.406677	
-0.406311	
-0.406982	
-0.406372	
-0.406128	
-0.405029	
-0.405273	
-0.404175	
-0.405212	
-0.40448	
-0.404724	
-0.404785	
-0.404968	
-0.404907	
-0.405945	
-0.40625	
-0.405396	
-0.404907	
-0.404724	
-0.404907	
-0.405701	
-0.40448	
-0.405151	
-0.406677	
-0.406677	
-0.406555	
-0.40625	
-0.406677	
-0.406433	
-0.406738	
-0.405518	
-0.405945	
-0.406189	
-0.405945	
-0.406128	
-0.406128	
-0.405762	
-0.406311	
-0.405212	
-0.405701	
-0.405029	
-0.405212	
-0.403687	
-0.404419	
-0.403625	
-0.403992	
-0.404419	
-0.404297	
-0.404419	
-0.405151	
-0.404724	
-0.403809	
-0.40448	
-0.403809	
-0.403076	
-0.403198	
-0.403259	
-0.403381	
-0.403748	
-0.403992	
-0.404663	
-0.404175	
-0.404602	
-0.404419	
-0.404663	
-0.403137	
-0.403809	
-0.403381	
-0.403748	
-0.404236	
-0.40448	
-0.404663	
-0.404907	
-0.404724	
-0.405151	
-0.404602	
-0.404968	
-0.404236	
-0.404907	
-0.404663	
-0.40509	
-0.405273	
-0.405334	
-0.405212	
-0.40564	
-0.405457	
-0.405823	
-0.405273	
-0.404541	
-0.404968	
-0.404907	
-0.405396	
-0.405701	
-0.405273	
-0.405457	
-0.406616	
-0.406067	
-0.40625	
-0.406006	
-0.40564	
-0.405396	
-0.405579	
-0.405457	
-0.404602	
-0.405518	
-0.406189	
-0.406189	
-0.405701	
-0.406616	
-0.405518	
-0.404358	
-0.40509	
-0.403259	
-0.403381	
-0.402893	
-0.403198	
-0.403137	
-0.402344	
-0.40271	
-0.402405	
-0.402405	
-0.401855	
-0.401672	
-0.402222	
-0.401001	
-0.401184	
-0.402527	
-0.40271	
-0.403076	
-0.402954	
-0.403381	
-0.40387	
-0.403992	
-0.40271	
-0.402893	
-0.403687	
-0.403137	
-0.40332	
-0.403259	
-0.404114	
-0.404175	
-0.404846	
-0.404114	
-0.40448	
-0.403503	
-0.405151	
-0.404297	
-0.403687	
-0.404419	
-0.40448	
-0.403564	
-0.404724	
	
