E:\DOCUMENTS AND SETTINGS\JPOTAS\MEUS DOCUMENTOS\UFRJ\RSCI-BM 12 WK SERIES\070731-RSCI-BM-12\RSCI-BM-12-LEMG\070731-RSCI-BM-12-LEMG-0007.ACQ
0.025000 msec/sample
1 channel
Analog input
Volts
CH1	
2000	
-0.397644	
-0.398132	
-0.399353	
-0.398804	
-0.399719	
-0.39917	
-0.398376	
-0.400024	
-0.400269	
-0.40033	
-0.400391	
-0.399658	
-0.400696	
-0.401978	
-0.401123	
-0.401367	
-0.400757	
-0.398743	
-0.400391	
-0.400146	
-0.401062	
-0.40094	
-0.401428	
-0.400879	
-0.400879	
-0.399963	
-0.399719	
-0.399475	
-0.399353	
-0.400024	
-0.397888	
-0.398132	
-0.39801	
-0.396179	
-0.398193	
-0.397583	
-0.397827	
-0.397705	
-0.3974	
-0.397034	
-0.397705	
-0.397217	
-0.397522	
-0.397461	
-0.394714	
-0.396057	
-0.395569	
-0.395569	
-0.395935	
-0.396057	
-0.395996	
-0.395508	
-0.39563	
-0.395752	
-0.396667	
-0.395935	
-0.397522	
-0.395752	
-0.394714	
-0.395935	
-0.395203	
-0.396545	
-0.3974	
-0.396423	
-0.396851	
-0.396912	
-0.396973	
-0.398071	
-0.397583	
-0.397827	
-0.398376	
-0.397156	
-0.397949	
-0.397827	
-0.397583	
-0.399048	
-0.399597	
-0.398743	
-0.398743	
-0.398865	
-0.398621	
-0.40033	
-0.39917	
-0.400146	
-0.398315	
-0.39679	
-0.398987	
-0.397461	
-0.397583	
-0.398193	
-0.398438	
-0.397827	
-0.397339	
-0.398132	
-0.397339	
-0.398254	
-0.397888	
-0.397461	
-0.396423	
-0.39624	
-0.396606	
-0.396057	
-0.396851	
-0.397522	
-0.397217	
-0.396606	
-0.396179	
-0.396545	
-0.397766	
-0.396545	
-0.398682	
-0.397278	
-0.395874	
-0.396667	
-0.396057	
-0.39624	
-0.397156	
-0.396606	
-0.396484	
-0.39624	
-0.395447	
-0.394958	
-0.397034	
-0.395447	
-0.395264	
-0.394714	
-0.392761	
-0.394043	
-0.394043	
-0.394531	
-0.394287	
-0.39386	
-0.394348	
-0.39447	
-0.393555	
-0.394958	
-0.394226	
-0.394409	
-0.394592	
-0.393372	
-0.393127	
-0.393494	
-0.394043	
-0.39447	
-0.395813	
-0.395508	
-0.395203	
-0.395691	
-0.395325	
-0.39801	
-0.396667	
-0.397705	
-0.397949	
-0.395935	
-0.398254	
-0.398132	
-0.399109	
-0.399963	
-0.400696	
-0.400146	
-0.40033	
-0.40033	
-0.401062	
-0.400452	
-0.40033	
-0.399963	
-0.399963	
-0.399597	
-0.399902	
-0.399414	
-0.399902	
-0.40033	
-0.399536	
-0.399109	
-0.39856	
-0.397461	
-0.399414	
-0.398071	
-0.397949	
-0.397034	
-0.394531	
-0.395264	
-0.394165	
-0.39386	
-0.394897	
-0.39563	
-0.393738	
-0.394653	
-0.393982	
-0.394348	
-0.394592	
-0.39447	
-0.394165	
-0.393188	
-0.392029	
-0.393127	
-0.392517	
-0.387695	
-0.382324	
-0.380981	
-0.381287	
-0.381287	
-0.381592	
-0.389282	
-0.394287	
-0.394958	
-0.395569	
-0.393677	
-0.394653	
-0.394287	
-0.393738	
-0.394531	
-0.395447	
-0.394775	
-0.395203	
-0.395508	
-0.39502	
-0.396484	
-0.395935	
-0.396362	
-0.395935	
-0.393738	
-0.395447	
-0.395142	
-0.394836	
-0.396667	
-0.395996	
-0.397095	
-0.396912	
-0.3974	
-0.398193	
-0.397827	
-0.397461	
-0.398438	
-0.397217	
-0.3974	
-0.397156	
-0.390564	
-0.385925	
-0.386169	
-0.385315	
-0.385498	
-0.385437	
-0.392151	
-0.398926	
-0.398621	
-0.39978	
-0.399414	
-0.398315	
-0.399109	
-0.398804	
-0.399414	
-0.401001	
-0.402161	
-0.403259	
-0.404846	
-0.40741	
-0.408936	
-0.413574	
-0.415344	
-0.418274	
-0.420837	
-0.425354	
-0.430298	
-0.436401	
-0.443542	
-0.450256	
-0.45752	
-0.465332	
-0.471985	
-0.478943	
-0.486084	
-0.492859	
-0.498169	
-0.502319	
-0.506531	
-0.509949	
-0.514648	
-0.518127	
-0.521484	
-0.523132	
-0.525208	
-0.526245	
-0.527222	
-0.528137	
-0.528015	
-0.52655	
-0.524475	
-0.520691	
-0.520386	
-0.518372	
-0.517517	
-0.517883	
-0.51709	
-0.517944	
-0.520142	
-0.522278	
-0.527405	
-0.530212	
-0.534119	
-0.538513	
-0.539917	
-0.544434	
-0.547607	
-0.549988	
-0.552063	
-0.552917	
-0.553772	
-0.553833	
-0.552246	
-0.552124	
-0.549866	
-0.546326	
-0.54248	
-0.536865	
-0.531494	
-0.526184	
-0.518677	
-0.512756	
-0.505798	
-0.497864	
-0.490723	
-0.4823	
-0.474548	
-0.469299	
-0.462158	
-0.454407	
-0.447571	
-0.439209	
-0.433716	
-0.427979	
-0.421509	
-0.414612	
-0.407593	
-0.399719	
-0.392517	
-0.38446	
-0.376953	
-0.370483	
-0.362183	
-0.35498	
-0.346863	
-0.338257	
-0.332031	
-0.326904	
-0.321167	
-0.315613	
-0.309082	
-0.304382	
-0.299255	
-0.294617	
-0.292114	
-0.289185	
-0.286194	
-0.28418	
-0.281738	
-0.281921	
-0.282288	
-0.282104	
-0.283997	
-0.284363	
-0.28656	
-0.288574	
-0.290405	
-0.295288	
-0.299194	
-0.302856	
-0.307739	
-0.312439	
-0.3172	
-0.323364	
-0.32843	
-0.333984	
-0.33783	
-0.341858	
-0.345764	
-0.348877	
-0.353882	
-0.355164	
-0.356812	
-0.35791	
-0.357605	
-0.360657	
-0.362183	
-0.36377	
-0.36554	
-0.366455	
-0.368713	
-0.369873	
-0.372498	
-0.376343	
-0.379089	
-0.381348	
-0.384094	
-0.385681	
-0.390137	
-0.393555	
-0.398438	
-0.401001	
-0.40332	
-0.406982	
-0.409546	
-0.412964	
-0.416504	
-0.416687	
-0.419373	
-0.419922	
-0.419556	
-0.421875	
-0.421326	
-0.422119	
-0.420837	
-0.420471	
-0.418823	
-0.417847	
-0.417297	
-0.417664	
-0.416992	
-0.415405	
-0.414673	
-0.413513	
-0.412476	
-0.412598	
-0.411804	
-0.412598	
-0.411621	
-0.410828	
-0.410217	
-0.408508	
-0.409119	
-0.409485	
-0.407166	
-0.40564	
-0.403503	
-0.40033	
-0.399597	
-0.396362	
-0.394897	
-0.391357	
-0.388367	
-0.385498	
-0.382019	
-0.379028	
-0.377136	
-0.374207	
-0.371399	
-0.368469	
-0.364258	
-0.362183	
-0.361206	
-0.359009	
-0.35791	
-0.356323	
-0.355408	
-0.354858	
-0.354004	
-0.356079	
-0.357361	
-0.356445	
-0.357971	
-0.357422	
-0.358765	
-0.361145	
-0.361694	
-0.36499	
-0.364441	
-0.365906	
-0.36676	
-0.366516	
-0.36969	
-0.371582	
-0.371033	
-0.372803	
-0.372314	
-0.372803	
-0.374207	
-0.37561	
-0.37738	
-0.377014	
-0.377991	
-0.378662	
-0.378296	
-0.380493	
-0.382202	
-0.381958	
-0.382813	
-0.382751	
-0.382385	
-0.383911	
-0.384399	
-0.385254	
-0.384766	
-0.385193	
-0.385925	
-0.386292	
-0.386475	
-0.387817	
-0.386902	
-0.386841	
-0.385986	
-0.38501	
-0.386292	
-0.385986	
-0.386902	
-0.38623	
-0.385864	
-0.386292	
-0.386108	
-0.386902	
-0.388306	
-0.387756	
-0.388489	
-0.389526	
-0.388916	
-0.390503	
-0.390564	
-0.392395	
-0.391846	
-0.391724	
-0.391602	
-0.391235	
-0.392151	
-0.393372	
-0.392822	
-0.392639	
-0.393555	
-0.391785	
-0.391479	
-0.392273	
-0.392151	
-0.391846	
-0.392273	
-0.391968	
-0.391602	
-0.391907	
-0.39209	
-0.393433	
-0.390747	
-0.390442	
-0.389465	
-0.387512	
-0.390076	
-0.389832	
-0.390137	
-0.389526	
-0.389465	
-0.390015	
-0.389038	
-0.389587	
-0.390503	
-0.390442	
-0.389954	
-0.389954	
-0.388184	
-0.388611	
-0.388855	
-0.388428	
-0.389526	
-0.389526	
-0.389221	
-0.388733	
-0.387451	
-0.388062	
-0.390198	
-0.388611	
-0.388611	
-0.387756	
-0.385437	
-0.388184	
-0.388123	
-0.387939	
-0.387512	
-0.387329	
-0.387878	
-0.387695	
-0.38855	
-0.388672	
-0.388489	
-0.388062	
-0.388977	
-0.387451	
-0.388123	
-0.388428	
-0.388062	
-0.390015	
-0.389587	
-0.389771	
-0.389832	
-0.39032	
-0.391541	
-0.393005	
-0.391296	
-0.39209	
-0.391174	
-0.39093	
-0.391602	
-0.391724	
-0.393311	
-0.3927	
-0.392517	
-0.392273	
-0.391602	
-0.393005	
-0.395325	
-0.393066	
-0.393433	
-0.392334	
-0.391174	
-0.393555	
-0.391907	
-0.394165	
-0.393372	
-0.393372	
-0.393494	
-0.393799	
-0.39447	
-0.395813	
-0.394165	
-0.394714	
-0.393005	
-0.391357	
-0.39386	
-0.393372	
-0.395203	
-0.393616	
-0.393738	
-0.394165	
-0.392822	
-0.39325	
-0.394653	
-0.39325	
-0.393066	
-0.391846	
-0.389404	
-0.391113	
-0.389893	
-0.391418	
-0.390869	
-0.390076	
-0.389954	
-0.38916	
-0.389221	
-0.389221	
-0.388733	
-0.388428	
-0.387207	
-0.386169	
-0.387329	
-0.387634	
-0.388	
-0.388245	
-0.388611	
-0.388306	
-0.388306	
-0.388916	
-0.39032	
-0.39093	
-0.389648	
-0.390381	
-0.389832	
-0.389038	
-0.390747	
-0.391113	
-0.392395	
-0.392029	
-0.392944	
-0.393921	
-0.393127	
-0.394531	
-0.396179	
-0.396729	
-0.396484	
-0.395874	
-0.396362	
-0.396484	
-0.396851	
-0.397278	
-0.396973	
-0.397095	
-0.397827	
-0.397339	
-0.398193	
-0.398499	
-0.398865	
-0.397827	
-0.398926	
-0.396912	
-0.395874	
-0.397522	
-0.396606	
-0.39801	
-0.397034	
-0.397278	
-0.39679	
-0.395447	
-0.39679	
-0.396729	
-0.396851	
-0.396484	
-0.396057	
-0.394958	
-0.39447	
-0.395813	
-0.396118	
-0.395935	
-0.395447	
-0.39502	
-0.394592	
-0.394897	
-0.395874	
-0.396362	
-0.394836	
-0.395508	
-0.393188	
-0.392578	
-0.39386	
-0.393433	
-0.394836	
-0.394287	
-0.39447	
-0.393494	
-0.394043	
-0.394348	
-0.393738	
-0.394348	
-0.394287	
-0.393433	
-0.394714	
-0.394287	
-0.394897	
-0.395508	
-0.394836	
-0.395142	
-0.395264	
-0.39386	
-0.39563	
-0.394958	
-0.397095	
-0.396118	
-0.396851	
-0.396484	
-0.395752	
-0.396912	
-0.396057	
-0.39679	
-0.396973	
-0.39679	
-0.396912	
-0.397095	
-0.396912	
-0.39801	
-0.396973	
-0.396667	
-0.395996	
-0.39502	
-0.396057	
-0.396423	
-0.396118	
-0.395935	
-0.395874	
-0.395447	
-0.396118	
-0.395935	
-0.395569	
-0.39624	
-0.395142	
-0.395996	
-0.39502	
-0.393555	
-0.394714	
-0.394409	
-0.39447	
-0.394531	
-0.394287	
-0.394165	
-0.395691	
-0.395264	
-0.396179	
-0.394775	
-0.394165	
-0.39502	
-0.393921	
-0.394653	
-0.395142	
-0.394348	
-0.394958	
-0.393921	
-0.393188	
-0.393982	
-0.394104	
-0.393555	
-0.39386	
-0.392517	
-0.393494	
-0.392029	
-0.391724	
-0.392273	
-0.39209	
-0.392395	
-0.3927	
-0.392151	
-0.391968	
-0.39325	
-0.392456	
-0.39325	
-0.392395	
-0.392029	
-0.39325	
-0.391968	
-0.393127	
-0.393799	
-0.392151	
-0.393616	
-0.393616	
-0.393921	
-0.39447	
-0.394348	
-0.395081	
-0.396423	
-0.395569	
-0.396362	
-0.396545	
-0.395996	
-0.398254	
-0.399048	
-0.398804	
-0.398682	
-0.398438	
-0.39856	
-0.399597	
-0.398499	
-0.399109	
-0.398438	
-0.397949	
-0.39801	
-0.3974	
-0.398315	
-0.397766	
-0.396606	
-0.397095	
-0.397034	
-0.396057	
-0.396484	
-0.39679	
-0.395935	
-0.396118	
-0.394409	
-0.394653	
-0.393372	
-0.391296	
-0.392761	
-0.393005	
-0.392883	
-0.3927	
-0.392334	
-0.391785	
-0.392822	
-0.392822	
-0.393372	
-0.390869	
-0.390625	
-0.392151	
-0.390137	
-0.391357	
-0.392212	
-0.39093	
-0.391418	
-0.391113	
-0.39093	
-0.392395	
-0.391907	
-0.392334	
-0.392578	
-0.391907	
-0.392578	
-0.391846	
-0.391846	
-0.392395	
-0.392334	
-0.393005	
-0.393005	
-0.393188	
-0.393066	
-0.39386	
-0.393494	
-0.39447	
-0.393372	
-0.392334	
-0.393799	
-0.391907	
-0.393982	
-0.39502	
-0.394348	
-0.394592	
-0.394958	
-0.394165	
-0.39502	
-0.39502	
-0.39563	
-0.395569	
-0.394775	
-0.395935	
-0.394775	
-0.394104	
-0.395691	
-0.394958	
-0.395386	
-0.394775	
-0.394958	
-0.394958	
-0.39563	
-0.394653	
-0.395142	
-0.394226	
-0.393982	
-0.394226	
-0.392944	
-0.394104	
-0.394104	
-0.393738	
-0.393982	
-0.393494	
-0.392944	
-0.393311	
-0.393616	
-0.394287	
-0.393982	
-0.393127	
-0.394531	
-0.3927	
-0.393188	
-0.39386	
-0.393005	
-0.393921	
-0.394287	
-0.393372	
-0.392822	
-0.394592	
-0.393982	
-0.394104	
-0.392761	
-0.392273	
-0.393005	
-0.392761	
-0.392944	
-0.392761	
-0.392761	
-0.392639	
-0.393005	
-0.392334	
-0.392639	
-0.3927	
-0.393066	
-0.392761	
-0.391968	
-0.392456	
-0.391113	
-0.391052	
-0.391907	
-0.391235	
-0.391907	
-0.391724	
-0.391663	
-0.391174	
-0.392578	
-0.392395	
-0.393616	
-0.393066	
-0.392883	
-0.392883	
-0.39209	
-0.393982	
-0.394348	
-0.394531	
-0.394714	
-0.395142	
-0.396423	
-0.396301	
-0.396301	
-0.396851	
-0.397522	
-0.39624	
-0.396729	
-0.395508	
-0.395142	
-0.395691	
-0.395325	
-0.395386	
-0.395508	
-0.394836	
-0.394165	
-0.395264	
-0.394043	
-0.394653	
-0.393982	
-0.391907	
-0.392578	
-0.391418	
-0.391418	
-0.390869	
-0.391296	
-0.389954	
-0.388855	
-0.388428	
-0.387329	
-0.388672	
-0.388367	
-0.388489	
-0.387268	
-0.388123	
-0.387024	
-0.386597	
-0.386597	
-0.386719	
-0.387085	
-0.387024	
-0.386719	
-0.386353	
-0.38678	
-0.386414	
-0.387207	
-0.386963	
-0.385986	
-0.386719	
-0.38678	
-0.387817	
-0.387451	
-0.388855	
-0.389221	
-0.388672	
-0.388733	
-0.388672	
-0.389465	
-0.389648	
-0.390991	
-0.390076	
-0.390015	
-0.389893	
-0.389038	
-0.390381	
-0.390137	
-0.39032	
-0.39032	
-0.39032	
-0.390747	
-0.391724	
-0.391235	
-0.392029	
-0.391174	
-0.390808	
-0.391418	
-0.390564	
-0.39093	
-0.391541	
-0.391663	
-0.39093	
-0.391357	
-0.391785	
-0.39032	
-0.391357	
-0.391113	
-0.39209	
-0.390503	
-0.391357	
-0.390503	
-0.388489	
-0.390015	
-0.389893	
-0.390503	
-0.389832	
-0.389404	
-0.389526	
-0.390076	
-0.38855	
-0.388489	
-0.388977	
-0.387756	
-0.388428	
-0.387817	
-0.386963	
-0.388733	
-0.387634	
-0.388184	
-0.388489	
-0.388	
-0.388672	
-0.389038	
-0.389465	
-0.390686	
-0.388794	
-0.390381	
-0.389282	
-0.387817	
-0.38916	
-0.389343	
-0.39032	
-0.39032	
-0.390869	
-0.389771	
-0.390259	
-0.39032	
-0.390869	
-0.390808	
-0.38916	
-0.390137	
-0.389771	
-0.389282	
-0.39032	
-0.39032	
-0.390625	
-0.389893	
-0.390137	
-0.389587	
-0.389648	
-0.390015	
-0.391357	
-0.390259	
-0.390808	
-0.390198	
-0.390015	
-0.391174	
-0.39093	
-0.391663	
-0.391541	
-0.391663	
-0.392029	
-0.393188	
-0.392273	
-0.392456	
-0.39386	
-0.392456	
-0.392334	
-0.39209	
-0.391174	
-0.392395	
-0.393738	
-0.392578	
-0.392578	
-0.392517	
-0.392151	
-0.392273	
-0.392395	
-0.393127	
-0.392029	
-0.392334	
-0.391235	
-0.390564	
-0.390503	
-0.389893	
-0.391174	
-0.389893	
-0.389221	
-0.389709	
-0.38916	
-0.388123	
-0.387756	
-0.388	
-0.386047	
-0.386414	
-0.386047	
-0.385193	
-0.385925	
-0.386353	
-0.386169	
-0.386108	
-0.385864	
-0.386414	
-0.386902	
-0.386475	
-0.387146	
-0.387451	
-0.387573	
-0.387268	
-0.387085	
-0.386536	
-0.38739	
-0.388245	
-0.38855	
-0.389465	
-0.390137	
-0.390564	
-0.391113	
-0.391907	
-0.393127	
-0.391113	
-0.392029	
-0.391724	
-0.390747	
-0.391846	
-0.392395	
-0.391907	
-0.391968	
-0.392151	
-0.392639	
-0.392639	
-0.392517	
-0.392761	
-0.394653	
-0.393555	
-0.392517	
-0.392029	
-0.390991	
-0.392334	
-0.392456	
-0.392212	
-0.392273	
-0.392517	
-0.393188	
-0.392151	
-0.392761	
-0.3927	
-0.391174	
-0.3927	
-0.391357	
-0.390625	
-0.391479	
-0.391907	
-0.391235	
-0.390625	
-0.390747	
-0.390625	
-0.391174	
-0.390991	
-0.390808	
-0.391846	
-0.39093	
-0.390137	
-0.389343	
-0.387451	
-0.388855	
-0.38916	
-0.389709	
-0.388672	
-0.388733	
-0.389832	
-0.388977	
-0.388794	
-0.390137	
-0.388306	
-0.390076	
-0.389465	
-0.388794	
-0.389587	
-0.389526	
-0.389465	
-0.389648	
-0.389648	
-0.388733	
-0.389832	
-0.389893	
-0.390503	
-0.390991	
-0.390808	
-0.390564	
-0.390442	
-0.390381	
-0.390442	
-0.390564	
-0.390076	
-0.390686	
-0.390747	
-0.391052	
-0.390503	
-0.390747	
-0.391418	
-0.389709	
-0.390381	
-0.389587	
-0.388733	
-0.389893	
-0.389954	
-0.390015	
-0.390564	
-0.390198	
-0.389771	
-0.391296	
-0.390686	
-0.390808	
-0.392456	
-0.391602	
-0.391296	
-0.390442	
-0.38916	
-0.391479	
-0.391296	
-0.391235	
-0.391479	
-0.391296	
-0.392517	
-0.392761	
-0.392334	
-0.392456	
-0.392212	
-0.392639	
-0.392029	
-0.391602	
-0.392029	
-0.391541	
-0.391357	
-0.391174	
-0.390808	
-0.390076	
-0.391663	
-0.390442	
-0.390259	
-0.391785	
-0.38916	
-0.388672	
-0.388062	
-0.386292	
-0.387756	
-0.387207	
-0.387268	
-0.387085	
-0.38678	
-0.388123	
-0.387756	
-0.387817	
-0.388489	
-0.387817	
-0.388489	
-0.388428	
-0.388306	
-0.388367	
-0.388306	
-0.389282	
-0.389648	
-0.389893	
-0.389893	
-0.391052	
-0.391174	
-0.391724	
-0.394104	
-0.39209	
-0.393494	
-0.394104	
-0.393127	
-0.395142	
-0.395325	
-0.395752	
-0.395752	
-0.395752	
-0.396484	
-0.395569	
-0.39624	
-0.396423	
-0.396179	
-0.396606	
-0.396423	
-0.395752	
-0.396423	
-0.396362	
-0.396057	
-0.396118	
-0.396667	
-0.395813	
-0.396973	
-0.396301	
-0.39624	
-0.396851	
-0.395203	
-0.394958	
-0.394348	
-0.393799	
-0.394653	
-0.394226	
-0.393982	
-0.393738	
-0.393433	
-0.394226	
-0.393188	
-0.393066	
-0.393433	
-0.393616	
-0.393738	
-0.392578	
-0.392151	
-0.390869	
-0.392578	
-0.392334	
-0.39209	
-0.391663	
-0.391174	
-0.391602	
-0.391785	
-0.391602	
-0.391785	
-0.391235	
-0.39209	
-0.391479	
-0.391113	
-0.392029	
-0.391479	
-0.392517	
-0.392578	
-0.392273	
-0.393188	
-0.3927	
-0.392517	
-0.393005	
-0.392456	
-0.393066	
-0.393127	
-0.393311	
-0.393494	
-0.394531	
-0.394287	
-0.394104	
-0.394775	
-0.394714	
-0.393921	
-0.394287	
-0.394775	
-0.394836	
-0.395264	
-0.395325	
-0.394348	
-0.393372	
-0.394897	
-0.393188	
-0.393921	
-0.394287	
-0.39386	
-0.393921	
-0.393433	
-0.393555	
-0.393738	
-0.394104	
-0.393372	
-0.393127	
-0.393066	
-0.392517	
-0.392639	
-0.39209	
-0.39209	
-0.392273	
-0.392944	
-0.392639	
-0.391907	
-0.392273	
-0.392395	
-0.393372	
-0.393372	
-0.392151	
-0.391479	
-0.393005	
-0.39209	
-0.3927	
-0.392395	
-0.391968	
-0.39209	
-0.392395	
-0.391907	
-0.391602	
-0.391968	
-0.391724	
-0.391296	
-0.390381	
-0.390869	
-0.390686	
-0.389771	
-0.390015	
-0.389893	
-0.390198	
-0.389893	
-0.389832	
-0.390015	
-0.389465	
-0.390625	
-0.390198	
-0.389404	
-0.388916	
-0.389099	
-0.389099	
-0.39032	
-0.39032	
-0.389832	
-0.390564	
-0.390686	
-0.390625	
-0.391235	
-0.391846	
-0.391907	
-0.39209	
-0.392578	
-0.393127	
-0.393372	
-0.393311	
-0.395142	
-0.395386	
-0.396057	
-0.395874	
-0.396484	
-0.396118	
-0.396179	
-0.3974	
-0.396362	
-0.395569	
-0.394958	
-0.394958	
-0.394714	
-0.395142	
-0.395752	
-0.395325	
-0.396057	
-0.395508	
-0.39502	
-0.394836	
-0.394836	
-0.39447	
-0.394836	
-0.393066	
-0.392029	
-0.392151	
-0.390503	
-0.390808	
-0.390564	
-0.390808	
-0.390808	
-0.390381	
-0.390015	
-0.389587	
-0.390747	
-0.390686	
-0.389343	
-0.387939	
-0.388611	
-0.389038	
-0.389465	
-0.389709	
-0.389587	
-0.389343	
-0.389404	
-0.389221	
-0.389404	
-0.389465	
-0.389771	
-0.390015	
-0.389038	
-0.389587	
-0.390259	
-0.389526	
-0.390076	
-0.390076	
-0.390564	
-0.390198	
-0.390259	
-0.390442	
-0.390259	
-0.391602	
-0.392151	
-0.39093	
-0.390869	
-0.390259	
-0.391785	
-0.391785	
-0.391907	
-0.391663	
-0.391296	
-0.392151	
-0.392273	
-0.393127	
-0.393311	
-0.393188	
-0.393311	
-0.393005	
-0.392822	
-0.393188	
-0.392029	
-0.392944	
-0.392883	
-0.394775	
-0.39325	
-0.393066	
-0.393066	
-0.392517	
-0.393433	
-0.393616	
-0.392639	
-0.392273	
-0.391968	
-0.39325	
-0.392517	
-0.392761	
-0.392273	
-0.390869	
-0.391785	
-0.391602	
-0.392029	
-0.391602	
-0.391907	
-0.391785	
-0.391296	
-0.391541	
-0.391235	
-0.390381	
-0.391357	
-0.391846	
-0.392578	
-0.392029	
-0.392273	
-0.391968	
-0.391235	
-0.392761	
-0.392761	
-0.391846	
-0.391418	
-0.391113	
-0.391968	
-0.391357	
-0.39093	
-0.391479	
-0.390869	
-0.391235	
-0.390808	
-0.391418	
-0.39093	
-0.391174	
-0.391296	
-0.389404	
-0.390137	
-0.389954	
-0.389709	
-0.390442	
-0.390015	
-0.390625	
-0.389038	
-0.389954	
-0.390503	
-0.389893	
-0.391052	
-0.390686	
-0.390686	
-0.391113	
-0.390747	
-0.391052	
-0.391541	
-0.391907	
-0.392822	
-0.392761	
-0.39325	
-0.393677	
-0.394958	
-0.394653	
-0.395264	
-0.395325	
-0.394165	
-0.394287	
-0.394531	
-0.394836	
-0.39447	
-0.394287	
-0.394958	
-0.3927	
-0.393555	
-0.39325	
-0.392822	
-0.393311	
-0.39325	
-0.391907	
-0.391724	
-0.391479	
-0.391296	
-0.390991	
-0.390198	
-0.390442	
-0.389709	
-0.388794	
-0.388184	
-0.388306	
-0.387024	
-0.388062	
-0.387024	
-0.385864	
-0.385498	
-0.385071	
-0.386414	
-0.385864	
-0.385437	
-0.386658	
-0.384949	
-0.385376	
-0.385315	
-0.385071	
-0.385681	
-0.385742	
-0.385315	
-0.38446	
-0.384949	
-0.384949	
-0.386292	
-0.386414	
-0.386841	
-0.38678	
-0.387451	
-0.387512	
-0.388672	
-0.387085	
-0.389038	
-0.388672	
-0.38855	
-0.388489	
-0.388062	
-0.389832	
-0.389465	
-0.389893	
-0.389465	
-0.388367	
-0.389832	
-0.390137	
-0.390747	
-0.389954	
-0.390747	
-0.389954	
-0.389221	
-0.389893	
-0.389709	
-0.390381	
-0.390381	
-0.390991	
-0.391235	
-0.390442	
-0.390381	
-0.391113	
-0.389954	
-0.391235	
-0.39032	
-0.389465	
-0.390076	
-0.389404	
-0.390625	
-0.389893	
-0.389526	
-0.388977	
-0.38916	
-0.389709	
-0.389221	
-0.389343	
-0.388794	
-0.388794	
-0.387756	
-0.387512	
-0.387573	
-0.38739	
-0.388611	
-0.387512	
-0.387329	
-0.387878	
-0.386963	
-0.387085	
-0.388245	
-0.387085	
-0.389526	
-0.389221	
-0.388	
-0.38855	
-0.387573	
-0.388794	
-0.389221	
-0.38916	
-0.389099	
-0.389526	
-0.389709	
-0.389832	
-0.389343	
-0.389526	
-0.390259	
-0.390015	
-0.389954	
-0.389587	
-0.389954	
-0.391235	
-0.390259	
-0.389343	
-0.389832	
-0.388489	
-0.389893	
-0.390198	
-0.389099	
-0.390503	
-0.389709	
-0.388855	
-0.390015	
-0.390076	
-0.389404	
-0.390198	
-0.390686	
-0.390564	
-0.391235	
-0.391052	
-0.391785	
-0.391907	
-0.392395	
-0.392761	
-0.391602	
-0.392334	
-0.392395	
-0.391113	
-0.393433	
-0.392273	
-0.392761	
-0.392639	
-0.391663	
-0.3927	
-0.393005	
-0.391968	
-0.393188	
-0.392883	
-0.391479	
-0.391907	
-0.391663	
-0.390442	
-0.391174	
-0.390808	
-0.390808	
-0.391113	
-0.389832	
-0.389648	
-0.390442	
-0.388855	
-0.389832	
-0.388	
-0.385986	
-0.387329	
-0.385986	
-0.387268	
-0.38623	
-0.386536	
-0.386719	
-0.38562	
-0.38678	
-0.386719	
-0.386414	
-0.386719	
-0.387939	
-0.386292	
-0.386169	
-0.386475	
-0.386597	
-0.387268	
-0.387939	
-0.387573	
-0.38855	
-0.388489	
-0.389648	
-0.390503	
-0.39032	
-0.391724	
-0.392029	
-0.390686	
-0.391663	
-0.391479	
-0.391846	
-0.392212	
-0.392578	
-0.392883	
-0.391296	
-0.392578	
-0.393433	
-0.392395	
-0.393127	
-0.39447	
-0.392639	
-0.393127	
-0.392944	
-0.392151	
-0.392822	
-0.393005	
-0.393127	
-0.392883	
-0.392517	
-0.393066	
-0.392822	
-0.3927	
-0.392761	
-0.393799	
-0.392212	
-0.3927	
-0.392273	
-0.392212	
-0.39209	
-0.392334	
-0.392761	
-0.391479	
-0.391663	
-0.392395	
-0.392456	
-0.391541	
-0.391663	
-0.391174	
-0.390076	
-0.391052	
-0.390564	
-0.389709	
-0.390442	
-0.39032	
-0.390442	
-0.39032	
-0.390076	
-0.389709	
-0.388916	
-0.390381	
-0.390503	
-0.38916	
-0.389465	
-0.389526	
-0.390259	
-0.390381	
-0.39032	
-0.390808	
-0.389648	
-0.390503	
-0.390015	
-0.391113	
-0.390076	
-0.390686	
-0.391357	
-0.390869	
-0.391174	
-0.390625	
-0.390137	
-0.391663	
-0.391541	
-0.391968	
-0.391479	
-0.391541	
-0.391418	
-0.391418	
-0.391541	
-0.391785	
-0.391235	
-0.390076	
-0.390808	
-0.390808	
-0.390869	
-0.390686	
-0.391113	
-0.39093	
-0.391418	
-0.391418	
-0.391968	
-0.391357	
-0.392395	
-0.392273	
-0.391846	
-0.391907	
-0.391663	
-0.390747	
-0.392334	
-0.392334	
-0.392334	
-0.392456	
-0.392822	
-0.393005	
-0.392761	
-0.393799	
-0.393494	
-0.393433	
-0.392578	
-0.393494	
-0.393311	
-0.39325	
-0.392883	
-0.393127	
-0.393127	
-0.392334	
-0.392029	
-0.392029	
-0.392456	
-0.392883	
-0.392151	
-0.390869	
-0.39032	
-0.390747	
-0.389404	
-0.389526	
-0.389038	
-0.388916	
-0.388977	
-0.388916	
-0.388306	
-0.388245	
-0.38916	
-0.389282	
-0.389404	
-0.388855	
-0.389648	
-0.389404	
-0.389893	
-0.389893	
-0.390198	
-0.390564	
-0.39093	
-0.390747	
-0.391357	
-0.392578	
-0.393372	
-0.393005	
-0.392761	
-0.3927	
	
