E:\DOCUMENTS AND SETTINGS\JPOTAS\MEUS DOCUMENTOS\UFRJ\RSCI-BM 12 WK SERIES\070731-RSCI-BM-12\RSCI-BM-12-LEMG\070731-RSCI-BM-12-LEMG-0009.ACQ
0.025000 msec/sample
1 channel
Analog input
Volts
CH1	
2000	
-0.395691	
-0.396423	
-0.396118	
-0.396301	
-0.395325	
-0.396606	
-0.39624	
-0.39563	
-0.396301	
-0.397034	
-0.396179	
-0.395935	
-0.395691	
-0.396667	
-0.394653	
-0.395813	
-0.395935	
-0.395691	
-0.395691	
-0.396179	
-0.395691	
-0.395508	
-0.395996	
-0.396851	
-0.395447	
-0.395508	
-0.395813	
-0.394592	
-0.395508	
-0.395691	
-0.395813	
-0.394531	
-0.396057	
-0.396179	
-0.395386	
-0.395752	
-0.395874	
-0.396118	
-0.395874	
-0.395935	
-0.396057	
-0.394958	
-0.395691	
-0.395752	
-0.396057	
-0.395874	
-0.395752	
-0.395874	
-0.395874	
-0.396729	
-0.397522	
-0.39563	
-0.395996	
-0.396423	
-0.394165	
-0.395447	
-0.39502	
-0.39563	
-0.39447	
-0.395752	
-0.395447	
-0.394897	
-0.395569	
-0.396362	
-0.39624	
-0.395569	
-0.395325	
-0.395508	
-0.395264	
-0.395081	
-0.395569	
-0.395142	
-0.395447	
-0.395691	
-0.395142	
-0.395691	
-0.395508	
-0.397705	
-0.395508	
-0.395264	
-0.395874	
-0.39447	
-0.395508	
-0.395874	
-0.395447	
-0.394531	
-0.395752	
-0.396118	
-0.395142	
-0.395996	
-0.396667	
-0.396484	
-0.39624	
-0.395935	
-0.396545	
-0.396423	
-0.39624	
-0.396423	
-0.395447	
-0.395752	
-0.396179	
-0.395508	
-0.396362	
-0.396484	
-0.398376	
-0.396423	
-0.396484	
-0.397339	
-0.394653	
-0.396118	
-0.396606	
-0.395569	
-0.39624	
-0.396301	
-0.396484	
-0.396362	
-0.39679	
-0.398193	
-0.396545	
-0.396851	
-0.397217	
-0.397644	
-0.396912	
-0.396667	
-0.397705	
-0.396057	
-0.397095	
-0.396973	
-0.396851	
-0.397156	
-0.397705	
-0.399414	
-0.397583	
-0.397583	
-0.398438	
-0.397034	
-0.397949	
-0.397522	
-0.397949	
-0.398193	
-0.398499	
-0.398438	
-0.397461	
-0.398865	
-0.399597	
-0.399597	
-0.398926	
-0.400208	
-0.399597	
-0.399292	
-0.399292	
-0.399719	
-0.398254	
-0.39917	
-0.399414	
-0.398804	
-0.398865	
-0.399719	
-0.400452	
-0.398682	
-0.399231	
-0.399414	
-0.397705	
-0.39856	
-0.397827	
-0.397766	
-0.397339	
-0.397034	
-0.396606	
-0.395813	
-0.396667	
-0.396851	
-0.397156	
-0.396667	
-0.397156	
-0.397034	
-0.395813	
-0.396362	
-0.396484	
-0.395752	
-0.396057	
-0.395752	
-0.395935	
-0.396484	
-0.396179	
-0.397705	
-0.396729	
-0.396729	
-0.397827	
-0.396057	
-0.397034	
-0.396912	
-0.3974	
-0.397034	
-0.3974	
-0.396851	
-0.395874	
-0.391113	
-0.387024	
-0.386536	
-0.386169	
-0.386597	
-0.386902	
-0.392822	
-0.398254	
-0.399231	
-0.398438	
-0.399231	
-0.398987	
-0.398987	
-0.399292	
-0.400269	
-0.401611	
-0.399963	
-0.399658	
-0.400574	
-0.398987	
-0.399048	
-0.399353	
-0.399536	
-0.399109	
-0.399963	
-0.399658	
-0.399414	
-0.39917	
-0.400024	
-0.400635	
-0.399475	
-0.399963	
-0.400574	
-0.398621	
-0.399597	
-0.399658	
-0.398804	
-0.399231	
-0.39917	
-0.398621	
-0.398926	
-0.398438	
-0.399536	
-0.398621	
-0.399292	
-0.400146	
-0.39856	
-0.399048	
-0.399597	
-0.398804	
-0.398438	
-0.39978	
-0.399658	
-0.400696	
-0.402283	
-0.403137	
-0.405212	
-0.406067	
-0.408142	
-0.410828	
-0.405029	
-0.403992	
-0.40625	
-0.408142	
-0.412781	
-0.41748	
-0.430115	
-0.441284	
-0.449158	
-0.456055	
-0.462524	
-0.470764	
-0.478455	
-0.483643	
-0.491333	
-0.497375	
-0.503174	
-0.509094	
-0.512939	
-0.5177	
-0.52124	
-0.524719	
-0.528687	
-0.53009	
-0.532166	
-0.532959	
-0.532654	
-0.534424	
-0.532593	
-0.531982	
-0.531311	
-0.528809	
-0.526917	
-0.52533	
-0.524231	
-0.524353	
-0.524048	
-0.525635	
-0.526794	
-0.528137	
-0.532593	
-0.536011	
-0.53949	
-0.542847	
-0.546082	
-0.54895	
-0.551697	
-0.553711	
-0.555359	
-0.554871	
-0.554749	
-0.553345	
-0.550293	
-0.549072	
-0.545837	
-0.54187	
-0.538513	
-0.532776	
-0.527466	
-0.522217	
-0.515381	
-0.509155	
-0.501404	
-0.493408	
-0.486328	
-0.478455	
-0.469971	
-0.464783	
-0.45575	
-0.449402	
-0.444397	
-0.436401	
-0.430298	
-0.4245	
-0.418579	
-0.41217	
-0.40448	
-0.39856	
-0.391479	
-0.383545	
-0.378296	
-0.371704	
-0.364502	
-0.358215	
-0.352173	
-0.34613	
-0.340149	
-0.335083	
-0.329651	
-0.324951	
-0.31958	
-0.316833	
-0.312622	
-0.308899	
-0.3078	
-0.304382	
-0.303345	
-0.303101	
-0.302063	
-0.303528	
-0.303833	
-0.304932	
-0.308167	
-0.309509	
-0.312683	
-0.314941	
-0.317932	
-0.323547	
-0.326965	
-0.331299	
-0.338013	
-0.343628	
-0.349182	
-0.355469	
-0.361389	
-0.365967	
-0.370605	
-0.374207	
-0.377808	
-0.380432	
-0.383362	
-0.386047	
-0.388306	
-0.389709	
-0.392456	
-0.393616	
-0.395447	
-0.398376	
-0.400391	
-0.402405	
-0.404968	
-0.406494	
-0.409241	
-0.410645	
-0.413147	
-0.416138	
-0.418396	
-0.420837	
-0.422485	
-0.424622	
-0.427063	
-0.429626	
-0.431152	
-0.432556	
-0.434265	
-0.435547	
-0.437317	
-0.438538	
-0.43988	
-0.441895	
-0.444092	
-0.445618	
-0.44751	
-0.449524	
-0.451965	
-0.453735	
-0.455139	
-0.455139	
-0.456238	
-0.455444	
-0.455688	
-0.456482	
-0.454834	
-0.452942	
-0.451416	
-0.449158	
-0.44635	
-0.443176	
-0.439453	
-0.435669	
-0.431519	
-0.427185	
-0.422852	
-0.418396	
-0.414063	
-0.409363	
-0.404419	
-0.399353	
-0.394226	
-0.388733	
-0.384583	
-0.379028	
-0.372986	
-0.367798	
-0.36084	
-0.356873	
-0.35144	
-0.345642	
-0.343201	
-0.33844	
-0.33551	
-0.33197	
-0.32959	
-0.327515	
-0.3255	
-0.32373	
-0.322327	
-0.320007	
-0.319153	
-0.31842	
-0.317566	
-0.318542	
-0.318604	
-0.319397	
-0.319397	
-0.319641	
-0.320313	
-0.321228	
-0.321655	
-0.322754	
-0.321899	
-0.322998	
-0.323669	
-0.323792	
-0.326172	
-0.326599	
-0.329224	
-0.330811	
-0.332581	
-0.335327	
-0.337219	
-0.337708	
-0.340027	
-0.340576	
-0.342224	
-0.344055	
-0.344543	
-0.346802	
-0.347473	
-0.350586	
-0.350952	
-0.352905	
-0.355103	
-0.356689	
-0.356628	
-0.357788	
-0.35791	
-0.359558	
-0.361389	
-0.362427	
-0.364563	
-0.365173	
-0.367493	
-0.368713	
-0.369934	
-0.371582	
-0.373108	
-0.373108	
-0.373962	
-0.374146	
-0.373596	
-0.376038	
-0.377136	
-0.377441	
-0.378296	
-0.379089	
-0.379761	
-0.380371	
-0.382019	
-0.382568	
-0.382141	
-0.382751	
-0.382935	
-0.381653	
-0.382629	
-0.382935	
-0.383301	
-0.383484	
-0.383179	
-0.38385	
-0.383545	
-0.384216	
-0.384521	
-0.382751	
-0.38324	
-0.382324	
-0.38147	
-0.382385	
-0.381531	
-0.381531	
-0.382019	
-0.381592	
-0.38147	
-0.381165	
-0.382446	
-0.381897	
-0.381348	
-0.381409	
-0.379333	
-0.379211	
-0.379822	
-0.37915	
-0.379456	
-0.379395	
-0.379517	
-0.379822	
-0.379944	
-0.380554	
-0.380249	
-0.38092	
-0.381042	
-0.380005	
-0.380249	
-0.380737	
-0.381531	
-0.382019	
-0.382141	
-0.382507	
-0.382813	
-0.383362	
-0.383667	
-0.383545	
-0.385376	
-0.384644	
-0.384827	
-0.384644	
-0.384277	
-0.384949	
-0.385315	
-0.385864	
-0.385986	
-0.385864	
-0.385376	
-0.386719	
-0.386475	
-0.386719	
-0.38623	
-0.385925	
-0.386169	
-0.386658	
-0.386414	
-0.38678	
-0.38739	
-0.387756	
-0.388062	
-0.388184	
-0.388184	
-0.389526	
-0.389893	
-0.389771	
-0.389282	
-0.388184	
-0.389465	
-0.389099	
-0.390686	
-0.390259	
-0.39093	
-0.391296	
-0.39209	
-0.391724	
-0.392334	
-0.392761	
-0.392395	
-0.392456	
-0.392395	
-0.3927	
-0.39209	
-0.392883	
-0.393494	
-0.393188	
-0.393127	
-0.393372	
-0.393066	
-0.392822	
-0.392822	
-0.392395	
-0.391235	
-0.391418	
-0.390747	
-0.390869	
-0.390442	
-0.390625	
-0.389893	
-0.39032	
-0.38916	
-0.389771	
-0.38916	
-0.389099	
-0.388123	
-0.38678	
-0.387695	
-0.387207	
-0.388184	
-0.388	
-0.388123	
-0.388245	
-0.388794	
-0.388428	
-0.389099	
-0.38855	
-0.389709	
-0.389282	
-0.387878	
-0.388489	
-0.388	
-0.389954	
-0.390137	
-0.390259	
-0.390381	
-0.390625	
-0.390381	
-0.391357	
-0.390259	
-0.391724	
-0.390625	
-0.390076	
-0.389771	
-0.388367	
-0.390442	
-0.39093	
-0.391113	
-0.390625	
-0.390625	
-0.391663	
-0.390869	
-0.391602	
-0.391235	
-0.390625	
-0.390625	
-0.389648	
-0.390686	
-0.390442	
-0.391296	
-0.391296	
-0.391235	
-0.391296	
-0.391846	
-0.391113	
-0.392151	
-0.391846	
-0.393127	
-0.391479	
-0.390503	
-0.391602	
-0.390381	
-0.391663	
-0.391846	
-0.391602	
-0.391541	
-0.392517	
-0.392334	
-0.392151	
-0.392029	
-0.392944	
-0.392029	
-0.391541	
-0.39209	
-0.391479	
-0.392517	
-0.392822	
-0.392517	
-0.392639	
-0.392761	
-0.39386	
-0.393433	
-0.393005	
-0.393982	
-0.393372	
-0.393066	
-0.392944	
-0.391724	
-0.392517	
-0.393311	
-0.393066	
-0.392761	
-0.3927	
-0.393066	
-0.393311	
-0.393188	
-0.393127	
-0.393066	
-0.39209	
-0.392944	
-0.392395	
-0.392273	
-0.392334	
-0.3927	
-0.392822	
-0.393005	
-0.393066	
-0.393738	
-0.392822	
-0.393677	
-0.393616	
-0.391602	
-0.392517	
-0.392578	
-0.393311	
-0.392883	
-0.392456	
-0.393005	
-0.393311	
-0.393616	
-0.393799	
-0.393494	
-0.394226	
-0.394226	
-0.392151	
-0.393188	
-0.393372	
-0.392639	
-0.394287	
-0.393677	
-0.393555	
-0.39386	
-0.394287	
-0.395508	
-0.393921	
-0.394287	
-0.395569	
-0.392822	
-0.394043	
-0.393677	
-0.392456	
-0.393982	
-0.394714	
-0.39447	
-0.394287	
-0.395264	
-0.395935	
-0.394714	
-0.394714	
-0.395569	
-0.393066	
-0.394409	
-0.394226	
-0.393433	
-0.394775	
-0.394592	
-0.394775	
-0.395569	
-0.395142	
-0.395752	
-0.395325	
-0.396484	
-0.396057	
-0.394714	
-0.395203	
-0.394287	
-0.395691	
-0.395752	
-0.395874	
-0.396118	
-0.39624	
-0.396301	
-0.397339	
-0.396545	
-0.39679	
-0.396851	
-0.397461	
-0.396667	
-0.396179	
-0.39679	
-0.394775	
-0.39679	
-0.397217	
-0.3974	
-0.397278	
-0.39801	
-0.39856	
-0.397461	
-0.39679	
-0.397705	
-0.395996	
-0.397461	
-0.397095	
-0.395996	
-0.397644	
-0.397705	
-0.397583	
-0.397766	
-0.397522	
-0.398438	
-0.397339	
-0.397339	
-0.396362	
-0.394287	
-0.395508	
-0.394958	
-0.39447	
-0.394775	
-0.394958	
-0.395081	
-0.394409	
-0.394897	
-0.395813	
-0.39502	
-0.395813	
-0.395142	
-0.39447	
-0.39502	
-0.394104	
-0.394531	
-0.394226	
-0.39447	
-0.394836	
-0.395142	
-0.39502	
-0.395325	
-0.395752	
-0.396362	
-0.395691	
-0.39679	
-0.394592	
-0.395508	
-0.395447	
-0.394226	
-0.396057	
-0.396118	
-0.395935	
-0.396057	
-0.396851	
-0.398254	
-0.396606	
-0.396606	
-0.397522	
-0.395508	
-0.396423	
-0.397278	
-0.39624	
-0.397644	
-0.397888	
-0.396912	
-0.396912	
-0.398132	
-0.399658	
-0.39801	
-0.397583	
-0.397583	
-0.397034	
-0.397522	
-0.397888	
-0.397156	
-0.396729	
-0.397888	
-0.398071	
-0.397888	
-0.397949	
-0.398499	
-0.398132	
-0.397339	
-0.397644	
-0.398254	
-0.396484	
-0.397339	
-0.396851	
-0.396301	
-0.396484	
-0.396118	
-0.396179	
-0.395996	
-0.396057	
-0.397644	
-0.396851	
-0.396545	
-0.396973	
-0.395264	
-0.394592	
-0.395874	
-0.394592	
-0.396362	
-0.395813	
-0.395813	
-0.396484	
-0.396545	
-0.397095	
-0.396484	
-0.396057	
-0.396606	
-0.394836	
-0.39447	
-0.396301	
-0.395142	
-0.395935	
-0.396057	
-0.396057	
-0.395874	
-0.395996	
-0.39679	
-0.397278	
-0.395813	
-0.395935	
-0.39679	
-0.394775	
-0.395386	
-0.394958	
-0.394104	
-0.394897	
-0.394592	
-0.394531	
-0.394287	
-0.394653	
-0.395447	
-0.39563	
-0.394653	
-0.395752	
-0.394287	
-0.393738	
-0.394348	
-0.393433	
-0.394714	
-0.394653	
-0.394714	
-0.39447	
-0.39502	
-0.395508	
-0.39563	
-0.394531	
-0.39502	
-0.393372	
-0.392883	
-0.394165	
-0.394531	
-0.39386	
-0.394226	
-0.39447	
-0.394043	
-0.394104	
-0.393982	
-0.393982	
-0.393677	
-0.393494	
-0.394348	
-0.392883	
-0.393311	
-0.39325	
-0.391785	
-0.393127	
-0.392456	
-0.392395	
-0.392456	
-0.392761	
-0.392456	
-0.393494	
-0.391968	
-0.393066	
-0.391724	
-0.390015	
-0.391663	
-0.390503	
-0.392395	
-0.392212	
-0.391968	
-0.392334	
-0.3927	
-0.393005	
-0.393372	
-0.392212	
-0.392456	
-0.391724	
-0.391113	
-0.392761	
-0.391602	
-0.391479	
-0.392273	
-0.392212	
-0.392517	
-0.392273	
-0.393433	
-0.39325	
-0.393433	
-0.392395	
-0.392334	
-0.392273	
-0.392273	
-0.392273	
-0.391541	
-0.392334	
-0.392517	
-0.392334	
-0.392517	
-0.393372	
-0.3927	
-0.393921	
-0.392822	
-0.393555	
-0.391968	
-0.391785	
-0.3927	
-0.391479	
-0.392639	
-0.392639	
-0.392639	
-0.393127	
-0.393799	
-0.394226	
-0.393738	
-0.393616	
-0.393982	
-0.393066	
-0.391602	
-0.392822	
-0.392944	
-0.393433	
-0.393188	
-0.392883	
-0.392822	
-0.393127	
-0.393982	
-0.394104	
-0.393799	
-0.393555	
-0.393799	
-0.392334	
-0.392639	
-0.392578	
-0.39093	
-0.393066	
-0.392822	
-0.392883	
-0.393433	
-0.394287	
-0.393921	
-0.393982	
-0.392822	
-0.39386	
-0.392761	
-0.391663	
-0.392395	
-0.391968	
-0.393372	
-0.393127	
-0.393127	
-0.3927	
-0.393311	
-0.393494	
-0.393677	
-0.392944	
-0.3927	
-0.391663	
-0.390991	
-0.392639	
-0.392151	
-0.391602	
-0.391968	
-0.392517	
-0.392456	
-0.392517	
-0.393066	
-0.393066	
-0.392883	
-0.392456	
-0.393311	
-0.391724	
-0.391479	
-0.391846	
-0.390747	
-0.392212	
-0.391602	
-0.391846	
-0.392334	
-0.392395	
-0.392456	
-0.392517	
-0.391907	
-0.392334	
-0.391479	
-0.389709	
-0.391479	
-0.391235	
-0.391663	
-0.391602	
-0.391357	
-0.391418	
-0.391907	
-0.392334	
-0.39209	
-0.391052	
-0.391602	
-0.390991	
-0.389587	
-0.391235	
-0.390381	
-0.388794	
-0.390808	
-0.390381	
-0.390015	
-0.390137	
-0.391174	
-0.390625	
-0.390564	
-0.390198	
-0.390015	
-0.389526	
-0.389893	
-0.389709	
-0.388184	
-0.389709	
-0.389954	
-0.389587	
-0.390137	
-0.390503	
-0.390198	
-0.390747	
-0.389954	
-0.389587	
-0.389648	
-0.388489	
-0.389343	
-0.388794	
-0.387939	
-0.388916	
-0.388916	
-0.389099	
-0.389282	
-0.389587	
-0.391479	
-0.390015	
-0.390564	
-0.391785	
-0.389648	
-0.390991	
-0.391357	
-0.390259	
-0.39209	
-0.39093	
-0.390991	
-0.391724	
-0.3927	
-0.391724	
-0.391724	
-0.391479	
-0.391174	
-0.391724	
-0.391113	
-0.391846	
-0.391296	
-0.390808	
-0.391541	
-0.391235	
-0.391174	
-0.391357	
-0.391541	
-0.39209	
-0.390198	
-0.390442	
-0.391052	
-0.389465	
-0.39093	
-0.390381	
-0.38916	
-0.390686	
-0.390869	
-0.390503	
-0.390198	
-0.389709	
-0.390564	
-0.390076	
-0.389832	
-0.389343	
-0.389893	
-0.390686	
-0.390564	
-0.389282	
-0.388794	
-0.389465	
-0.389526	
-0.389343	
-0.390076	
-0.389343	
-0.389832	
-0.389282	
-0.388306	
-0.389038	
-0.387756	
-0.388733	
-0.388489	
-0.387512	
-0.388428	
-0.388916	
-0.389099	
-0.390137	
-0.389771	
-0.39032	
-0.389099	
-0.388794	
-0.389832	
-0.388245	
-0.388855	
-0.389465	
-0.388245	
-0.389954	
-0.389526	
-0.390137	
-0.390625	
-0.390503	
-0.391052	
-0.390381	
-0.390381	
-0.390686	
-0.390076	
-0.389954	
-0.390015	
-0.389954	
-0.389282	
-0.390076	
-0.389954	
-0.390259	
-0.391113	
-0.390625	
-0.390869	
-0.390381	
-0.389648	
-0.390625	
-0.390198	
-0.390015	
-0.390259	
-0.388916	
-0.390198	
-0.390381	
-0.390381	
-0.391052	
-0.390442	
-0.391907	
-0.390808	
-0.389404	
-0.39032	
-0.389648	
-0.390869	
-0.390869	
-0.390442	
-0.390503	
-0.391235	
-0.391052	
-0.391663	
-0.391235	
-0.391785	
-0.391541	
-0.391113	
-0.391357	
-0.391724	
-0.391479	
-0.391785	
-0.391479	
-0.389954	
-0.390808	
-0.391174	
-0.391602	
-0.391968	
-0.391541	
-0.392212	
-0.391418	
-0.391235	
-0.391724	
-0.391724	
-0.391602	
-0.391724	
-0.391479	
-0.391235	
-0.391724	
-0.39209	
-0.393066	
-0.392151	
-0.393005	
-0.392578	
-0.391663	
-0.392517	
-0.392944	
-0.392761	
-0.392883	
-0.392639	
-0.39209	
-0.393921	
-0.393738	
-0.393982	
-0.393982	
-0.395203	
-0.394653	
-0.392883	
-0.393677	
-0.392944	
-0.393494	
-0.393555	
-0.393433	
-0.392883	
-0.392456	
-0.393921	
-0.393616	
-0.393677	
-0.393738	
-0.393372	
-0.392944	
-0.392395	
-0.392944	
-0.394165	
-0.393127	
-0.393188	
-0.392639	
-0.392273	
-0.393066	
-0.393005	
-0.393555	
-0.39325	
-0.393494	
-0.393738	
-0.391663	
-0.392151	
-0.392883	
-0.392761	
-0.392578	
-0.392639	
-0.391846	
-0.391479	
-0.393188	
-0.392944	
-0.393311	
-0.393982	
-0.392822	
-0.392334	
-0.392456	
-0.391907	
-0.392944	
-0.392822	
-0.393616	
-0.393005	
-0.392944	
-0.39325	
-0.393066	
-0.393921	
-0.393494	
-0.393311	
-0.393188	
-0.393127	
-0.392822	
-0.393372	
-0.392761	
-0.393066	
-0.392822	
-0.392273	
-0.392151	
-0.392761	
-0.393616	
-0.392395	
-0.393311	
-0.393066	
-0.391602	
-0.392212	
-0.393799	
-0.393188	
-0.392944	
-0.392517	
-0.391846	
-0.392151	
-0.392517	
-0.393311	
-0.3927	
-0.393066	
-0.393005	
-0.39209	
-0.392334	
-0.391907	
-0.392761	
-0.3927	
-0.392578	
-0.392151	
-0.392212	
-0.392212	
-0.393188	
-0.392639	
-0.393188	
-0.3927	
-0.393005	
-0.392883	
-0.392212	
-0.393433	
-0.393555	
-0.393066	
-0.392944	
-0.391907	
-0.392517	
-0.393433	
-0.393433	
-0.393677	
-0.393677	
-0.393372	
-0.393677	
-0.392822	
-0.394104	
-0.393616	
-0.393066	
-0.393372	
-0.393494	
-0.393616	
-0.393066	
-0.393799	
-0.39386	
-0.394287	
-0.393494	
-0.393433	
-0.393494	
-0.393494	
-0.394226	
-0.393738	
-0.394165	
-0.393921	
-0.392944	
-0.393494	
-0.394775	
-0.393799	
-0.394531	
-0.394226	
-0.393616	
-0.393982	
-0.393921	
-0.395081	
-0.394897	
-0.394531	
-0.394592	
-0.394409	
-0.394897	
-0.395325	
-0.395203	
-0.395142	
-0.395569	
-0.395142	
-0.396484	
-0.395203	
-0.395508	
-0.395996	
-0.395935	
-0.395996	
-0.395813	
-0.39624	
-0.395203	
-0.397339	
-0.39679	
-0.397156	
-0.396423	
-0.396362	
-0.396301	
-0.395691	
-0.397095	
-0.396301	
-0.396423	
-0.396606	
-0.39502	
-0.395752	
-0.397339	
-0.396362	
-0.396606	
-0.395752	
-0.394897	
-0.395081	
-0.394165	
-0.394836	
-0.394165	
-0.393555	
-0.393616	
-0.39386	
-0.393738	
-0.39325	
-0.393494	
-0.393799	
-0.39386	
-0.393921	
-0.394043	
-0.393311	
-0.393433	
-0.394775	
-0.393738	
-0.393066	
-0.393311	
-0.393127	
-0.39325	
-0.395081	
-0.394287	
-0.395203	
-0.394714	
-0.393555	
-0.394531	
-0.393311	
-0.394775	
-0.394836	
-0.394714	
-0.394409	
-0.394897	
-0.394897	
-0.395447	
-0.395508	
-0.396362	
-0.395447	
-0.39563	
-0.396362	
-0.395142	
-0.39624	
-0.397034	
-0.396423	
-0.397278	
-0.396606	
-0.395691	
-0.395935	
-0.397827	
-0.397217	
-0.396667	
-0.396729	
-0.396423	
-0.397522	
-0.397339	
-0.3974	
-0.397705	
-0.397217	
-0.397156	
-0.396484	
-0.39679	
-0.397644	
-0.397583	
-0.397156	
-0.396362	
-0.396362	
-0.397278	
-0.396667	
-0.396851	
-0.397217	
-0.39502	
-0.395874	
-0.395142	
-0.395203	
-0.395813	
-0.396057	
-0.396545	
-0.395447	
-0.395203	
-0.395203	
-0.394226	
-0.395142	
-0.395752	
-0.396057	
-0.395447	
-0.39502	
-0.39502	
-0.394714	
-0.396362	
-0.396179	
-0.395447	
-0.395569	
-0.394836	
-0.395142	
-0.395325	
-0.39563	
-0.396362	
-0.394165	
-0.395264	
-0.394775	
-0.394226	
-0.395813	
-0.396667	
-0.395386	
-0.394714	
-0.395264	
-0.395813	
-0.394836	
-0.394958	
-0.395691	
-0.394592	
-0.394348	
-0.394165	
-0.393494	
-0.393494	
-0.394958	
-0.394958	
-0.394348	
-0.393982	
-0.393311	
-0.394287	
-0.394592	
-0.394165	
-0.395569	
-0.393616	
-0.394104	
-0.394226	
-0.393677	
-0.394653	
-0.394531	
-0.394714	
-0.394897	
-0.394226	
-0.394653	
-0.394775	
-0.39447	
-0.395203	
-0.393433	
-0.393921	
-0.393738	
-0.392944	
-0.393799	
-0.394165	
-0.394226	
-0.393555	
-0.392883	
-0.3927	
-0.393555	
-0.393066	
-0.394287	
-0.394409	
-0.393127	
-0.392273	
-0.391663	
-0.391296	
-0.3927	
-0.392822	
-0.391724	
-0.392029	
-0.391907	
-0.392334	
-0.391968	
-0.392517	
-0.393066	
-0.391907	
-0.392334	
-0.391785	
-0.39209	
-0.392822	
-0.392944	
-0.391968	
-0.392456	
-0.392578	
-0.3927	
-0.392456	
-0.392334	
-0.393616	
-0.393005	
-0.392761	
-0.39209	
-0.391479	
-0.392029	
-0.39386	
-0.393555	
-0.392395	
-0.392395	
-0.392212	
-0.392517	
-0.393372	
-0.394043	
-0.393555	
-0.392822	
-0.393188	
-0.391785	
-0.392029	
-0.39325	
-0.393127	
-0.392883	
-0.392639	
-0.392334	
-0.393555	
-0.393066	
-0.393494	
-0.393555	
-0.39209	
-0.393188	
-0.393311	
-0.393433	
-0.393555	
-0.394226	
-0.393982	
-0.393982	
-0.394226	
-0.393921	
-0.393372	
-0.39386	
-0.394653	
-0.393555	
-0.393433	
-0.393433	
-0.392883	
-0.393616	
-0.394958	
-0.394592	
-0.393372	
-0.393738	
-0.392761	
-0.392639	
-0.393372	
-0.393677	
-0.394165	
-0.393433	
-0.393188	
-0.392212	
-0.393127	
-0.393982	
-0.394226	
-0.393799	
-0.393311	
-0.393616	
-0.394104	
-0.393433	
-0.393616	
-0.394287	
-0.393188	
-0.393494	
-0.393005	
-0.392822	
-0.393799	
-0.39447	
-0.394287	
-0.393494	
-0.393188	
-0.3927	
-0.39325	
-0.393616	
-0.394348	
-0.392578	
-0.393738	
-0.393616	
-0.392639	
-0.393311	
-0.394043	
-0.39386	
-0.393494	
-0.393677	
-0.393433	
-0.392944	
-0.393494	
-0.394165	
-0.393921	
-0.393372	
-0.393799	
-0.393066	
-0.392639	
-0.393982	
-0.393921	
-0.393616	
-0.39386	
-0.393555	
-0.393616	
-0.393188	
-0.393494	
-0.395081	
-0.39325	
-0.392578	
-0.392822	
-0.392273	
-0.393799	
-0.39386	
-0.39386	
-0.393494	
-0.392517	
-0.392334	
-0.39209	
-0.3927	
-0.392883	
-0.392517	
-0.392456	
-0.392639	
-0.39209	
-0.391113	
-0.392822	
-0.392517	
-0.391907	
-0.392456	
-0.391724	
-0.391663	
-0.391968	
-0.391785	
-0.392761	
-0.391846	
-0.392395	
-0.391663	
-0.391174	
-0.392334	
-0.393127	
-0.3927	
-0.391663	
-0.391541	
-0.392273	
-0.391785	
-0.391785	
-0.392151	
-0.391174	
-0.391235	
-0.391235	
-0.391296	
-0.390747	
-0.392578	
-0.393188	
-0.393066	
-0.393127	
-0.392395	
-0.392578	
-0.393555	
-0.394348	
-0.394897	
-0.394165	
-0.394043	
-0.394104	
-0.393372	
-0.39447	
-0.394348	
-0.394348	
-0.394836	
-0.394287	
-0.394165	
-0.394409	
-0.394653	
-0.394897	
-0.394287	
-0.39447	
-0.394104	
-0.393799	
-0.39325	
-0.394836	
-0.394226	
-0.393982	
-0.393555	
-0.393372	
-0.393433	
-0.393433	
-0.393677	
-0.393677	
-0.393127	
-0.393005	
-0.392822	
-0.392273	
-0.393372	
-0.39386	
-0.392761	
-0.392761	
-0.393433	
-0.392578	
-0.393372	
-0.39325	
-0.393738	
-0.393555	
-0.392883	
-0.392212	
-0.391541	
-0.391602	
-0.392517	
-0.392517	
-0.392212	
-0.390991	
-0.392334	
-0.391663	
-0.391907	
-0.392212	
-0.390991	
-0.392273	
-0.392639	
-0.392334	
-0.392578	
-0.392334	
-0.392578	
-0.391968	
-0.391968	
-0.392151	
-0.391052	
-0.392944	
-0.393433	
-0.393616	
-0.393677	
-0.392639	
-0.392944	
-0.393005	
-0.391968	
-0.393372	
-0.393066	
-0.393066	
-0.393799	
-0.392822	
-0.392883	
-0.393188	
-0.39386	
-0.393494	
-0.39325	
-0.393311	
-0.393005	
-0.394287	
-0.39386	
-0.394165	
-0.393616	
-0.392639	
-0.393921	
-0.393311	
-0.393188	
-0.393311	
-0.392822	
-0.393982	
-0.393188	
-0.393616	
-0.39325	
-0.392639	
-0.394104	
-0.393372	
-0.39325	
-0.394104	
-0.393433	
-0.394104	
-0.394226	
-0.394836	
-0.394775	
-0.394714	
-0.39447	
-0.394226	
-0.394226	
-0.394775	
-0.394897	
-0.393921	
-0.39447	
-0.394958	
-0.394592	
-0.394409	
-0.394409	
-0.393982	
-0.395142	
-0.394287	
-0.394653	
-0.393677	
-0.393677	
-0.395142	
-0.39447	
-0.393311	
-0.39447	
-0.393555	
-0.394409	
-0.394348	
-0.395142	
-0.395508	
-0.394836	
-0.395081	
-0.395691	
-0.394104	
-0.395386	
-0.395691	
-0.395386	
-0.395874	
-0.396118	
-0.395752	
-0.396057	
-0.396606	
-0.397278	
-0.397278	
-0.397217	
-0.397034	
-0.396118	
-0.396667	
-0.396912	
-0.395935	
-0.395569	
-0.396484	
-0.395691	
-0.395996	
-0.395691	
-0.395996	
-0.396973	
	
