E:\DOCUMENTS AND SETTINGS\JPOTAS\MEUS DOCUMENTOS\UFRJ\RSCI-BM 12 WK SERIES\070731-RSCI-BM-12\RSCI-BM-12-LEMG\070731-RSCI-BM-12-LEMG-0010.ACQ
0.025000 msec/sample
1 channel
Analog input
Volts
CH1	
2000	
-0.397766	
-0.398132	
-0.398682	
-0.397888	
-0.399658	
-0.398682	
-0.398499	
-0.398682	
-0.398193	
-0.399414	
-0.399536	
-0.39856	
-0.398987	
-0.398804	
-0.397766	
-0.398193	
-0.398682	
-0.398254	
-0.398132	
-0.398193	
-0.397522	
-0.3974	
-0.398193	
-0.39856	
-0.397705	
-0.396973	
-0.398193	
-0.39679	
-0.397766	
-0.397827	
-0.396118	
-0.397644	
-0.397034	
-0.397156	
-0.396545	
-0.397156	
-0.396851	
-0.397644	
-0.396851	
-0.395752	
-0.395813	
-0.395996	
-0.395935	
-0.395874	
-0.396851	
-0.395813	
-0.395447	
-0.394836	
-0.395447	
-0.395996	
-0.396729	
-0.396118	
-0.395752	
-0.397034	
-0.395813	
-0.39679	
-0.397339	
-0.396057	
-0.3974	
-0.397156	
-0.396973	
-0.397644	
-0.39801	
-0.398804	
-0.398621	
-0.398804	
-0.399719	
-0.399841	
-0.399536	
-0.39978	
-0.400208	
-0.401367	
-0.400513	
-0.399841	
-0.400146	
-0.399963	
-0.401062	
-0.401306	
-0.400391	
-0.399536	
-0.40033	
-0.398804	
-0.399231	
-0.399536	
-0.399048	
-0.399475	
-0.399231	
-0.398071	
-0.398865	
-0.398865	
-0.398682	
-0.398071	
-0.3974	
-0.398376	
-0.397095	
-0.398315	
-0.398376	
-0.397217	
-0.398926	
-0.398376	
-0.398499	
-0.399658	
-0.39801	
-0.399597	
-0.399353	
-0.398804	
-0.399597	
-0.399109	
-0.399658	
-0.399658	
-0.400391	
-0.400146	
-0.399597	
-0.39978	
-0.399475	
-0.399536	
-0.400024	
-0.399536	
-0.399475	
-0.399597	
-0.399475	
-0.397522	
-0.398682	
-0.398193	
-0.397644	
-0.398865	
-0.398315	
-0.397705	
-0.398621	
-0.398071	
-0.398132	
-0.397705	
-0.39679	
-0.398254	
-0.397888	
-0.398254	
-0.398254	
-0.398865	
-0.399292	
-0.398376	
-0.398071	
-0.397766	
-0.3974	
-0.398804	
-0.398376	
-0.3974	
-0.397217	
-0.39801	
-0.397522	
-0.396667	
-0.397156	
-0.396179	
-0.397217	
-0.396484	
-0.395813	
-0.396301	
-0.395874	
-0.396606	
-0.395691	
-0.394226	
-0.395691	
-0.393982	
-0.394897	
-0.394775	
-0.394714	
-0.395691	
-0.394775	
-0.394592	
-0.395325	
-0.393616	
-0.395935	
-0.395325	
-0.395508	
-0.396362	
-0.397034	
-0.397034	
-0.397522	
-0.398315	
-0.398071	
-0.397095	
-0.397461	
-0.397278	
-0.398071	
-0.398254	
-0.398132	
-0.397766	
-0.397705	
-0.398987	
-0.397461	
-0.398254	
-0.39801	
-0.397766	
-0.399414	
-0.398682	
-0.398499	
-0.399353	
-0.398743	
-0.39386	
-0.387695	
-0.386169	
-0.387634	
-0.386597	
-0.387207	
-0.393799	
-0.399841	
-0.400818	
-0.39978	
-0.399475	
-0.399048	
-0.397827	
-0.399231	
-0.398499	
-0.398071	
-0.397888	
-0.398071	
-0.397644	
-0.397217	
-0.396606	
-0.396729	
-0.396179	
-0.396606	
-0.396179	
-0.395447	
-0.395569	
-0.395569	
-0.394653	
-0.39502	
-0.395203	
-0.394409	
-0.394714	
-0.395142	
-0.394775	
-0.395813	
-0.395203	
-0.395447	
-0.395203	
-0.394226	
-0.396057	
-0.39502	
-0.395752	
-0.395935	
-0.395935	
-0.396484	
-0.397339	
-0.398438	
-0.397583	
-0.397827	
-0.398193	
-0.398193	
-0.399231	
-0.399597	
-0.400513	
-0.400024	
-0.402161	
-0.404175	
-0.404663	
-0.407227	
-0.40979	
-0.412781	
-0.415222	
-0.417969	
-0.421875	
-0.426697	
-0.432434	
-0.437927	
-0.444214	
-0.451843	
-0.458557	
-0.466553	
-0.46759	
-0.46991	
-0.476135	
-0.48291	
-0.489685	
-0.49469	
-0.506165	
-0.515869	
-0.520386	
-0.523376	
-0.527222	
-0.529053	
-0.531921	
-0.533142	
-0.534119	
-0.534302	
-0.533813	
-0.53241	
-0.531677	
-0.529053	
-0.52771	
-0.524841	
-0.523254	
-0.52356	
-0.523071	
-0.523926	
-0.525574	
-0.528992	
-0.530945	
-0.534607	
-0.537781	
-0.541077	
-0.544189	
-0.548279	
-0.550476	
-0.551453	
-0.554443	
-0.554993	
-0.554443	
-0.554016	
-0.552856	
-0.549866	
-0.547363	
-0.543579	
-0.538757	
-0.532959	
-0.528625	
-0.522766	
-0.514893	
-0.508667	
-0.502747	
-0.495361	
-0.488281	
-0.48114	
-0.472839	
-0.467102	
-0.459473	
-0.452698	
-0.444397	
-0.437317	
-0.43158	
-0.423157	
-0.416443	
-0.410034	
-0.401367	
-0.394653	
-0.387756	
-0.380554	
-0.373413	
-0.366272	
-0.359497	
-0.352539	
-0.34668	
-0.341431	
-0.335632	
-0.328918	
-0.325745	
-0.32019	
-0.316284	
-0.313049	
-0.310791	
-0.308167	
-0.305664	
-0.304749	
-0.303955	
-0.30304	
-0.30365	
-0.303955	
-0.303894	
-0.307495	
-0.30957	
-0.312744	
-0.315552	
-0.319824	
-0.324707	
-0.329773	
-0.335144	
-0.339966	
-0.346497	
-0.354248	
-0.359558	
-0.365295	
-0.372253	
-0.376831	
-0.38324	
-0.388245	
-0.391541	
-0.395935	
-0.398438	
-0.400818	
-0.402405	
-0.403564	
-0.40564	
-0.405762	
-0.407532	
-0.408997	
-0.409851	
-0.411926	
-0.413696	
-0.415039	
-0.417786	
-0.419678	
-0.42218	
-0.424255	
-0.426208	
-0.429077	
-0.430359	
-0.432739	
-0.434875	
-0.436646	
-0.438721	
-0.440979	
-0.441711	
-0.444519	
-0.445313	
-0.44751	
-0.448303	
-0.450134	
-0.45105	
-0.450989	
-0.453247	
-0.454651	
-0.455078	
-0.456299	
-0.456604	
-0.456116	
-0.457336	
-0.457031	
-0.456055	
-0.454468	
-0.453491	
-0.451904	
-0.449585	
-0.447388	
-0.444214	
-0.440308	
-0.436523	
-0.4328	
-0.427063	
-0.423767	
-0.418518	
-0.413513	
-0.407288	
-0.400818	
-0.395691	
-0.388	
-0.381653	
-0.375183	
-0.366882	
-0.36084	
-0.355164	
-0.349487	
-0.342407	
-0.33667	
-0.33136	
-0.326477	
-0.322266	
-0.319214	
-0.315308	
-0.311951	
-0.311218	
-0.308716	
-0.307373	
-0.30658	
-0.306396	
-0.306091	
-0.304749	
-0.304993	
-0.306091	
-0.305847	
-0.307922	
-0.307983	
-0.307617	
-0.309753	
-0.309143	
-0.311096	
-0.312073	
-0.312744	
-0.31488	
-0.315125	
-0.316772	
-0.317383	
-0.317627	
-0.320129	
-0.321106	
-0.323669	
-0.325745	
-0.327271	
-0.329346	
-0.332092	
-0.333069	
-0.335693	
-0.336365	
-0.337219	
-0.339355	
-0.340393	
-0.342102	
-0.342529	
-0.345276	
-0.34668	
-0.348206	
-0.349609	
-0.35144	
-0.3526	
-0.353943	
-0.354858	
-0.356812	
-0.35675	
-0.358704	
-0.359192	
-0.358948	
-0.361206	
-0.361267	
-0.363098	
-0.36377	
-0.363831	
-0.364685	
-0.365234	
-0.366028	
-0.367126	
-0.366882	
-0.367981	
-0.368591	
-0.369568	
-0.370728	
-0.3703	
-0.371643	
-0.372375	
-0.371338	
-0.373657	
-0.373474	
-0.373047	
-0.373474	
-0.372986	
-0.373901	
-0.373901	
-0.374512	
-0.375	
-0.374634	
-0.374634	
-0.374756	
-0.37384	
-0.375671	
-0.374939	
-0.375305	
-0.375244	
-0.375061	
-0.376343	
-0.375793	
-0.377014	
-0.377686	
-0.378174	
-0.378601	
-0.379028	
-0.377869	
-0.379211	
-0.379578	
-0.380737	
-0.380432	
-0.381348	
-0.381714	
-0.381958	
-0.383667	
-0.383667	
-0.384094	
-0.384521	
-0.38501	
-0.385315	
-0.385864	
-0.385986	
-0.387756	
-0.386841	
-0.387573	
-0.38739	
-0.387634	
-0.388184	
-0.388916	
-0.388245	
-0.38855	
-0.388916	
-0.388794	
-0.388428	
-0.388306	
-0.388916	
-0.38739	
-0.388123	
-0.387695	
-0.386902	
-0.387268	
-0.386597	
-0.386536	
-0.388	
-0.386841	
-0.388062	
-0.387146	
-0.387146	
-0.388123	
-0.388184	
-0.388794	
-0.388855	
-0.389221	
-0.390442	
-0.389709	
-0.389832	
-0.390869	
-0.390625	
-0.390625	
-0.390869	
-0.391846	
-0.390991	
-0.392151	
-0.391296	
-0.391602	
-0.392334	
-0.390991	
-0.392273	
-0.391907	
-0.391418	
-0.393066	
-0.392639	
-0.392761	
-0.391846	
-0.392517	
-0.392151	
-0.391296	
-0.391296	
-0.391785	
-0.391663	
-0.392029	
-0.392212	
-0.391541	
-0.391663	
-0.391541	
-0.390442	
-0.391113	
-0.392151	
-0.39093	
-0.391907	
-0.392639	
-0.39209	
-0.392212	
-0.393127	
-0.392151	
-0.393799	
-0.393127	
-0.39325	
-0.391907	
-0.391907	
-0.392029	
-0.39032	
-0.391541	
-0.391113	
-0.390991	
-0.390686	
-0.391052	
-0.391174	
-0.391296	
-0.391541	
-0.391174	
-0.390625	
-0.391724	
-0.391479	
-0.391296	
-0.391479	
-0.391418	
-0.391479	
-0.391602	
-0.392212	
-0.393127	
-0.392212	
-0.393127	
-0.393311	
-0.392578	
-0.394104	
-0.393616	
-0.393982	
-0.39447	
-0.394653	
-0.394104	
-0.394348	
-0.394775	
-0.395813	
-0.394897	
-0.395508	
-0.394958	
-0.394043	
-0.39563	
-0.395142	
-0.395264	
-0.395874	
-0.396118	
-0.39502	
-0.394226	
-0.394409	
-0.394043	
-0.394775	
-0.393188	
-0.393311	
-0.391846	
-0.393127	
-0.393372	
-0.393616	
-0.392822	
-0.392761	
-0.39209	
-0.393188	
-0.393005	
-0.394043	
-0.393921	
-0.393311	
-0.39386	
-0.392517	
-0.392944	
-0.394226	
-0.393311	
-0.393188	
-0.393311	
-0.391907	
-0.3927	
-0.393005	
-0.393555	
-0.393311	
-0.392456	
-0.3927	
-0.391052	
-0.392334	
-0.39386	
-0.392578	
-0.392639	
-0.393372	
-0.393127	
-0.39325	
-0.393555	
-0.394531	
-0.394226	
-0.393799	
-0.393372	
-0.393188	
-0.394531	
-0.39502	
-0.395325	
-0.395691	
-0.39563	
-0.396118	
-0.396606	
-0.396912	
-0.3974	
-0.397278	
-0.398132	
-0.396973	
-0.395874	
-0.397644	
-0.397217	
-0.397095	
-0.396851	
-0.397217	
-0.3974	
-0.396545	
-0.396851	
-0.39624	
-0.39679	
-0.396973	
-0.395996	
-0.396362	
-0.396057	
-0.395325	
-0.395447	
-0.395325	
-0.394653	
-0.395325	
-0.395386	
-0.395508	
-0.39563	
-0.396057	
-0.395874	
-0.39563	
-0.395752	
-0.396729	
-0.396179	
-0.396606	
-0.396301	
-0.395996	
-0.396851	
-0.396606	
-0.397522	
-0.398438	
-0.398499	
-0.398132	
-0.397156	
-0.396912	
-0.397583	
-0.397522	
-0.397583	
-0.396912	
-0.396545	
-0.397827	
-0.397522	
-0.397034	
-0.397278	
-0.396301	
-0.397888	
-0.396179	
-0.395447	
-0.396484	
-0.394287	
-0.395874	
-0.39624	
-0.395813	
-0.396606	
-0.395813	
-0.396301	
-0.396423	
-0.394836	
-0.397156	
-0.395996	
-0.395752	
-0.396362	
-0.396057	
-0.396606	
-0.396301	
-0.395813	
-0.396484	
-0.395386	
-0.394897	
-0.395569	
-0.394958	
-0.396301	
-0.395264	
-0.394409	
-0.394653	
-0.39386	
-0.394409	
-0.393921	
-0.39386	
-0.394287	
-0.393799	
-0.393555	
-0.39386	
-0.393433	
-0.394226	
-0.393921	
-0.392944	
-0.3927	
-0.393372	
-0.3927	
-0.392639	
-0.392395	
-0.393188	
-0.394043	
-0.394165	
-0.394653	
-0.394897	
-0.395325	
-0.396057	
-0.395508	
-0.394531	
-0.395691	
-0.39563	
-0.39624	
-0.39624	
-0.395569	
-0.39679	
-0.396667	
-0.395874	
-0.397339	
-0.397034	
-0.397583	
-0.396484	
-0.395996	
-0.396545	
-0.395874	
-0.397156	
-0.397095	
-0.39679	
-0.397644	
-0.39679	
-0.397278	
-0.397705	
-0.396729	
-0.397522	
-0.396362	
-0.396057	
-0.39679	
-0.395569	
-0.39624	
-0.396301	
-0.395508	
-0.397095	
-0.396362	
-0.396118	
-0.396545	
-0.394287	
-0.396057	
-0.394226	
-0.392883	
-0.393616	
-0.393921	
-0.393982	
-0.393555	
-0.393066	
-0.393005	
-0.393066	
-0.393066	
-0.392822	
-0.392578	
-0.393494	
-0.392517	
-0.391663	
-0.392456	
-0.393127	
-0.392029	
-0.392639	
-0.392639	
-0.392151	
-0.392456	
-0.392944	
-0.393433	
-0.393188	
-0.393372	
-0.393433	
-0.393066	
-0.393799	
-0.393494	
-0.394043	
-0.394226	
-0.394653	
-0.394287	
-0.394897	
-0.39447	
-0.393982	
-0.394714	
-0.394409	
-0.394348	
-0.393372	
-0.393188	
-0.392578	
-0.391785	
-0.393188	
-0.393127	
-0.392761	
-0.393433	
-0.392578	
-0.3927	
-0.393127	
-0.391907	
-0.392761	
-0.391663	
-0.391052	
-0.390564	
-0.391663	
-0.39209	
-0.391541	
-0.391418	
-0.392029	
-0.391479	
-0.391663	
-0.391907	
-0.391052	
-0.391663	
-0.391846	
-0.389832	
-0.391052	
-0.392212	
-0.391541	
-0.391357	
-0.391479	
-0.39093	
-0.391235	
-0.391724	
-0.391968	
-0.390442	
-0.390808	
-0.391235	
-0.39032	
-0.390137	
-0.390747	
-0.390137	
-0.390747	
-0.390869	
-0.391296	
-0.391724	
-0.391968	
-0.392822	
-0.392578	
-0.393005	
-0.393555	
-0.392883	
-0.393127	
-0.393433	
-0.392212	
-0.39325	
-0.393372	
-0.393372	
-0.393494	
-0.393433	
-0.393799	
-0.393494	
-0.394226	
-0.394043	
-0.393188	
-0.392578	
-0.391907	
-0.392395	
-0.392334	
-0.392151	
-0.391602	
-0.391785	
-0.391235	
-0.391113	
-0.39093	
-0.390503	
-0.390503	
-0.390198	
-0.388489	
-0.389221	
-0.389343	
-0.389221	
-0.389404	
-0.388733	
-0.389343	
-0.389099	
-0.388977	
-0.389771	
-0.388489	
-0.389526	
-0.389465	
-0.388672	
-0.389832	
-0.390869	
-0.390625	
-0.391052	
-0.390991	
-0.390747	
-0.390808	
-0.391052	
-0.391602	
-0.390137	
-0.39093	
-0.391541	
-0.390442	
-0.390747	
-0.391357	
-0.390564	
-0.391357	
-0.391235	
-0.39093	
-0.391663	
-0.391663	
-0.391968	
-0.39093	
-0.392761	
-0.393127	
-0.392395	
-0.392212	
-0.391418	
-0.391113	
-0.392456	
-0.392578	
-0.392395	
-0.392273	
-0.392395	
-0.392273	
-0.391907	
-0.392639	
-0.3927	
-0.391541	
-0.391663	
-0.391174	
-0.391602	
-0.391235	
-0.390991	
-0.390991	
-0.39032	
-0.390076	
-0.389893	
-0.389465	
-0.38916	
-0.388733	
-0.388794	
-0.388062	
-0.388062	
-0.387634	
-0.387512	
-0.387512	
-0.388	
-0.386475	
-0.387817	
-0.388123	
-0.388611	
-0.388062	
-0.38916	
-0.388611	
-0.38855	
-0.388794	
-0.388733	
-0.387512	
-0.388916	
-0.389771	
-0.389893	
-0.389343	
-0.389526	
-0.390442	
-0.389343	
-0.391113	
-0.390503	
-0.388367	
-0.389465	
-0.389038	
-0.388672	
-0.389221	
-0.389404	
-0.389771	
-0.388672	
-0.388977	
-0.389465	
-0.387817	
-0.388733	
-0.388	
-0.387146	
-0.388	
-0.388184	
-0.388245	
-0.388367	
-0.387878	
-0.388306	
-0.387817	
-0.388184	
-0.388	
-0.387756	
-0.388306	
-0.389038	
-0.388794	
-0.389343	
-0.388916	
-0.389404	
-0.389282	
-0.389404	
-0.390015	
-0.388489	
-0.389404	
-0.389526	
-0.390137	
-0.389221	
-0.39032	
-0.390137	
-0.389099	
-0.389038	
-0.389404	
-0.388428	
-0.389282	
-0.389221	
-0.389099	
-0.389221	
-0.389343	
-0.390198	
-0.389343	
-0.391052	
-0.389954	
-0.389343	
-0.39032	
-0.390442	
-0.390381	
-0.391296	
-0.390808	
-0.391357	
-0.391479	
-0.391785	
-0.392456	
-0.391479	
-0.392578	
-0.392639	
-0.391479	
-0.3927	
-0.392456	
-0.392639	
-0.392334	
-0.392761	
-0.3927	
-0.392944	
-0.392456	
-0.392883	
-0.392456	
-0.3927	
-0.392273	
-0.3927	
-0.391418	
-0.390442	
-0.390381	
-0.38916	
-0.390442	
-0.390076	
-0.389893	
-0.389343	
-0.389526	
-0.38916	
-0.389587	
-0.389771	
-0.389343	
-0.389343	
-0.389404	
-0.388245	
-0.388245	
-0.389038	
-0.388977	
-0.38916	
-0.388428	
-0.388794	
-0.388794	
-0.388306	
-0.389099	
-0.388428	
-0.388489	
-0.388855	
-0.389038	
-0.388733	
-0.388794	
-0.389465	
-0.389893	
-0.389221	
-0.389282	
-0.389893	
-0.388184	
-0.389771	
-0.389771	
-0.389648	
-0.390259	
-0.391724	
-0.390991	
-0.390808	
-0.391296	
-0.390808	
-0.392151	
-0.391968	
-0.392639	
-0.391724	
-0.392761	
-0.3927	
-0.393372	
-0.392944	
-0.393494	
-0.392883	
-0.392334	
-0.393066	
-0.392944	
-0.393555	
-0.393372	
-0.393127	
-0.392761	
-0.393127	
-0.393738	
-0.393372	
-0.393005	
-0.392883	
-0.391602	
-0.391479	
-0.391663	
-0.391602	
-0.391907	
-0.391357	
-0.390991	
-0.392212	
-0.391052	
-0.392578	
-0.392273	
-0.390686	
-0.391968	
-0.392029	
-0.39209	
-0.392273	
-0.392395	
-0.393616	
-0.392944	
-0.393127	
-0.393677	
-0.392334	
-0.393921	
-0.393372	
-0.393188	
-0.393982	
-0.394104	
-0.393494	
-0.39386	
-0.393677	
-0.394714	
-0.394348	
-0.394592	
-0.394287	
-0.393677	
-0.394714	
-0.395264	
-0.394897	
-0.394348	
-0.395203	
-0.393127	
-0.393921	
-0.394165	
-0.393738	
-0.394104	
-0.394104	
-0.394165	
-0.394775	
-0.394104	
-0.39502	
-0.395691	
-0.394287	
-0.39502	
-0.394714	
-0.394287	
-0.395447	
-0.39447	
-0.396362	
-0.395203	
-0.394165	
-0.395081	
-0.39325	
-0.393677	
-0.393372	
-0.392395	
-0.393799	
-0.392578	
-0.391846	
-0.392639	
-0.392334	
-0.393127	
-0.392456	
-0.392212	
-0.392517	
-0.391663	
-0.392639	
-0.392944	
-0.39209	
-0.392639	
-0.392639	
-0.392944	
-0.392273	
-0.392944	
-0.394226	
-0.394043	
-0.394104	
-0.394714	
-0.394836	
-0.395264	
-0.396118	
-0.395874	
-0.394897	
-0.395752	
-0.395203	
-0.395569	
-0.396545	
-0.395508	
-0.397278	
-0.39679	
-0.396667	
-0.397522	
-0.395508	
-0.397766	
-0.397156	
-0.395569	
-0.397644	
-0.39502	
-0.39502	
-0.395508	
-0.394409	
-0.395447	
-0.394897	
-0.395264	
-0.395447	
-0.394104	
-0.395203	
-0.395325	
-0.394592	
-0.395508	
-0.394958	
-0.395081	
-0.394653	
-0.395142	
-0.395691	
-0.39502	
-0.394409	
-0.394897	
-0.394531	
-0.395081	
-0.394531	
-0.394531	
-0.39386	
-0.393799	
-0.393616	
-0.392944	
-0.393616	
-0.393799	
-0.393677	
-0.393188	
-0.393066	
-0.394714	
-0.393921	
-0.394958	
-0.393921	
-0.39386	
-0.395264	
-0.393799	
-0.394348	
-0.394043	
-0.393555	
-0.39563	
-0.395081	
-0.395996	
-0.396973	
-0.395203	
-0.397461	
-0.397217	
-0.397583	
-0.398132	
-0.397034	
-0.397583	
-0.396973	
-0.396973	
-0.398254	
-0.398315	
-0.398132	
-0.398621	
-0.398071	
-0.399536	
-0.398193	
-0.398804	
-0.398193	
-0.396851	
-0.397034	
-0.397034	
-0.396851	
-0.397705	
-0.396973	
-0.396301	
-0.396057	
-0.397095	
-0.395996	
-0.395813	
-0.395691	
-0.39624	
-0.396301	
-0.39624	
-0.395752	
-0.395386	
-0.396118	
-0.3974	
-0.39624	
-0.39679	
-0.397644	
-0.396484	
-0.397278	
-0.397278	
-0.397461	
-0.39801	
-0.397888	
-0.397583	
-0.396729	
-0.396667	
-0.398254	
-0.397461	
-0.397156	
-0.39801	
-0.398071	
-0.398193	
-0.397278	
-0.397278	
-0.397583	
-0.396362	
-0.396729	
-0.396667	
-0.395508	
-0.39624	
-0.396301	
-0.396118	
-0.39624	
-0.396423	
-0.395569	
-0.395813	
-0.395935	
-0.396973	
-0.395508	
-0.396057	
-0.395874	
-0.395264	
-0.396545	
-0.397278	
-0.396179	
-0.396729	
-0.397522	
-0.395752	
-0.395935	
-0.395935	
-0.395447	
-0.395264	
-0.39502	
-0.394409	
-0.393372	
-0.393494	
-0.395142	
-0.393738	
-0.393738	
-0.39447	
-0.394287	
-0.39386	
-0.393311	
-0.393127	
-0.393555	
-0.393311	
-0.393066	
-0.392395	
-0.392517	
-0.393433	
-0.3927	
-0.392822	
-0.393555	
-0.393372	
-0.393005	
-0.393738	
-0.393555	
-0.394531	
-0.394653	
-0.394714	
-0.394958	
-0.395081	
-0.395752	
-0.396545	
-0.395935	
-0.396484	
-0.396484	
-0.395569	
-0.396057	
-0.39624	
-0.396545	
-0.396484	
-0.396118	
-0.395386	
-0.396179	
-0.395691	
-0.397705	
-0.396851	
-0.397156	
-0.398132	
-0.396484	
-0.396545	
-0.396912	
-0.396851	
-0.396545	
-0.396851	
-0.396729	
-0.39624	
-0.396606	
-0.397705	
-0.396545	
-0.397278	
-0.397583	
-0.397156	
-0.396301	
-0.396057	
-0.396301	
-0.395752	
-0.395996	
-0.394775	
-0.394165	
-0.394226	
-0.394409	
-0.394592	
-0.393982	
-0.394287	
-0.393494	
-0.394287	
-0.393494	
-0.393066	
-0.393494	
-0.393433	
-0.392517	
-0.392395	
-0.391663	
-0.392273	
-0.393555	
-0.392944	
-0.393799	
-0.393433	
-0.393005	
-0.393005	
-0.392273	
-0.39325	
-0.393616	
-0.393494	
-0.393677	
-0.393494	
-0.393799	
-0.394958	
-0.394531	
-0.395203	
-0.394592	
-0.394653	
-0.39447	
-0.394165	
-0.394897	
-0.394531	
-0.394653	
-0.394043	
-0.393616	
-0.393555	
-0.393372	
-0.393188	
-0.393127	
-0.393311	
-0.393555	
-0.392944	
-0.392456	
-0.393005	
-0.392334	
-0.393372	
-0.392639	
-0.391602	
-0.390686	
-0.392151	
-0.3927	
-0.391541	
-0.392273	
-0.39209	
-0.391357	
-0.391174	
-0.391479	
-0.391296	
-0.39209	
-0.391968	
-0.391602	
-0.391357	
-0.391235	
-0.3927	
-0.392029	
-0.393066	
-0.39209	
-0.391479	
-0.391724	
-0.390869	
-0.391663	
-0.392517	
-0.391968	
-0.39093	
-0.390686	
-0.390625	
-0.391602	
-0.390625	
-0.392151	
-0.39209	
-0.391296	
-0.392456	
-0.391846	
-0.39325	
-0.393066	
-0.393616	
-0.393311	
-0.393066	
-0.392334	
-0.393799	
-0.393738	
-0.393616	
-0.393433	
-0.394409	
-0.393982	
-0.393005	
-0.393616	
-0.393982	
-0.394775	
-0.393311	
-0.393982	
-0.393799	
-0.392578	
-0.393127	
-0.392639	
-0.392822	
-0.391968	
-0.392151	
-0.391174	
-0.390869	
-0.391052	
-0.391846	
-0.390564	
-0.389893	
-0.389832	
-0.388794	
-0.39093	
-0.390076	
-0.390686	
-0.389648	
-0.389648	
-0.389526	
-0.388306	
-0.389648	
-0.389221	
-0.390442	
-0.390381	
-0.390625	
-0.39032	
-0.392456	
-0.391418	
-0.39209	
-0.391602	
-0.391785	
-0.391541	
-0.39093	
-0.391235	
-0.391296	
-0.392273	
-0.391357	
-0.391541	
-0.391785	
-0.391724	
-0.391846	
-0.391907	
-0.392639	
-0.392334	
-0.39325	
-0.392395	
-0.392822	
-0.392761	
-0.393677	
-0.393066	
-0.393066	
-0.393066	
-0.391663	
-0.39325	
-0.393188	
-0.393982	
-0.393311	
-0.394104	
-0.393066	
-0.391968	
-0.393188	
-0.393127	
-0.392822	
-0.392578	
-0.392517	
-0.391785	
-0.392334	
-0.391846	
-0.392456	
-0.391907	
-0.391479	
-0.391052	
-0.389282	
-0.389587	
-0.389832	
-0.390808	
-0.388977	
-0.388977	
-0.388916	
-0.388916	
-0.389099	
-0.388916	
-0.388428	
-0.387756	
-0.389587	
-0.388672	
-0.388733	
-0.389099	
-0.390137	
-0.389648	
-0.390198	
-0.389954	
-0.389282	
-0.390198	
-0.390015	
-0.391235	
-0.390198	
-0.391418	
-0.390381	
-0.390869	
-0.391235	
-0.391113	
-0.39093	
-0.390747	
-0.391113	
-0.391357	
-0.390259	
-0.390869	
-0.391296	
-0.390259	
-0.390442	
-0.389771	
-0.389038	
-0.389465	
-0.389709	
-0.390259	
-0.389404	
-0.389404	
-0.388977	
-0.38855	
-0.389465	
-0.390381	
-0.388977	
-0.389282	
-0.389709	
-0.388489	
-0.389404	
-0.389526	
-0.390503	
-0.390381	
-0.389954	
-0.390259	
-0.390076	
-0.391174	
-0.391785	
-0.390991	
-0.390137	
-0.391907	
-0.390991	
-0.391174	
-0.39093	
-0.391052	
-0.390747	
-0.390808	
-0.391052	
-0.390808	
-0.390442	
-0.391113	
-0.390686	
-0.389771	
-0.391296	
-0.390625	
-0.391357	
-0.391357	
-0.391663	
-0.392517	
-0.392029	
-0.392151	
-0.392273	
-0.392029	
-0.3927	
-0.393982	
-0.392944	
-0.393066	
-0.393005	
-0.392334	
-0.393372	
-0.393982	
-0.394958	
-0.393738	
-0.393494	
-0.394165	
-0.392456	
-0.393799	
-0.394592	
-0.394104	
-0.394104	
-0.39563	
-0.394104	
-0.394226	
-0.393677	
-0.393372	
-0.392395	
-0.392395	
-0.392517	
-0.392151	
-0.391296	
-0.391296	
-0.391174	
-0.390442	
-0.391846	
-0.390808	
-0.390686	
-0.390869	
-0.391052	
-0.391602	
-0.391052	
-0.390381	
-0.390259	
-0.390259	
-0.390808	
-0.390869	
-0.390076	
-0.390625	
-0.390076	
-0.388855	
-0.390015	
-0.390076	
-0.391357	
-0.390137	
-0.390381	
-0.39032	
-0.390076	
-0.390808	
-0.391235	
-0.390442	
-0.391296	
-0.391357	
-0.390869	
-0.391479	
-0.391418	
-0.391296	
-0.391907	
-0.3927	
-0.392395	
-0.393616	
-0.392761	
-0.393372	
-0.393677	
-0.392944	
-0.39447	
-0.393616	
-0.392883	
-0.39447	
-0.394592	
-0.395142	
-0.394592	
-0.394836	
-0.39447	
-0.394958	
-0.394897	
-0.395447	
-0.394104	
-0.395203	
-0.394775	
-0.394043	
-0.394958	
-0.395386	
-0.395325	
-0.394104	
-0.394165	
-0.39325	
-0.392761	
-0.39325	
-0.393982	
-0.392822	
-0.393066	
-0.393555	
-0.3927	
-0.393005	
-0.392883	
-0.392578	
-0.393372	
-0.394104	
-0.39386	
-0.394592	
-0.394043	
-0.394592	
-0.395264	
-0.394836	
-0.395569	
-0.394897	
-0.394043	
-0.395142	
-0.394653	
-0.395386	
-0.395691	
-0.395935	
-0.396484	
-0.395508	
-0.395752	
-0.396851	
-0.395386	
-0.396423	
-0.396179	
-0.395569	
-0.396423	
-0.397034	
-0.39679	
-0.395996	
-0.395935	
-0.395447	
-0.395081	
-0.395813	
-0.395935	
-0.395874	
-0.396362	
-0.396301	
-0.395935	
-0.396057	
-0.396729	
-0.397583	
-0.396362	
-0.397095	
-0.396057	
-0.397156	
-0.397339	
-0.397339	
-0.397705	
-0.39679	
-0.397034	
-0.395935	
-0.394348	
-0.395203	
-0.395325	
-0.394775	
-0.394775	
-0.39447	
-0.395081	
-0.394653	
-0.39447	
-0.394653	
-0.393555	
-0.394897	
-0.394226	
-0.39386	
-0.394104	
-0.393921	
-0.394836	
-0.394104	
-0.394653	
-0.393982	
-0.394348	
-0.395264	
-0.395874	
-0.39624	
-0.396973	
-0.396545	
-0.396606	
-0.397034	
-0.396851	
-0.397888	
	
