E:\DOCUMENTS AND SETTINGS\JPOTAS\MEUS DOCUMENTOS\UFRJ\RSCI-BM 12 WK SERIES\070731-RSCI-BM-12\RSCI-BM-12-LEMG\070731-RSCI-BM-12-LEMG-0015.ACQ
0.025000 msec/sample
1 channel
Analog input
Volts
CH1	
2000	
-0.39563	
-0.396118	
-0.395325	
-0.39563	
-0.395203	
-0.394592	
-0.396301	
-0.394775	
-0.395935	
-0.396118	
-0.394653	
-0.39502	
-0.395264	
-0.395691	
-0.39624	
-0.394836	
-0.394409	
-0.394287	
-0.393127	
-0.395081	
-0.393738	
-0.394165	
-0.393433	
-0.392761	
-0.393433	
-0.394104	
-0.393677	
-0.393921	
-0.393188	
-0.393311	
-0.393311	
-0.392578	
-0.394226	
-0.393188	
-0.394348	
-0.393738	
-0.392273	
-0.393372	
-0.394165	
-0.393188	
-0.393555	
-0.392822	
-0.392639	
-0.392273	
-0.392029	
-0.39209	
-0.390747	
-0.3927	
-0.391663	
-0.391418	
-0.391418	
-0.391357	
-0.391357	
-0.390991	
-0.391113	
-0.390381	
-0.390259	
-0.390198	
-0.390259	
-0.389282	
-0.390747	
-0.389771	
-0.389587	
-0.389465	
-0.389343	
-0.389465	
-0.389771	
-0.390381	
-0.390259	
-0.390076	
-0.389954	
-0.390442	
-0.389099	
-0.390991	
-0.390137	
-0.390015	
-0.389954	
-0.389587	
-0.390808	
-0.390869	
-0.391602	
-0.391357	
-0.391479	
-0.391479	
-0.391663	
-0.391602	
-0.392639	
-0.392395	
-0.391663	
-0.392151	
-0.391541	
-0.392334	
-0.392822	
-0.393616	
-0.392883	
-0.392761	
-0.392883	
-0.392273	
-0.392456	
-0.393677	
-0.393127	
-0.393616	
-0.393433	
-0.392883	
-0.393677	
-0.393188	
-0.394287	
-0.393799	
-0.393494	
-0.392883	
-0.392822	
-0.394287	
-0.394714	
-0.393982	
-0.394226	
-0.394104	
-0.394958	
-0.395813	
-0.39563	
-0.397034	
-0.396729	
-0.395203	
-0.396179	
-0.396484	
-0.397095	
-0.397827	
-0.397217	
-0.397278	
-0.396118	
-0.396667	
-0.398743	
-0.398071	
-0.398193	
-0.3974	
-0.396301	
-0.397888	
-0.397278	
-0.397827	
-0.398438	
-0.397583	
-0.397644	
-0.397217	
-0.396667	
-0.39801	
-0.397583	
-0.398376	
-0.397888	
-0.397461	
-0.397278	
-0.396973	
-0.397034	
-0.396423	
-0.39624	
-0.395996	
-0.395325	
-0.394836	
-0.395874	
-0.395386	
-0.395203	
-0.395813	
-0.395264	
-0.394897	
-0.39502	
-0.395508	
-0.395203	
-0.394531	
-0.394348	
-0.393738	
-0.394043	
-0.394104	
-0.393494	
-0.393555	
-0.393616	
-0.393127	
-0.392151	
-0.392456	
-0.392517	
-0.392639	
-0.392944	
-0.392273	
-0.39093	
-0.391724	
-0.392029	
-0.39209	
-0.392212	
-0.39325	
-0.393311	
-0.392456	
-0.391785	
-0.391418	
-0.391479	
-0.392273	
-0.391357	
-0.390686	
-0.391296	
-0.390198	
-0.391296	
-0.384827	
-0.380005	
-0.379211	
-0.378723	
-0.378967	
-0.378845	
-0.386047	
-0.392456	
-0.392578	
-0.392639	
-0.392822	
-0.391663	
-0.393066	
-0.392334	
-0.393188	
-0.392822	
-0.391968	
-0.39209	
-0.391968	
-0.392029	
-0.392883	
-0.392517	
-0.392822	
-0.392639	
-0.393127	
-0.394592	
-0.394043	
-0.394897	
-0.395142	
-0.393799	
-0.394348	
-0.394226	
-0.394409	
-0.396057	
-0.39563	
-0.395386	
-0.39563	
-0.395386	
-0.396362	
-0.395264	
-0.396484	
-0.396423	
-0.395142	
-0.396057	
-0.395752	
-0.396423	
-0.396851	
-0.3974	
-0.397766	
-0.397827	
-0.397766	
-0.398682	
-0.398315	
-0.399475	
-0.400146	
-0.398987	
-0.400391	
-0.40155	
-0.402588	
-0.406189	
-0.407898	
-0.411255	
-0.415039	
-0.417297	
-0.421875	
-0.425232	
-0.431152	
-0.43634	
-0.440674	
-0.447449	
-0.455811	
-0.462402	
-0.470825	
-0.477539	
-0.484863	
-0.492249	
-0.499512	
-0.50647	
-0.512939	
-0.518555	
-0.523376	
-0.52832	
-0.531677	
-0.535522	
-0.538696	
-0.541443	
-0.542542	
-0.543518	
-0.543457	
-0.544067	
-0.542542	
-0.541748	
-0.539612	
-0.535339	
-0.533936	
-0.532043	
-0.53064	
-0.531677	
-0.532227	
-0.532959	
-0.534302	
-0.536987	
-0.540955	
-0.542725	
-0.545715	
-0.54834	
-0.549133	
-0.551575	
-0.552917	
-0.554382	
-0.554932	
-0.554688	
-0.553589	
-0.553589	
-0.551636	
-0.549744	
-0.546143	
-0.541687	
-0.536743	
-0.530273	
-0.525452	
-0.51947	
-0.511169	
-0.505249	
-0.497375	
-0.488953	
-0.482178	
-0.474976	
-0.469116	
-0.462036	
-0.455383	
-0.448547	
-0.441162	
-0.435608	
-0.429688	
-0.423645	
-0.417297	
-0.410034	
-0.4021	
-0.395691	
-0.387451	
-0.380798	
-0.372437	
-0.365601	
-0.3573	
-0.348328	
-0.341431	
-0.334106	
-0.326721	
-0.320679	
-0.314331	
-0.307556	
-0.301941	
-0.296814	
-0.29303	
-0.287354	
-0.284241	
-0.28125	
-0.276367	
-0.27478	
-0.27356	
-0.271118	
-0.271667	
-0.271545	
-0.271667	
-0.2724	
-0.273621	
-0.276062	
-0.279114	
-0.281311	
-0.283752	
-0.287903	
-0.291138	
-0.296204	
-0.301697	
-0.30658	
-0.31073	
-0.315735	
-0.319763	
-0.323486	
-0.326294	
-0.329773	
-0.33252	
-0.3349	
-0.335815	
-0.339905	
-0.341675	
-0.343994	
-0.343933	
-0.345886	
-0.347351	
-0.349792	
-0.350464	
-0.352051	
-0.353638	
-0.355164	
-0.356689	
-0.358704	
-0.359497	
-0.361389	
-0.355896	
-0.349792	
-0.351318	
-0.352295	
-0.353088	
-0.35498	
-0.362671	
-0.367371	
-0.369446	
-0.370483	
-0.370117	
-0.371948	
-0.372437	
-0.372192	
-0.373535	
-0.373962	
-0.374023	
-0.374451	
-0.374451	
-0.373901	
-0.374634	
-0.374329	
-0.375122	
-0.374939	
-0.376221	
-0.375061	
-0.375122	
-0.375671	
-0.375916	
-0.376465	
-0.377441	
-0.377075	
-0.376343	
-0.376892	
-0.377319	
-0.377502	
-0.378906	
-0.378113	
-0.377869	
-0.37915	
-0.379456	
-0.379395	
-0.380249	
-0.380005	
-0.379944	
-0.380127	
-0.379944	
-0.381226	
-0.381042	
-0.381226	
-0.381104	
-0.380371	
-0.380127	
-0.380798	
-0.380737	
-0.381653	
-0.382813	
-0.384033	
-0.386414	
-0.387878	
-0.391724	
-0.395386	
-0.397278	
-0.401184	
-0.405334	
-0.410339	
-0.415039	
-0.421021	
-0.427368	
-0.432983	
-0.440125	
-0.447205	
-0.453979	
-0.461548	
-0.467529	
-0.473938	
-0.479309	
-0.486755	
-0.49115	
-0.496521	
-0.500916	
-0.503906	
-0.506775	
-0.508667	
-0.510742	
-0.511292	
-0.510864	
-0.510071	
-0.507751	
-0.506836	
-0.505127	
-0.503052	
-0.502075	
-0.501892	
-0.501648	
-0.502625	
-0.505005	
-0.508728	
-0.510803	
-0.514038	
-0.51593	
-0.51825	
-0.521912	
-0.523254	
-0.524963	
-0.527405	
-0.528992	
-0.529846	
-0.530457	
-0.529541	
-0.528748	
-0.526978	
-0.52356	
-0.518677	
-0.514587	
-0.510864	
-0.505066	
-0.498657	
-0.492004	
-0.484985	
-0.477539	
-0.470032	
-0.46283	
-0.455811	
-0.449524	
-0.441895	
-0.43396	
-0.42804	
-0.421265	
-0.413269	
-0.405029	
-0.398193	
-0.389526	
-0.379883	
-0.370972	
-0.36261	
-0.354309	
-0.345459	
-0.336548	
-0.329529	
-0.322205	
-0.316711	
-0.309937	
-0.304077	
-0.299683	
-0.294312	
-0.289246	
-0.285461	
-0.281921	
-0.28009	
-0.277954	
-0.276367	
-0.274841	
-0.27356	
-0.274048	
-0.273804	
-0.274658	
-0.274963	
-0.27478	
-0.276306	
-0.278931	
-0.280579	
-0.283325	
-0.286804	
-0.289429	
-0.292358	
-0.297363	
-0.30072	
-0.304443	
-0.309021	
-0.311401	
-0.315063	
-0.317993	
-0.320374	
-0.323608	
-0.325378	
-0.326721	
-0.329346	
-0.33197	
-0.333618	
-0.334961	
-0.337463	
-0.338623	
-0.340088	
-0.342224	
-0.343689	
-0.345825	
-0.346375	
-0.347412	
-0.348328	
-0.348022	
-0.350891	
-0.35199	
-0.353394	
-0.353333	
-0.354309	
-0.355957	
-0.355347	
-0.358154	
-0.358459	
-0.358887	
-0.358948	
-0.360229	
-0.361572	
-0.361389	
-0.362183	
-0.362183	
-0.362183	
-0.363586	
-0.364197	
-0.364868	
-0.365723	
-0.365662	
-0.365906	
-0.366638	
-0.366638	
-0.369385	
-0.369934	
-0.370178	
-0.369873	
-0.370239	
-0.371216	
-0.372131	
-0.372559	
-0.37262	
-0.372986	
-0.372986	
-0.374268	
-0.374695	
-0.375732	
-0.375671	
-0.375549	
-0.375366	
-0.375061	
-0.37616	
-0.377136	
-0.378357	
-0.377625	
-0.377747	
-0.378174	
-0.379028	
-0.380188	
-0.380371	
-0.380798	
-0.380493	
-0.379272	
-0.380798	
-0.380127	
-0.38092	
-0.382019	
-0.38092	
-0.381592	
-0.38147	
-0.380554	
-0.382507	
-0.382568	
-0.382751	
-0.382324	
-0.382507	
-0.382629	
-0.384216	
-0.384155	
-0.384644	
-0.383972	
-0.382935	
-0.383789	
-0.384644	
-0.384583	
-0.383667	
-0.383606	
-0.38324	
-0.384521	
-0.384033	
-0.384338	
-0.385376	
-0.384949	
-0.384033	
-0.384888	
-0.385559	
-0.38678	
-0.385193	
-0.385193	
-0.38385	
-0.383545	
-0.385315	
-0.38562	
-0.384888	
-0.384155	
-0.384338	
-0.384338	
-0.384033	
-0.385925	
-0.384216	
-0.383789	
-0.383362	
-0.382751	
-0.384766	
-0.385437	
-0.385132	
-0.384888	
-0.384827	
-0.383606	
-0.384888	
-0.386414	
-0.385254	
-0.384827	
-0.384644	
-0.383301	
-0.385254	
-0.385315	
-0.385132	
-0.385742	
-0.384949	
-0.383362	
-0.384338	
-0.38562	
-0.383972	
-0.383911	
-0.383728	
-0.382996	
-0.383728	
-0.383911	
-0.384216	
-0.38446	
-0.384094	
-0.383362	
-0.383118	
-0.382935	
-0.384277	
-0.382874	
-0.382629	
-0.381958	
-0.381287	
-0.383057	
-0.384033	
-0.382874	
-0.384094	
-0.383118	
-0.381775	
-0.382996	
-0.384644	
-0.384949	
-0.384033	
-0.383911	
-0.383911	
-0.384094	
-0.384705	
-0.385071	
-0.385071	
-0.384705	
-0.384949	
-0.385559	
-0.385376	
-0.386597	
-0.386169	
-0.386169	
-0.385376	
-0.386047	
-0.387207	
-0.387451	
-0.387695	
-0.388062	
-0.38739	
-0.387695	
-0.388306	
-0.388367	
-0.389404	
-0.38855	
-0.388123	
-0.388367	
-0.388306	
-0.389221	
-0.389954	
-0.389465	
-0.389771	
-0.389465	
-0.388916	
-0.389954	
-0.389526	
-0.389771	
-0.390015	
-0.389404	
-0.389648	
-0.390381	
-0.391479	
-0.392029	
-0.392639	
-0.391785	
-0.392273	
-0.392822	
-0.392822	
-0.393738	
-0.394104	
-0.393433	
-0.393799	
-0.393005	
-0.39325	
-0.394897	
-0.394714	
-0.395081	
-0.394592	
-0.393188	
-0.394897	
-0.394775	
-0.395264	
-0.395081	
-0.393982	
-0.394531	
-0.39447	
-0.394958	
-0.395691	
-0.395569	
-0.394592	
-0.394775	
-0.395142	
-0.394226	
-0.395325	
-0.395386	
-0.394531	
-0.394409	
-0.393677	
-0.393616	
-0.394653	
-0.393921	
-0.394165	
-0.393433	
-0.39209	
-0.393616	
-0.393066	
-0.393738	
-0.393494	
-0.391602	
-0.392395	
-0.392273	
-0.392395	
-0.392334	
-0.392578	
-0.392151	
-0.391357	
-0.391785	
-0.391663	
-0.391296	
-0.391418	
-0.390564	
-0.390442	
-0.389465	
-0.390625	
-0.390808	
-0.390503	
-0.39093	
-0.390076	
-0.389221	
-0.390564	
-0.389648	
-0.391357	
-0.391113	
-0.389954	
-0.390503	
-0.389282	
-0.389587	
-0.390625	
-0.39032	
-0.39032	
-0.389709	
-0.389404	
-0.390991	
-0.389954	
-0.390198	
-0.390076	
-0.388916	
-0.390076	
-0.390503	
-0.390991	
-0.39032	
-0.390564	
-0.391113	
-0.390503	
-0.39032	
-0.391052	
-0.390808	
-0.391052	
-0.390625	
-0.390381	
-0.39032	
-0.390869	
-0.391357	
-0.391235	
-0.391418	
-0.391724	
-0.390808	
-0.39209	
-0.392944	
-0.392944	
-0.393433	
-0.393005	
-0.393433	
-0.393066	
-0.393372	
-0.394897	
-0.394104	
-0.394653	
-0.394287	
-0.392761	
-0.394226	
-0.39447	
-0.395325	
-0.394043	
-0.393433	
-0.394348	
-0.393677	
-0.394409	
-0.395874	
-0.394897	
-0.395691	
-0.395508	
-0.394653	
-0.396179	
-0.395325	
-0.395996	
-0.396484	
-0.395081	
-0.395447	
-0.395935	
-0.395935	
-0.396667	
-0.396057	
-0.397095	
-0.396545	
-0.396179	
-0.397949	
-0.397095	
-0.397156	
-0.397583	
-0.397156	
-0.397766	
-0.397827	
-0.398621	
-0.398499	
-0.398987	
-0.399475	
-0.398315	
-0.398682	
-0.398865	
-0.398438	
-0.399048	
-0.398376	
-0.397949	
-0.397278	
-0.397888	
-0.39856	
-0.397461	
-0.397644	
-0.397278	
-0.396179	
-0.397156	
-0.396851	
-0.397461	
-0.396545	
-0.395935	
-0.395935	
-0.394897	
-0.395874	
-0.396057	
-0.39563	
-0.395752	
-0.395325	
-0.395142	
-0.396362	
-0.394836	
-0.395935	
-0.395813	
-0.393799	
-0.394592	
-0.393433	
-0.392761	
-0.392822	
-0.393127	
-0.39325	
-0.392456	
-0.392639	
-0.393982	
-0.393066	
-0.393677	
-0.393372	
-0.391357	
-0.393188	
-0.392456	
-0.391541	
-0.392151	
-0.392151	
-0.391968	
-0.391235	
-0.391602	
-0.392395	
-0.39032	
-0.39209	
-0.391602	
-0.390137	
-0.391113	
-0.391602	
-0.391113	
-0.391907	
-0.391785	
-0.391907	
-0.390259	
-0.391663	
-0.392151	
-0.390503	
-0.391968	
-0.391968	
-0.391052	
-0.390442	
-0.390869	
-0.391113	
-0.391113	
-0.391296	
-0.391907	
-0.390442	
-0.391235	
-0.391479	
-0.39209	
-0.392456	
-0.392395	
-0.392273	
-0.392151	
-0.392639	
-0.392639	
-0.392578	
-0.392944	
-0.39325	
-0.392578	
-0.39386	
-0.393433	
-0.393921	
-0.393921	
-0.39209	
-0.392761	
-0.392944	
-0.393127	
-0.393127	
-0.392822	
-0.393005	
-0.393555	
-0.39325	
-0.39386	
-0.393311	
-0.393677	
-0.394836	
-0.39447	
-0.394287	
-0.393738	
-0.394226	
-0.394531	
-0.39447	
-0.394775	
-0.393555	
-0.394531	
-0.395752	
-0.394836	
-0.395386	
-0.395752	
-0.395569	
-0.395569	
-0.395447	
-0.396118	
-0.396179	
-0.396118	
-0.396057	
-0.395142	
-0.396179	
-0.396057	
-0.39563	
-0.395935	
-0.396179	
-0.395081	
-0.395142	
-0.395081	
-0.394714	
-0.395508	
-0.394897	
-0.395691	
-0.394165	
-0.395508	
-0.39447	
-0.394348	
-0.394348	
-0.39502	
-0.39386	
-0.393799	
-0.392944	
-0.392822	
-0.393372	
-0.392822	
-0.393066	
-0.39209	
-0.392944	
-0.392822	
-0.392639	
-0.392517	
-0.393494	
-0.392395	
-0.392456	
-0.391907	
-0.392151	
-0.392395	
-0.392639	
-0.392456	
-0.392822	
-0.392578	
-0.392395	
-0.39209	
-0.392212	
-0.392517	
-0.392029	
-0.391785	
-0.391174	
-0.391479	
-0.390747	
-0.390442	
-0.389709	
-0.39032	
-0.38916	
-0.388977	
-0.388367	
-0.389099	
-0.388367	
-0.388	
-0.387756	
-0.387146	
-0.387329	
-0.387634	
-0.387695	
-0.387085	
-0.388428	
-0.387756	
-0.387573	
-0.387024	
-0.387573	
-0.386963	
-0.387268	
-0.386963	
-0.386292	
-0.386353	
-0.387146	
-0.386719	
-0.387268	
-0.387085	
-0.38739	
-0.387207	
-0.387268	
-0.387695	
-0.386658	
-0.387268	
-0.387634	
-0.386963	
-0.388245	
-0.388184	
-0.388489	
-0.387817	
-0.389404	
-0.389648	
-0.389099	
-0.38916	
-0.390381	
-0.389038	
-0.38916	
-0.38916	
-0.388245	
-0.389709	
-0.389893	
-0.390137	
-0.389587	
-0.391113	
-0.391663	
-0.391602	
-0.391663	
-0.3927	
-0.391602	
-0.392761	
-0.392273	
-0.391235	
-0.392273	
-0.392517	
-0.392639	
-0.391907	
-0.3927	
-0.393372	
-0.392334	
-0.392517	
-0.393311	
-0.390991	
-0.392212	
-0.3927	
-0.392395	
-0.392212	
-0.392822	
-0.393127	
-0.393005	
-0.393188	
-0.394043	
-0.393738	
-0.393677	
-0.394226	
-0.392029	
-0.392822	
-0.391968	
-0.393127	
-0.392639	
-0.392334	
-0.392456	
-0.392395	
-0.392944	
-0.39325	
-0.3927	
-0.39325	
-0.393677	
-0.391724	
-0.392334	
-0.39209	
-0.392517	
-0.392273	
-0.392029	
-0.391602	
-0.391785	
-0.391357	
-0.391418	
-0.390808	
-0.390869	
-0.390747	
-0.389099	
-0.390076	
-0.389587	
-0.39032	
-0.390198	
-0.390625	
-0.390259	
-0.390686	
-0.390442	
-0.390808	
-0.390747	
-0.390442	
-0.390259	
-0.388855	
-0.389099	
-0.388733	
-0.389709	
-0.389221	
-0.388794	
-0.388367	
-0.389404	
-0.388855	
-0.389343	
-0.387939	
-0.388733	
-0.388611	
-0.387085	
-0.387451	
-0.386719	
-0.388	
-0.388	
-0.387329	
-0.387024	
-0.388062	
-0.387573	
-0.38739	
-0.386414	
-0.386902	
-0.386963	
-0.385742	
-0.385681	
-0.384644	
-0.385986	
-0.385376	
-0.385803	
-0.385742	
-0.386658	
-0.385376	
-0.386047	
-0.38562	
-0.387024	
-0.386047	
-0.385376	
-0.386169	
-0.385437	
-0.387146	
-0.386841	
-0.386597	
-0.387085	
-0.388245	
-0.387634	
-0.387939	
-0.387756	
-0.389221	
-0.388428	
-0.387512	
-0.388306	
-0.387939	
-0.389099	
-0.388794	
-0.389221	
-0.389099	
-0.39032	
-0.389954	
-0.390442	
-0.389893	
-0.390808	
-0.390564	
-0.389954	
-0.390625	
-0.39032	
-0.391541	
-0.391785	
-0.391968	
-0.391846	
-0.391479	
-0.391663	
-0.3927	
-0.39209	
-0.3927	
-0.391724	
-0.390869	
-0.391785	
-0.391479	
-0.39209	
-0.392273	
-0.392517	
-0.393311	
-0.3927	
-0.393372	
-0.394043	
-0.393066	
-0.393799	
-0.392761	
-0.391785	
-0.392212	
-0.392334	
-0.392944	
-0.392334	
-0.391907	
-0.393555	
-0.39325	
-0.393005	
-0.393738	
-0.393311	
-0.393921	
-0.392761	
-0.392212	
-0.393005	
-0.3927	
-0.393005	
-0.393005	
-0.392944	
-0.392212	
-0.391968	
-0.392578	
-0.392578	
-0.391724	
-0.392761	
-0.391602	
-0.390625	
-0.391418	
-0.390991	
-0.391296	
-0.390869	
-0.391357	
-0.391296	
-0.391968	
-0.391602	
-0.39209	
-0.39209	
-0.393066	
-0.391235	
-0.391479	
-0.391724	
-0.390747	
-0.391541	
-0.391479	
-0.39093	
-0.390564	
-0.390564	
-0.390259	
-0.391052	
-0.389893	
-0.391602	
-0.389343	
-0.389526	
-0.389771	
-0.389221	
-0.389893	
-0.389282	
-0.389343	
-0.389648	
-0.388916	
-0.388733	
-0.389282	
-0.388489	
-0.389465	
-0.388062	
-0.388245	
-0.387756	
-0.387695	
-0.388	
-0.388489	
-0.388428	
-0.389343	
-0.388306	
-0.38916	
-0.388916	
-0.389221	
-0.389832	
-0.38855	
-0.388733	
-0.388672	
-0.389038	
-0.388794	
-0.388977	
-0.389404	
-0.390076	
-0.390198	
-0.390137	
-0.389709	
-0.390686	
-0.391357	
-0.390686	
-0.390381	
-0.390686	
-0.390991	
-0.391663	
-0.391357	
-0.391296	
-0.391663	
-0.391602	
-0.391724	
-0.391663	
-0.392273	
-0.39325	
-0.391724	
-0.391968	
-0.391846	
-0.392395	
-0.392517	
-0.39209	
-0.392212	
-0.391479	
-0.392761	
-0.392456	
-0.39209	
-0.393066	
-0.394043	
-0.392883	
-0.393311	
-0.393677	
-0.393921	
-0.394104	
-0.394348	
-0.394958	
-0.395203	
-0.395935	
-0.396118	
-0.395508	
-0.396362	
-0.397339	
-0.395569	
-0.395996	
-0.396118	
-0.397278	
-0.396484	
-0.396545	
-0.397156	
-0.395935	
-0.396912	
-0.397156	
-0.396667	
-0.397278	
-0.398804	
-0.395813	
-0.39679	
-0.396973	
-0.397156	
-0.397339	
-0.39679	
-0.396545	
-0.395508	
-0.396851	
-0.397705	
-0.396545	
-0.396362	
-0.397278	
-0.394592	
-0.395874	
-0.39502	
-0.394409	
-0.39563	
-0.395874	
-0.395691	
-0.395203	
-0.395203	
-0.395569	
-0.394958	
-0.394653	
-0.395447	
-0.393494	
-0.394287	
-0.393982	
-0.392944	
-0.393738	
-0.393066	
-0.393799	
-0.393982	
-0.392883	
-0.393188	
-0.392456	
-0.392822	
-0.393372	
-0.391724	
-0.391907	
-0.391663	
-0.391602	
-0.392029	
-0.39209	
-0.392151	
-0.391724	
-0.392273	
-0.392944	
-0.392273	
-0.391785	
-0.39325	
-0.391846	
-0.391418	
-0.390686	
-0.391052	
-0.391418	
-0.391235	
-0.391296	
-0.392212	
-0.391724	
-0.391968	
-0.391724	
-0.391479	
-0.392334	
-0.391296	
-0.391541	
-0.391479	
-0.392029	
-0.391296	
-0.391724	
-0.391602	
-0.391418	
-0.391785	
-0.392334	
-0.392212	
-0.391418	
-0.39325	
-0.392273	
-0.392395	
-0.392639	
-0.393494	
-0.392883	
-0.392761	
-0.393555	
-0.394287	
-0.393738	
-0.394287	
-0.394531	
-0.393616	
-0.395325	
-0.395142	
-0.395325	
-0.39502	
-0.395203	
-0.395264	
-0.395203	
-0.39447	
-0.395264	
-0.395935	
-0.395264	
-0.395752	
-0.395264	
-0.396851	
-0.395935	
-0.395508	
-0.395813	
-0.396118	
-0.396362	
-0.395996	
-0.396667	
-0.397644	
-0.397034	
-0.396667	
-0.396912	
-0.396606	
-0.397278	
-0.397034	
-0.397461	
-0.3974	
-0.398254	
-0.397339	
-0.397766	
-0.398071	
-0.399292	
-0.398804	
-0.39856	
-0.398865	
-0.399109	
-0.399719	
-0.399414	
-0.39978	
-0.399658	
-0.399902	
-0.399719	
-0.399231	
-0.398987	
-0.400208	
-0.399292	
-0.399048	
-0.398804	
-0.398193	
-0.399048	
-0.398315	
-0.398193	
-0.3974	
-0.396912	
-0.397461	
-0.397461	
-0.396851	
-0.398193	
-0.396912	
-0.397888	
-0.396484	
-0.395874	
-0.396301	
-0.396423	
-0.396362	
-0.396729	
-0.395935	
-0.396118	
-0.396118	
-0.394836	
-0.396301	
-0.395447	
-0.395813	
-0.394897	
-0.393799	
-0.393799	
-0.393921	
-0.393372	
-0.393921	
-0.394043	
-0.394226	
-0.393799	
-0.392517	
-0.394226	
-0.394104	
-0.393677	
-0.393311	
-0.393188	
-0.393311	
-0.392578	
-0.392578	
-0.392761	
-0.392212	
-0.392212	
-0.391785	
-0.392212	
-0.392822	
-0.393127	
-0.392761	
-0.393311	
-0.393005	
-0.39325	
-0.392822	
-0.393005	
-0.39209	
-0.392273	
-0.392578	
-0.392273	
-0.392334	
-0.392639	
-0.392395	
-0.392639	
-0.392151	
-0.392273	
-0.392883	
-0.392456	
-0.392883	
-0.392334	
-0.392883	
-0.393066	
-0.393616	
-0.393982	
-0.394287	
-0.394287	
-0.394165	
-0.394104	
-0.394348	
-0.394836	
-0.394104	
-0.394592	
-0.393921	
-0.39447	
-0.394836	
-0.39447	
-0.394531	
-0.394531	
-0.394409	
-0.394592	
-0.394104	
-0.393982	
-0.39502	
-0.394409	
-0.394714	
-0.394714	
-0.394531	
-0.394958	
-0.394958	
-0.395508	
-0.395935	
-0.395996	
-0.396423	
-0.39624	
-0.395691	
-0.396423	
-0.396179	
-0.396545	
-0.395813	
-0.395691	
-0.396301	
-0.396912	
-0.397156	
-0.397949	
-0.397522	
-0.397827	
-0.397827	
-0.398193	
-0.397949	
-0.396851	
-0.397278	
-0.396423	
-0.397095	
-0.396667	
-0.396912	
-0.396973	
-0.397461	
-0.397095	
-0.397034	
-0.397217	
-0.397034	
-0.397034	
-0.396973	
-0.39624	
-0.395447	
-0.395874	
-0.395996	
-0.395752	
-0.39502	
-0.395508	
-0.395691	
-0.395691	
-0.395081	
-0.394714	
-0.39502	
-0.394165	
-0.394531	
-0.394958	
-0.394287	
-0.394043	
-0.393494	
-0.394226	
-0.39447	
-0.394714	
-0.39502	
-0.394775	
-0.394531	
-0.394531	
-0.393311	
-0.394043	
-0.393738	
-0.393738	
-0.393799	
-0.39325	
-0.39325	
-0.393127	
-0.393555	
-0.392944	
-0.392395	
-0.391846	
-0.391968	
-0.390869	
-0.391052	
-0.389954	
-0.389343	
-0.389893	
-0.389099	
-0.389343	
-0.389771	
-0.390564	
-0.389893	
-0.389343	
-0.389038	
-0.389465	
-0.388977	
-0.38916	
-0.389038	
-0.38855	
-0.388733	
-0.388	
-0.38916	
-0.389282	
-0.389587	
-0.389832	
-0.389343	
-0.388733	
-0.388794	
-0.388794	
-0.389587	
-0.389282	
-0.388062	
-0.388733	
-0.387817	
-0.389404	
-0.389709	
-0.390991	
-0.390747	
-0.390808	
-0.390259	
-0.390991	
-0.390259	
-0.391296	
-0.390625	
-0.391479	
-0.391296	
-0.390564	
-0.391479	
-0.391846	
-0.392761	
-0.392639	
-0.392517	
-0.391907	
-0.392517	
-0.391296	
-0.392639	
-0.393127	
-0.393433	
-0.39386	
-0.39386	
-0.39447	
-0.394653	
-0.395569	
-0.395081	
-0.394226	
-0.394714	
-0.394958	
-0.39386	
-0.39447	
-0.394165	
-0.393555	
-0.394226	
-0.394165	
-0.394775	
-0.394592	
-0.394958	
-0.395325	
-0.395203	
-0.394897	
-0.395508	
-0.394775	
-0.394165	
-0.395325	
-0.395081	
-0.395386	
-0.394836	
-0.395203	
-0.394897	
-0.394653	
-0.395508	
-0.395386	
-0.394653	
-0.395874	
-0.39447	
-0.393982	
-0.394714	
-0.394287	
-0.394409	
-0.394531	
-0.394714	
-0.394714	
-0.394592	
-0.394653	
-0.395203	
-0.39325	
-0.39447	
-0.393494	
-0.392578	
-0.392273	
-0.391418	
-0.3927	
-0.3927	
-0.392456	
-0.392883	
-0.392151	
-0.392517	
-0.392822	
-0.391174	
-0.39325	
-0.392456	
-0.391968	
-0.391968	
-0.391052	
-0.391663	
-0.391602	
-0.391602	
-0.391968	
-0.391724	
-0.391296	
-0.391663	
-0.390076	
-0.391174	
-0.390381	
-0.390137	
-0.390076	
-0.389343	
-0.390259	
-0.389404	
-0.389709	
-0.39032	
-0.389954	
-0.389771	
-0.390625	
-0.388916	
-0.39032	
-0.389343	
-0.388733	
-0.38855	
-0.387329	
-0.388123	
-0.387024	
-0.388123	
-0.38855	
-0.387451	
-0.387695	
-0.388123	
-0.386841	
-0.388672	
-0.387878	
-0.387451	
-0.387878	
-0.387146	
-0.388306	
-0.387207	
-0.388428	
-0.389587	
-0.388489	
-0.389282	
-0.390625	
-0.388367	
-0.390015	
-0.389465	
-0.389587	
-0.389832	
-0.38916	
-0.390442	
-0.389221	
-0.390808	
-0.391907	
-0.39093	
-0.391113	
-0.392639	
-0.391174	
-0.391663	
-0.391357	
-0.391235	
-0.39209	
-0.391602	
-0.392944	
-0.391907	
-0.393372	
-0.393921	
-0.393433	
-0.393921	
-0.394775	
-0.394104	
-0.393738	
-0.393555	
-0.392517	
-0.393433	
-0.393188	
-0.394104	
-0.393799	
-0.394653	
-0.394653	
-0.394836	
-0.394409	
-0.395325	
-0.394775	
-0.395508	
-0.39502	
-0.394836	
-0.395264	
-0.394653	
-0.394897	
-0.394287	
-0.394836	
-0.395447	
	
