E:\DOCUMENTS AND SETTINGS\JPOTAS\MEUS DOCUMENTOS\UFRJ\RSCI-BM 12 WK SERIES\070731-RSCI-BM-12\RSCI-BM-12-LEMG\070731-RSCI-BM-12-LEMG-0020.ACQ
0.025000 msec/sample
1 channel
Analog input
Volts
CH1	
2000	
-0.393127	
-0.392334	
-0.39209	
-0.391418	
-0.391785	
-0.393616	
-0.393188	
-0.393738	
-0.393188	
-0.393066	
-0.393616	
-0.392517	
-0.394592	
-0.394836	
-0.394043	
-0.393738	
-0.393311	
-0.393555	
-0.395386	
-0.394104	
-0.394897	
-0.393677	
-0.393311	
-0.393677	
-0.392944	
-0.394165	
-0.39386	
-0.393433	
-0.393005	
-0.3927	
-0.3927	
-0.39386	
-0.393066	
-0.393555	
-0.392639	
-0.392029	
-0.392517	
-0.392273	
-0.393433	
-0.393799	
-0.393188	
-0.393188	
-0.393372	
-0.393188	
-0.394958	
-0.39502	
-0.395569	
-0.39447	
-0.394165	
-0.395264	
-0.394836	
-0.395813	
-0.396851	
-0.395386	
-0.394958	
-0.394897	
-0.39502	
-0.395935	
-0.395325	
-0.395325	
-0.393921	
-0.393188	
-0.394348	
-0.393738	
-0.39447	
-0.393494	
-0.392517	
-0.391846	
-0.392151	
-0.392273	
-0.392578	
-0.391907	
-0.392639	
-0.391174	
-0.390869	
-0.391602	
-0.391541	
-0.392151	
-0.391846	
-0.391357	
-0.390625	
-0.390686	
-0.391663	
-0.391602	
-0.391052	
-0.39209	
-0.390808	
-0.391052	
-0.392273	
-0.393127	
-0.39325	
-0.393372	
-0.393677	
-0.393066	
-0.392578	
-0.394409	
-0.394653	
-0.394104	
-0.393616	
-0.392883	
-0.392578	
-0.393677	
-0.394226	
-0.395325	
-0.39447	
-0.39386	
-0.393799	
-0.393677	
-0.395203	
-0.394836	
-0.394653	
-0.39447	
-0.393066	
-0.39325	
-0.393616	
-0.393799	
-0.395081	
-0.393127	
-0.393372	
-0.393127	
-0.393005	
-0.394226	
-0.394104	
-0.393555	
-0.393494	
-0.392029	
-0.39325	
-0.393005	
-0.392822	
-0.39386	
-0.392883	
-0.3927	
-0.393127	
-0.392883	
-0.393616	
-0.393799	
-0.3927	
-0.392212	
-0.391479	
-0.39209	
-0.390869	
-0.391968	
-0.392456	
-0.391907	
-0.391846	
-0.391541	
-0.391052	
-0.392822	
-0.39209	
-0.391602	
-0.391052	
-0.390808	
-0.391357	
-0.390564	
-0.391541	
-0.392517	
-0.391357	
-0.390991	
-0.391235	
-0.391418	
-0.393066	
-0.392151	
-0.392578	
-0.392029	
-0.391296	
-0.391663	
-0.391418	
-0.392822	
-0.393311	
-0.392029	
-0.391724	
-0.391418	
-0.392456	
-0.393616	
-0.392212	
-0.3927	
-0.391846	
-0.391235	
-0.391785	
-0.391174	
-0.392395	
-0.393433	
-0.392151	
-0.392456	
-0.391724	
-0.392029	
-0.392822	
-0.391785	
-0.392273	
-0.391296	
-0.390564	
-0.391479	
-0.390564	
-0.392456	
-0.392334	
-0.39209	
-0.392456	
-0.38623	
-0.388672	
-0.393127	
-0.393555	
-0.394043	
-0.393066	
-0.393311	
-0.393921	
-0.392334	
-0.394348	
-0.394287	
-0.394043	
-0.393555	
-0.393555	
-0.393738	
-0.39386	
-0.393555	
-0.393799	
-0.39209	
-0.392517	
-0.392944	
-0.391418	
-0.393005	
-0.392639	
-0.393188	
-0.392151	
-0.391663	
-0.392151	
-0.393311	
-0.392517	
-0.392883	
-0.391296	
-0.391724	
-0.391785	
-0.39209	
-0.393127	
-0.392761	
-0.392517	
-0.392639	
-0.392395	
-0.393494	
-0.393127	
-0.393188	
-0.39447	
-0.3927	
-0.392883	
-0.393616	
-0.393494	
-0.394409	
-0.393921	
-0.394104	
-0.394165	
-0.393127	
-0.39502	
-0.395752	
-0.395874	
-0.397705	
-0.398865	
-0.401184	
-0.404541	
-0.407227	
-0.412903	
-0.415466	
-0.420166	
-0.424683	
-0.428101	
-0.435059	
-0.439148	
-0.443604	
-0.447266	
-0.452393	
-0.45813	
-0.463135	
-0.470825	
-0.47644	
-0.483093	
-0.48999	
-0.4953	
-0.503296	
-0.510376	
-0.516113	
-0.522095	
-0.525757	
-0.528503	
-0.532654	
-0.535889	
-0.539612	
-0.538391	
-0.539063	
-0.537476	
-0.536926	
-0.536743	
-0.535461	
-0.533691	
-0.531921	
-0.529297	
-0.528809	
-0.528076	
-0.529297	
-0.530823	
-0.529785	
-0.531067	
-0.532166	
-0.53418	
-0.537781	
-0.539673	
-0.542053	
-0.542603	
-0.542664	
-0.544861	
-0.545959	
-0.546875	
-0.545593	
-0.545105	
-0.542908	
-0.5401	
-0.538086	
-0.534241	
-0.529724	
-0.524353	
-0.51947	
-0.514038	
-0.509399	
-0.504211	
-0.499023	
-0.491821	
-0.486145	
-0.480652	
-0.474548	
-0.470886	
-0.46637	
-0.460388	
-0.454895	
-0.448242	
-0.44165	
-0.436523	
-0.430786	
-0.42572	
-0.418518	
-0.412537	
-0.406372	
-0.398071	
-0.393494	
-0.38855	
-0.381897	
-0.375	
-0.368286	
-0.361572	
-0.355835	
-0.350525	
-0.345825	
-0.338745	
-0.332642	
-0.327271	
-0.320618	
-0.317993	
-0.313477	
-0.308167	
-0.302734	
-0.298218	
-0.29425	
-0.290771	
-0.288452	
-0.288086	
-0.28363	
-0.282288	
-0.281433	
-0.281555	
-0.283447	
-0.28363	
-0.285522	
-0.286621	
-0.287781	
-0.291748	
-0.295898	
-0.300537	
-0.302856	
-0.307068	
-0.311035	
-0.313965	
-0.319275	
-0.321472	
-0.325195	
-0.327148	
-0.328491	
-0.331604	
-0.33374	
-0.335938	
-0.337341	
-0.338318	
-0.339783	
-0.339722	
-0.343933	
-0.344238	
-0.346008	
-0.346985	
-0.347046	
-0.349976	
-0.352112	
-0.354614	
-0.355225	
-0.356934	
-0.357849	
-0.357788	
-0.360413	
-0.36261	
-0.363037	
-0.36377	
-0.364258	
-0.365601	
-0.365479	
-0.368591	
-0.369934	
-0.369873	
-0.371521	
-0.372253	
-0.373413	
-0.374878	
-0.375183	
-0.375	
-0.375183	
-0.375854	
-0.375244	
-0.376221	
-0.376587	
-0.37561	
-0.375244	
-0.375427	
-0.375305	
-0.376892	
-0.375977	
-0.376648	
-0.376282	
-0.374939	
-0.376953	
-0.377686	
-0.378723	
-0.378296	
-0.378052	
-0.378052	
-0.378174	
-0.379089	
-0.379028	
-0.379456	
-0.379333	
-0.378906	
-0.379211	
-0.379028	
-0.380432	
-0.381287	
-0.380493	
-0.380676	
-0.380249	
-0.379578	
-0.382446	
-0.381592	
-0.381104	
-0.381042	
-0.380859	
-0.381104	
-0.38208	
-0.382813	
-0.382446	
-0.382019	
-0.381958	
-0.381287	
-0.382813	
-0.383667	
-0.384094	
-0.383118	
-0.383057	
-0.383667	
-0.383667	
-0.384888	
-0.384888	
-0.384766	
-0.384949	
-0.384277	
-0.384399	
-0.386169	
-0.386169	
-0.385498	
-0.385559	
-0.383728	
-0.386169	
-0.386169	
-0.387329	
-0.386719	
-0.38623	
-0.386047	
-0.385315	
-0.387451	
-0.386597	
-0.386658	
-0.386292	
-0.384705	
-0.385742	
-0.386597	
-0.386719	
-0.387573	
-0.386536	
-0.386353	
-0.385498	
-0.387329	
-0.387329	
-0.387146	
-0.38678	
-0.386047	
-0.386841	
-0.387329	
-0.387268	
-0.388672	
-0.387146	
-0.387573	
-0.387085	
-0.387085	
-0.387573	
-0.387939	
-0.387573	
-0.386414	
-0.387939	
-0.388428	
-0.388489	
-0.389282	
-0.388672	
-0.388855	
-0.388611	
-0.38678	
-0.389832	
-0.389526	
-0.388855	
-0.388245	
-0.388123	
-0.387512	
-0.388123	
-0.388123	
-0.388916	
-0.387756	
-0.387329	
-0.387207	
-0.388855	
-0.388428	
-0.387329	
-0.387085	
-0.38623	
-0.386353	
-0.387573	
-0.388306	
-0.388977	
-0.388428	
-0.388428	
-0.388672	
-0.387085	
-0.389832	
-0.389954	
-0.389343	
-0.388184	
-0.389282	
-0.389404	
-0.389709	
-0.390381	
-0.391724	
-0.389893	
-0.390198	
-0.390137	
-0.390564	
-0.390991	
-0.390137	
-0.39032	
-0.388733	
-0.390015	
-0.389954	
-0.390381	
-0.390625	
-0.391174	
-0.390198	
-0.390137	
-0.390076	
-0.39032	
-0.390503	
-0.389587	
-0.388855	
-0.388611	
-0.388489	
-0.388977	
-0.388367	
-0.389404	
-0.388916	
-0.387878	
-0.387939	
-0.38739	
-0.387207	
-0.387695	
-0.387329	
-0.385681	
-0.386536	
-0.386841	
-0.38678	
-0.387329	
-0.387878	
-0.386902	
-0.38739	
-0.387207	
-0.387817	
-0.388611	
-0.388489	
-0.388367	
-0.387695	
-0.388123	
-0.38916	
-0.389465	
-0.390564	
-0.390198	
-0.389526	
-0.389343	
-0.39032	
-0.391052	
-0.389893	
-0.390015	
-0.389587	
-0.389954	
-0.389832	
-0.390015	
-0.390259	
-0.390198	
-0.389221	
-0.389404	
-0.38855	
-0.389282	
-0.390503	
-0.389709	
-0.388916	
-0.389404	
-0.390015	
-0.390076	
-0.39032	
-0.391052	
-0.390259	
-0.389648	
-0.389709	
-0.390137	
-0.392334	
-0.389893	
-0.389832	
-0.389893	
-0.389465	
-0.390442	
-0.390503	
-0.391541	
-0.390869	
-0.389709	
-0.389709	
-0.389221	
-0.388855	
-0.389648	
-0.389099	
-0.389343	
-0.387878	
-0.388733	
-0.388306	
-0.388306	
-0.389038	
-0.388489	
-0.388428	
-0.388489	
-0.388733	
-0.389954	
-0.388367	
-0.387878	
-0.387756	
-0.388306	
-0.388794	
-0.388855	
-0.38916	
-0.389282	
-0.38916	
-0.389221	
-0.389526	
-0.389221	
-0.390991	
-0.389709	
-0.389282	
-0.389832	
-0.389709	
-0.390808	
-0.390869	
-0.391052	
-0.391174	
-0.390869	
-0.391296	
-0.390625	
-0.391113	
-0.391418	
-0.390869	
-0.390259	
-0.389099	
-0.389343	
-0.390076	
-0.390686	
-0.390442	
-0.389771	
-0.390137	
-0.390076	
-0.389893	
-0.390869	
-0.390625	
-0.389282	
-0.389771	
-0.389709	
-0.389832	
-0.390137	
-0.390686	
-0.391541	
-0.390808	
-0.391479	
-0.391418	
-0.390991	
-0.392944	
-0.392456	
-0.391479	
-0.391968	
-0.392273	
-0.392822	
-0.392639	
-0.393433	
-0.393677	
-0.392334	
-0.392395	
-0.391663	
-0.392212	
-0.392273	
-0.391235	
-0.391113	
-0.390686	
-0.390015	
-0.390442	
-0.390625	
-0.390015	
-0.390564	
-0.389221	
-0.389648	
-0.390015	
-0.390076	
-0.389709	
-0.388123	
-0.38916	
-0.387756	
-0.388184	
-0.388489	
-0.388855	
-0.388306	
-0.388428	
-0.387939	
-0.388489	
-0.387695	
-0.389404	
-0.389099	
-0.389404	
-0.390625	
-0.390137	
-0.390442	
-0.390625	
-0.391479	
-0.391113	
-0.390869	
-0.390991	
-0.390625	
-0.391174	
-0.391602	
-0.390869	
-0.391479	
-0.390869	
-0.390625	
-0.391296	
-0.392517	
-0.392395	
-0.391724	
-0.391602	
-0.391113	
-0.390381	
-0.392822	
-0.392456	
-0.390076	
-0.39093	
-0.390808	
-0.390747	
-0.390869	
-0.391785	
-0.391602	
-0.391052	
-0.39093	
-0.392029	
-0.390076	
-0.391357	
-0.391235	
-0.391174	
-0.390625	
-0.390686	
-0.390747	
-0.390747	
-0.390503	
-0.390686	
-0.390198	
-0.390686	
-0.391052	
-0.389832	
-0.390442	
-0.390198	
-0.390381	
-0.38916	
-0.389832	
-0.389526	
-0.390015	
-0.389709	
-0.390137	
-0.389343	
-0.389343	
-0.389771	
-0.389709	
-0.389038	
-0.388672	
-0.389404	
-0.388306	
-0.388916	
-0.389221	
-0.389343	
-0.388855	
-0.388733	
-0.388855	
-0.39093	
-0.389709	
-0.390442	
-0.389832	
-0.389893	
-0.389709	
-0.389771	
-0.389343	
-0.390442	
-0.390503	
-0.390442	
-0.389709	
-0.388733	
-0.39032	
-0.389587	
-0.389709	
-0.389648	
-0.389465	
-0.389771	
-0.390198	
-0.38916	
-0.390686	
-0.390137	
-0.390747	
-0.390503	
-0.390259	
-0.389465	
-0.389343	
-0.389771	
-0.389099	
-0.389221	
-0.388733	
-0.389282	
-0.389526	
-0.389404	
-0.390015	
-0.391296	
-0.390564	
-0.391235	
-0.390381	
-0.390564	
-0.391296	
-0.391418	
-0.391235	
-0.391296	
-0.391541	
-0.3927	
-0.391724	
-0.392029	
-0.391907	
-0.390686	
-0.391785	
-0.391541	
-0.391235	
-0.390869	
-0.391602	
-0.390869	
-0.390381	
-0.39093	
-0.391846	
-0.390808	
-0.390747	
-0.391113	
-0.390686	
-0.390442	
-0.390381	
-0.390625	
-0.389771	
-0.39032	
-0.389709	
-0.390259	
-0.390564	
-0.391052	
-0.390442	
-0.39093	
-0.39093	
-0.391602	
-0.390869	
-0.389771	
-0.390808	
-0.390808	
-0.391479	
-0.390869	
-0.390808	
-0.390747	
-0.391846	
-0.391602	
-0.392883	
-0.392639	
-0.393127	
-0.3927	
-0.392944	
-0.393372	
-0.39325	
-0.393921	
-0.393005	
-0.393738	
-0.394043	
-0.394958	
-0.394592	
-0.39502	
-0.393799	
-0.395508	
-0.394836	
-0.39624	
-0.395081	
-0.395386	
-0.395264	
-0.393188	
-0.394287	
-0.395691	
-0.394226	
-0.393188	
-0.393188	
-0.392761	
-0.392883	
-0.39209	
-0.393738	
-0.392639	
-0.3927	
-0.392883	
-0.392029	
-0.392883	
-0.393555	
-0.393127	
-0.393799	
-0.393005	
-0.39325	
-0.393372	
-0.392395	
-0.394287	
-0.392944	
-0.393494	
-0.393677	
-0.393066	
-0.393066	
-0.39386	
-0.394287	
-0.395081	
-0.394043	
-0.394226	
-0.393494	
-0.393188	
-0.394409	
-0.394226	
-0.394043	
-0.393982	
-0.394043	
-0.393066	
-0.393311	
-0.394165	
-0.394653	
-0.394165	
-0.395203	
-0.394226	
-0.394409	
-0.394714	
-0.394043	
-0.39447	
-0.394531	
-0.395264	
-0.396423	
-0.396301	
-0.396606	
-0.395691	
-0.395203	
-0.396851	
-0.395325	
-0.396606	
-0.396729	
-0.395996	
-0.396362	
-0.395691	
-0.396667	
-0.396484	
-0.396179	
-0.397217	
-0.396545	
-0.395996	
-0.396484	
-0.394531	
-0.396362	
-0.395203	
-0.395691	
-0.395325	
-0.394287	
-0.394409	
-0.394226	
-0.394531	
-0.39502	
-0.394287	
-0.39386	
-0.394531	
-0.393616	
-0.395447	
-0.393982	
-0.394531	
-0.39447	
-0.39386	
-0.39563	
-0.39502	
-0.39502	
-0.395386	
-0.394043	
-0.395142	
-0.395752	
-0.39563	
-0.396118	
-0.395508	
-0.395386	
-0.39502	
-0.394531	
-0.39563	
-0.395447	
-0.395264	
-0.394592	
-0.394531	
-0.394775	
-0.393616	
-0.394165	
-0.394043	
-0.393738	
-0.392883	
-0.392822	
-0.393127	
-0.391724	
-0.393005	
-0.393555	
-0.393005	
-0.393188	
-0.393433	
-0.391602	
-0.393005	
-0.393982	
-0.394348	
-0.393738	
-0.394348	
-0.395142	
-0.393799	
-0.395508	
-0.396362	
-0.394531	
-0.39624	
-0.396667	
-0.395142	
-0.39624	
-0.39624	
-0.395447	
-0.395874	
-0.396179	
-0.396667	
-0.395874	
-0.397217	
-0.397583	
-0.395996	
-0.396912	
-0.397522	
-0.396729	
-0.397705	
-0.396423	
-0.395386	
-0.395935	
-0.394714	
-0.395386	
-0.394714	
-0.394775	
-0.394714	
-0.394409	
-0.394592	
-0.395203	
-0.394165	
-0.395081	
-0.393921	
-0.393005	
-0.393799	
-0.392944	
-0.394348	
-0.393494	
-0.393799	
-0.393982	
-0.393982	
-0.394043	
-0.394348	
-0.393982	
-0.394714	
-0.394287	
-0.394165	
-0.393982	
-0.393677	
-0.394226	
-0.394165	
-0.394592	
-0.394592	
-0.394836	
-0.395203	
-0.393738	
-0.394897	
-0.395691	
-0.395508	
-0.394165	
-0.394592	
-0.39447	
-0.394104	
-0.395264	
-0.395508	
-0.39502	
-0.395386	
-0.395386	
-0.394714	
-0.396301	
-0.396912	
-0.396301	
-0.396423	
-0.39679	
-0.397034	
-0.395935	
-0.397095	
-0.396912	
-0.396423	
-0.397522	
-0.3974	
-0.397339	
-0.397949	
-0.397766	
-0.397461	
-0.397583	
-0.397217	
-0.397949	
-0.396545	
-0.397766	
-0.396973	
-0.395996	
-0.397095	
-0.397644	
-0.397339	
-0.396912	
-0.396301	
-0.395813	
-0.396973	
-0.395447	
-0.396667	
-0.395508	
-0.397339	
-0.396606	
-0.395813	
-0.39624	
-0.396484	
-0.39624	
-0.396973	
-0.396729	
-0.395691	
-0.396545	
-0.395752	
-0.397339	
-0.396484	
-0.397156	
-0.395935	
-0.396667	
-0.396301	
-0.396423	
-0.396729	
-0.397461	
-0.397034	
-0.396973	
-0.397095	
-0.395813	
-0.396851	
-0.39679	
-0.397278	
-0.395935	
-0.396423	
-0.396484	
-0.395325	
-0.395569	
-0.396301	
-0.395386	
-0.395447	
-0.394897	
-0.394775	
-0.394592	
-0.39502	
-0.395325	
-0.394531	
-0.394958	
-0.394836	
-0.394775	
-0.395752	
-0.395508	
-0.395264	
-0.396118	
-0.395142	
-0.395569	
-0.39563	
-0.395996	
-0.395508	
-0.395691	
-0.396179	
-0.396667	
-0.39624	
-0.396484	
-0.396545	
-0.395874	
-0.395996	
-0.396118	
-0.397095	
-0.396118	
-0.395996	
-0.395508	
-0.395569	
-0.395691	
-0.396179	
-0.396057	
-0.396118	
-0.39502	
-0.395203	
-0.395569	
-0.394531	
-0.395325	
-0.394958	
-0.394958	
-0.394287	
-0.394653	
-0.394104	
-0.393738	
-0.393494	
-0.393921	
-0.393188	
-0.393494	
-0.392517	
-0.391296	
-0.39209	
-0.391113	
-0.391968	
-0.391235	
-0.391968	
-0.391785	
-0.39093	
-0.391541	
-0.392517	
-0.391296	
-0.392578	
-0.391663	
-0.391846	
-0.3927	
-0.392334	
-0.394043	
-0.392334	
-0.393372	
-0.39386	
-0.393127	
-0.393372	
-0.393799	
-0.393555	
-0.39386	
-0.393372	
-0.39447	
-0.393677	
-0.392822	
-0.393372	
-0.392578	
-0.393738	
-0.393494	
-0.392761	
-0.393311	
-0.393066	
-0.392273	
-0.393372	
-0.392761	
-0.39386	
-0.393433	
-0.392761	
-0.392944	
-0.393066	
-0.393921	
-0.393433	
-0.393005	
-0.393494	
-0.3927	
-0.392029	
-0.393188	
-0.392456	
-0.393738	
-0.393616	
-0.392456	
-0.392456	
-0.393066	
-0.39325	
-0.392517	
-0.392944	
-0.392883	
-0.392273	
-0.391785	
-0.392517	
-0.391296	
-0.39093	
-0.390991	
-0.390625	
-0.390381	
-0.39032	
-0.390381	
-0.389893	
-0.390991	
-0.391174	
-0.390747	
-0.391052	
-0.391479	
-0.391235	
-0.390991	
-0.390869	
-0.390076	
-0.389771	
-0.390442	
-0.390747	
-0.391174	
-0.39209	
-0.391724	
-0.390808	
-0.391663	
-0.392944	
-0.393127	
-0.392151	
-0.392456	
-0.391418	
-0.391174	
-0.392273	
-0.392639	
-0.392212	
-0.392883	
-0.392517	
-0.391052	
-0.392517	
-0.391602	
-0.392944	
-0.391602	
-0.391785	
-0.391174	
-0.390503	
-0.391418	
-0.391602	
-0.391418	
-0.392944	
-0.391296	
-0.391357	
-0.391174	
-0.391602	
-0.392334	
-0.391846	
-0.391907	
-0.391296	
-0.391113	
-0.392334	
-0.392212	
-0.393066	
-0.393005	
-0.392578	
-0.393738	
-0.393616	
-0.394409	
-0.393982	
-0.394348	
-0.393799	
-0.392761	
-0.393311	
-0.394348	
-0.393555	
-0.393738	
-0.393555	
-0.392151	
-0.392395	
-0.392334	
-0.393066	
-0.391724	
-0.391602	
-0.391418	
-0.390564	
-0.390869	
-0.391296	
-0.390015	
-0.390442	
-0.390015	
-0.389832	
-0.390259	
-0.390137	
-0.390503	
-0.389954	
-0.389709	
-0.389587	
-0.388306	
-0.389465	
-0.389221	
-0.388489	
-0.389465	
-0.389343	
-0.389832	
-0.390137	
-0.390259	
-0.391846	
-0.391479	
-0.391724	
-0.392517	
-0.390442	
-0.392029	
-0.392517	
-0.391785	
-0.393005	
-0.391907	
-0.392395	
-0.392517	
-0.391602	
-0.393372	
-0.392456	
-0.392395	
-0.392273	
-0.391785	
-0.392761	
-0.392944	
-0.391968	
-0.393555	
-0.392395	
-0.392578	
-0.392273	
-0.392578	
-0.392273	
-0.391602	
-0.391907	
-0.390869	
-0.391602	
-0.391907	
-0.391785	
-0.390686	
-0.392151	
-0.391174	
-0.392151	
-0.391785	
-0.392578	
-0.391907	
-0.391479	
-0.391174	
-0.390259	
-0.391602	
-0.391724	
-0.391235	
-0.390198	
-0.391052	
-0.389648	
-0.391235	
-0.391052	
-0.392029	
-0.39032	
-0.390198	
-0.390259	
-0.389465	
-0.390259	
-0.390686	
-0.39032	
-0.39032	
-0.389709	
-0.389465	
-0.389709	
-0.390137	
-0.391235	
-0.389832	
-0.389465	
-0.389648	
-0.389221	
-0.389526	
-0.390076	
-0.390076	
-0.391052	
-0.390564	
-0.39032	
-0.390137	
-0.390198	
-0.391907	
-0.390869	
-0.390503	
-0.390442	
-0.390747	
-0.39093	
-0.390747	
-0.390381	
-0.390869	
-0.390259	
-0.390137	
-0.39032	
-0.389526	
-0.391357	
-0.390808	
-0.390442	
-0.390259	
-0.390869	
-0.391968	
-0.390503	
-0.390686	
-0.391052	
-0.39032	
-0.390076	
-0.390259	
-0.39093	
-0.392151	
-0.390747	
-0.39093	
-0.389709	
-0.391479	
-0.392212	
-0.391724	
-0.391907	
-0.392273	
-0.391602	
-0.3927	
-0.392578	
-0.393738	
-0.393066	
-0.393005	
-0.392395	
-0.391846	
-0.393188	
-0.39325	
-0.392883	
-0.392517	
-0.392822	
-0.392273	
-0.392639	
-0.392456	
-0.3927	
-0.391968	
-0.392151	
-0.391846	
-0.392029	
-0.391846	
-0.391968	
-0.392029	
-0.391541	
-0.391174	
-0.391602	
-0.391785	
-0.391968	
-0.392395	
-0.391724	
-0.392639	
-0.391418	
-0.392151	
-0.393005	
-0.392273	
-0.391785	
-0.391724	
-0.391846	
-0.392029	
-0.392517	
-0.392883	
-0.393066	
-0.393066	
-0.393127	
-0.392517	
-0.394165	
-0.395203	
-0.394775	
-0.394836	
-0.395203	
-0.394043	
-0.395081	
-0.395691	
-0.395264	
-0.396179	
-0.395996	
-0.396118	
-0.395691	
-0.396606	
-0.3974	
-0.396606	
-0.396667	
-0.397156	
-0.396362	
-0.396667	
-0.397034	
-0.396606	
-0.395813	
-0.395569	
-0.394775	
-0.393921	
-0.395508	
-0.395264	
-0.394775	
-0.394104	
-0.395081	
-0.394409	
-0.394165	
-0.39447	
-0.394348	
-0.394653	
-0.394836	
-0.395081	
-0.395203	
-0.395325	
-0.395752	
-0.39502	
-0.395081	
-0.395752	
-0.395325	
-0.395691	
-0.395447	
-0.396118	
-0.395691	
-0.395996	
-0.395386	
-0.395447	
-0.396118	
-0.395813	
-0.395752	
-0.395203	
-0.395935	
-0.395508	
-0.395874	
-0.39679	
-0.396667	
-0.396118	
-0.395813	
-0.394531	
-0.395569	
-0.396118	
-0.395996	
-0.395325	
-0.395325	
-0.396179	
-0.397034	
-0.396851	
-0.397461	
-0.397705	
-0.397522	
-0.397156	
-0.396423	
-0.397339	
-0.397949	
-0.397644	
-0.397949	
-0.397217	
-0.397583	
-0.398193	
-0.398071	
-0.397949	
-0.398621	
-0.397583	
-0.397278	
-0.3974	
-0.396362	
-0.39801	
-0.3974	
-0.397095	
-0.396667	
-0.395874	
-0.396423	
-0.396606	
-0.396179	
-0.396912	
-0.395813	
-0.395386	
-0.395996	
-0.39502	
-0.396423	
-0.395691	
-0.395752	
-0.395508	
-0.394897	
-0.396057	
-0.396912	
-0.395752	
-0.397278	
-0.396118	
-0.396301	
-0.397217	
-0.396484	
-0.3974	
-0.396973	
-0.395874	
-0.397217	
-0.396362	
-0.397461	
-0.3974	
-0.395447	
-0.396606	
-0.396851	
-0.395142	
-0.396362	
-0.395935	
-0.395996	
-0.395508	
-0.39386	
-0.395264	
-0.394348	
-0.394714	
-0.394836	
-0.393311	
-0.394043	
-0.394287	
-0.393066	
-0.39502	
-0.39386	
-0.394226	
-0.393982	
-0.393738	
-0.394714	
-0.394775	
-0.395142	
-0.39624	
-0.396179	
-0.395813	
-0.39624	
-0.395508	
-0.397156	
-0.397766	
-0.397339	
-0.396484	
-0.397034	
-0.39679	
-0.396851	
-0.397095	
-0.397888	
-0.397888	
-0.397827	
-0.397705	
-0.398682	
-0.397888	
-0.398499	
-0.397888	
-0.398193	
-0.397644	
-0.396851	
-0.3974	
-0.396362	
-0.396301	
-0.396057	
-0.395325	
-0.395081	
-0.395386	
-0.394775	
-0.395752	
-0.39447	
-0.394775	
-0.395325	
-0.39386	
-0.394226	
-0.394836	
-0.394836	
-0.395264	
-0.394287	
-0.394104	
-0.394531	
-0.393921	
-0.395081	
-0.394287	
-0.393738	
-0.394775	
-0.393921	
-0.394531	
-0.394958	
-0.394714	
-0.395447	
-0.394775	
-0.394714	
-0.395142	
-0.394531	
-0.395203	
-0.394897	
-0.394409	
-0.395325	
-0.394348	
-0.395264	
-0.395386	
-0.395386	
-0.395508	
-0.395081	
-0.395081	
-0.39624	
-0.394836	
-0.395996	
-0.395996	
-0.394775	
-0.396545	
-0.396118	
-0.396606	
-0.396301	
-0.395935	
-0.397461	
-0.396912	
-0.39679	
-0.397583	
-0.396606	
-0.396667	
-0.397278	
-0.397827	
-0.397888	
-0.397278	
-0.396973	
-0.397278	
-0.396362	
-0.398071	
-0.397095	
-0.396973	
-0.397278	
-0.396606	
-0.397095	
-0.396362	
-0.395935	
-0.395813	
-0.396179	
-0.395996	
-0.396179	
-0.394592	
-0.397095	
-0.396057	
-0.395752	
-0.395691	
-0.395691	
-0.395874	
-0.395874	
-0.395813	
-0.396423	
-0.395691	
-0.396057	
-0.395996	
-0.395264	
-0.396484	
-0.396179	
-0.395447	
-0.395752	
-0.397034	
-0.395996	
-0.395874	
-0.396423	
-0.396484	
-0.396301	
-0.396118	
-0.39624	
-0.395447	
-0.397217	
-0.396118	
-0.395508	
-0.395508	
-0.396179	
-0.395081	
-0.393738	
-0.394653	
-0.394775	
-0.394592	
-0.394592	
-0.395081	
-0.393616	
-0.394836	
-0.394043	
-0.393982	
-0.393799	
-0.394226	
-0.394226	
-0.394287	
-0.394714	
-0.395081	
-0.394836	
-0.394897	
-0.395813	
-0.394836	
-0.395386	
-0.394836	
-0.395203	
-0.395386	
-0.395569	
-0.394897	
-0.395447	
-0.395264	
-0.395813	
-0.395752	
-0.395447	
-0.395691	
-0.395325	
-0.394775	
-0.394409	
-0.394836	
-0.395081	
-0.394287	
-0.394104	
-0.394348	
-0.394409	
-0.394775	
-0.39386	
-0.394165	
-0.393982	
-0.394104	
-0.394165	
-0.393494	
-0.393127	
-0.393433	
-0.391724	
-0.39209	
-0.391663	
-0.391052	
-0.390991	
-0.391418	
-0.391235	
-0.390442	
-0.390808	
-0.390747	
-0.390686	
-0.390503	
-0.39093	
-0.389832	
-0.389343	
-0.389282	
-0.390808	
-0.390198	
-0.390808	
-0.391113	
-0.390137	
-0.391541	
-0.391968	
-0.391724	
-0.391907	
-0.392944	
-0.391846	
-0.391724	
-0.391357	
-0.39325	
-0.39209	
-0.392273	
-0.392761	
-0.392212	
-0.392517	
-0.392883	
-0.391235	
-0.39209	
-0.391663	
-0.391846	
-0.39032	
-0.391113	
-0.391479	
-0.391357	
-0.391357	
-0.392517	
-0.391846	
-0.391968	
-0.392029	
-0.391602	
-0.391846	
-0.392273	
-0.391052	
-0.389954	
-0.391174	
-0.390869	
-0.391357	
-0.391541	
-0.392822	
-0.391724	
-0.391907	
-0.391968	
-0.392029	
-0.391907	
-0.390869	
-0.390259	
-0.390442	
-0.39093	
-0.390442	
-0.390259	
-0.390198	
-0.388977	
-0.389587	
-0.389587	
-0.389832	
-0.389465	
-0.390015	
-0.389343	
-0.38855	
-0.389343	
-0.389282	
-0.389343	
-0.389465	
-0.390076	
	
