E:\DOCUMENTS AND SETTINGS\JPOTAS\MEUS DOCUMENTOS\UFRJ\RSCI-BM 12 WK SERIES\070731-RSCI-BM-12\RSCI-BM-12-LEMG\070731-RSCI-BM-12-LEMG-0008.ACQ
0.025000 msec/sample
1 channel
Analog input
Volts
CH1	
2000	
-0.394165	
-0.392578	
-0.393433	
-0.393616	
-0.392639	
-0.393738	
-0.394104	
-0.394592	
-0.395081	
-0.395142	
-0.395508	
-0.39563	
-0.395203	
-0.395813	
-0.395264	
-0.395264	
-0.396118	
-0.395996	
-0.395813	
-0.395325	
-0.395935	
-0.396545	
-0.39679	
-0.396362	
-0.39679	
-0.396118	
-0.394836	
-0.396606	
-0.394653	
-0.395203	
-0.394958	
-0.394226	
-0.395386	
-0.395203	
-0.395447	
-0.39502	
-0.394592	
-0.394958	
-0.394226	
-0.393982	
-0.394165	
-0.393372	
-0.393799	
-0.393066	
-0.392944	
-0.391602	
-0.392517	
-0.392273	
-0.393005	
-0.39386	
-0.393677	
-0.393982	
-0.392456	
-0.391907	
-0.393677	
-0.391846	
-0.3927	
-0.392822	
-0.390686	
-0.391663	
-0.39209	
-0.392517	
-0.392273	
-0.392273	
-0.393616	
-0.392883	
-0.392944	
-0.3927	
-0.39325	
-0.394409	
-0.394287	
-0.394226	
-0.393616	
-0.39502	
-0.39502	
-0.394775	
-0.395264	
-0.39502	
-0.395569	
-0.394836	
-0.395081	
-0.395081	
-0.393982	
-0.395325	
-0.394592	
-0.393127	
-0.394226	
-0.39447	
-0.394165	
-0.394409	
-0.395447	
-0.394775	
-0.393494	
-0.393311	
-0.392822	
-0.3927	
-0.393005	
-0.393066	
-0.392334	
-0.392029	
-0.392578	
-0.392456	
-0.392578	
-0.392273	
-0.393066	
-0.393188	
-0.391785	
-0.391724	
-0.392761	
-0.391418	
-0.391418	
-0.390991	
-0.390442	
-0.391418	
-0.391296	
-0.391113	
-0.391113	
-0.391846	
-0.391663	
-0.391052	
-0.390564	
-0.390564	
-0.390198	
-0.39093	
-0.390137	
-0.389221	
-0.389709	
-0.390686	
-0.390503	
-0.390198	
-0.391052	
-0.391785	
-0.391296	
-0.390442	
-0.39093	
-0.389587	
-0.389404	
-0.390381	
-0.39093	
-0.390076	
-0.390198	
-0.390259	
-0.39093	
-0.391052	
-0.391174	
-0.391541	
-0.390625	
-0.39093	
-0.390747	
-0.390137	
-0.390259	
-0.390442	
-0.389709	
-0.390076	
-0.39032	
-0.390686	
-0.391113	
-0.390869	
-0.391541	
-0.390991	
-0.390076	
-0.39093	
-0.390015	
-0.389954	
-0.390076	
-0.390442	
-0.391052	
-0.391174	
-0.391296	
-0.391602	
-0.391296	
-0.392212	
-0.392761	
-0.391113	
-0.391968	
-0.391663	
-0.391479	
-0.392273	
-0.393433	
-0.39325	
-0.39447	
-0.39447	
-0.394958	
-0.394836	
-0.395264	
-0.395813	
-0.395935	
-0.394287	
-0.395691	
-0.394592	
-0.394775	
-0.394775	
-0.394409	
-0.394409	
-0.394531	
-0.39386	
-0.393494	
-0.387146	
-0.382629	
-0.381653	
-0.380127	
-0.380615	
-0.380249	
-0.385864	
-0.391113	
-0.39209	
-0.392273	
-0.39093	
-0.391846	
-0.392212	
-0.392212	
-0.39209	
-0.392822	
-0.392883	
-0.392761	
-0.393188	
-0.391846	
-0.392517	
-0.392761	
-0.39209	
-0.393005	
-0.393372	
-0.393738	
-0.393677	
-0.393433	
-0.394592	
-0.394714	
-0.393188	
-0.393066	
-0.392273	
-0.392151	
-0.392944	
-0.39325	
-0.392273	
-0.391724	
-0.39325	
-0.39325	
-0.393555	
-0.394165	
-0.394592	
-0.394287	
-0.393799	
-0.39447	
-0.394043	
-0.394958	
-0.394897	
-0.394836	
-0.395508	
-0.396362	
-0.390503	
-0.386292	
-0.386902	
-0.388306	
-0.390808	
-0.390869	
-0.399719	
-0.40625	
-0.408325	
-0.412598	
-0.415283	
-0.417542	
-0.421204	
-0.425232	
-0.431702	
-0.436829	
-0.444153	
-0.451721	
-0.457031	
-0.464233	
-0.470459	
-0.477112	
-0.484619	
-0.491394	
-0.497375	
-0.502747	
-0.507629	
-0.511658	
-0.515198	
-0.519226	
-0.52301	
-0.524231	
-0.525574	
-0.527405	
-0.527222	
-0.527649	
-0.52771	
-0.527283	
-0.524597	
-0.523499	
-0.521851	
-0.520935	
-0.519653	
-0.519409	
-0.519226	
-0.52063	
-0.522827	
-0.525085	
-0.528137	
-0.531555	
-0.535645	
-0.538391	
-0.542297	
-0.544983	
-0.547607	
-0.549438	
-0.551636	
-0.550415	
-0.550171	
-0.549683	
-0.547546	
-0.545471	
-0.54303	
-0.53833	
-0.535339	
-0.530457	
-0.525635	
-0.519165	
-0.512939	
-0.507446	
-0.499878	
-0.492126	
-0.485474	
-0.476929	
-0.469849	
-0.463623	
-0.457092	
-0.450745	
-0.443787	
-0.438538	
-0.432739	
-0.426758	
-0.420898	
-0.415283	
-0.407715	
-0.401367	
-0.394531	
-0.387146	
-0.380981	
-0.374268	
-0.366272	
-0.360413	
-0.353699	
-0.347351	
-0.341187	
-0.335388	
-0.330078	
-0.324219	
-0.31842	
-0.314575	
-0.30896	
-0.305115	
-0.303162	
-0.300354	
-0.298828	
-0.296021	
-0.296021	
-0.296204	
-0.296021	
-0.296936	
-0.298645	
-0.298889	
-0.302917	
-0.303894	
-0.3078	
-0.311707	
-0.315491	
-0.321045	
-0.326782	
-0.331909	
-0.337646	
-0.343384	
-0.349976	
-0.353394	
-0.357849	
-0.362061	
-0.363586	
-0.368774	
-0.372437	
-0.375061	
-0.376648	
-0.379639	
-0.381775	
-0.383545	
-0.385742	
-0.388916	
-0.389893	
-0.39325	
-0.39624	
-0.398376	
-0.403076	
-0.406433	
-0.410339	
-0.414063	
-0.417847	
-0.420593	
-0.423523	
-0.426758	
-0.428894	
-0.429626	
-0.431274	
-0.431641	
-0.431702	
-0.432739	
-0.432739	
-0.43335	
-0.433655	
-0.433777	
-0.433655	
-0.433899	
-0.434937	
-0.436768	
-0.437683	
-0.437927	
-0.439697	
-0.44043	
-0.443298	
-0.443481	
-0.444336	
-0.444946	
-0.445496	
-0.445984	
-0.44519	
-0.444946	
-0.445435	
-0.442871	
-0.441101	
-0.437927	
-0.435425	
-0.434326	
-0.429993	
-0.427246	
-0.423584	
-0.418884	
-0.415833	
-0.411926	
-0.40741	
-0.404053	
-0.39801	
-0.392822	
-0.387878	
-0.381897	
-0.377502	
-0.37384	
-0.368652	
-0.365295	
-0.361084	
-0.357727	
-0.354431	
-0.351807	
-0.349854	
-0.347534	
-0.344849	
-0.343262	
-0.341492	
-0.340027	
-0.339844	
-0.336853	
-0.337463	
-0.336731	
-0.335999	
-0.336426	
-0.336548	
-0.336975	
-0.337952	
-0.337463	
-0.337463	
-0.33667	
-0.337341	
-0.339233	
-0.339294	
-0.339905	
-0.339783	
-0.340515	
-0.342163	
-0.343201	
-0.345398	
-0.346558	
-0.346619	
-0.347351	
-0.347168	
-0.350098	
-0.351807	
-0.352844	
-0.352966	
-0.354492	
-0.355042	
-0.357361	
-0.358521	
-0.360229	
-0.361511	
-0.361694	
-0.362122	
-0.36322	
-0.36322	
-0.364197	
-0.365234	
-0.366455	
-0.366699	
-0.36615	
-0.368286	
-0.368286	
-0.369751	
-0.37085	
-0.371399	
-0.371155	
-0.371582	
-0.371887	
-0.373718	
-0.374512	
-0.374634	
-0.375061	
-0.375427	
-0.375977	
-0.375671	
-0.377563	
-0.378479	
-0.378174	
-0.378052	
-0.378723	
-0.378784	
-0.380798	
-0.380859	
-0.381592	
-0.381165	
-0.381409	
-0.383362	
-0.383728	
-0.384949	
-0.385864	
-0.386353	
-0.385559	
-0.386047	
-0.385559	
-0.387695	
-0.387146	
-0.387207	
-0.387573	
-0.387268	
-0.387634	
-0.387756	
-0.388916	
-0.388794	
-0.388611	
-0.387878	
-0.38739	
-0.386963	
-0.388977	
-0.387878	
-0.387817	
-0.387085	
-0.386719	
-0.387817	
-0.388062	
-0.388489	
-0.388489	
-0.388489	
-0.387146	
-0.386047	
-0.386536	
-0.387573	
-0.388306	
-0.38855	
-0.388489	
-0.388245	
-0.389282	
-0.389832	
-0.390137	
-0.39093	
-0.390259	
-0.39032	
-0.389526	
-0.389099	
-0.390076	
-0.391052	
-0.391296	
-0.390808	
-0.391052	
-0.390686	
-0.390869	
-0.391296	
-0.391785	
-0.391541	
-0.391602	
-0.390808	
-0.391052	
-0.390625	
-0.391113	
-0.391174	
-0.392334	
-0.391418	
-0.392212	
-0.392761	
-0.393982	
-0.393799	
-0.393799	
-0.393433	
-0.392151	
-0.392883	
-0.393799	
-0.394592	
-0.395081	
-0.395142	
-0.395386	
-0.395752	
-0.395813	
-0.397339	
-0.396484	
-0.395569	
-0.39502	
-0.395142	
-0.396179	
-0.396179	
-0.396606	
-0.396423	
-0.39563	
-0.396118	
-0.396179	
-0.396423	
-0.396362	
-0.395508	
-0.395081	
-0.393372	
-0.394165	
-0.394165	
-0.393982	
-0.393921	
-0.393921	
-0.392883	
-0.393799	
-0.393982	
-0.394409	
-0.39386	
-0.393616	
-0.391907	
-0.391357	
-0.391602	
-0.391541	
-0.391846	
-0.391907	
-0.391846	
-0.391296	
-0.392212	
-0.392151	
-0.392822	
-0.393188	
-0.392761	
-0.391479	
-0.390991	
-0.390747	
-0.390869	
-0.390686	
-0.390625	
-0.389954	
-0.389465	
-0.390198	
-0.390442	
-0.390564	
-0.390625	
-0.389893	
-0.388916	
-0.38855	
-0.387878	
-0.388245	
-0.388794	
-0.38855	
-0.388672	
-0.387634	
-0.387695	
-0.388306	
-0.389282	
-0.389954	
-0.389648	
-0.38916	
-0.388428	
-0.388672	
-0.389709	
-0.390747	
-0.390503	
-0.390442	
-0.391113	
-0.39093	
-0.391235	
-0.392395	
-0.391968	
-0.392944	
-0.392395	
-0.390686	
-0.39209	
-0.391541	
-0.391479	
-0.392151	
-0.392517	
-0.392883	
-0.392456	
-0.392456	
-0.392456	
-0.391907	
-0.393127	
-0.392151	
-0.391418	
-0.391418	
-0.390076	
-0.391174	
-0.392456	
-0.390869	
-0.391235	
-0.390808	
-0.390015	
-0.390686	
-0.390503	
-0.391235	
-0.390625	
-0.390137	
-0.390076	
-0.389526	
-0.389343	
-0.389954	
-0.389771	
-0.389526	
-0.389648	
-0.389465	
-0.389465	
-0.390198	
-0.390015	
-0.389771	
-0.38916	
-0.388916	
-0.388855	
-0.388916	
-0.389282	
-0.390076	
-0.389832	
-0.390259	
-0.390076	
-0.389343	
-0.391541	
-0.392334	
-0.391785	
-0.391235	
-0.391663	
-0.391296	
-0.392151	
-0.392761	
-0.393188	
-0.392212	
-0.392517	
-0.392212	
-0.391357	
-0.392578	
-0.393066	
-0.392822	
-0.392578	
-0.392273	
-0.391785	
-0.391968	
-0.392151	
-0.392029	
-0.391541	
-0.391357	
-0.391724	
-0.391296	
-0.391785	
-0.391479	
-0.391785	
-0.391357	
-0.390625	
-0.390381	
-0.390198	
-0.390442	
-0.390381	
-0.390442	
-0.39032	
-0.39032	
-0.389893	
-0.390442	
-0.39032	
-0.390869	
-0.389893	
-0.388306	
-0.389099	
-0.388794	
-0.388672	
-0.389526	
-0.389832	
-0.389099	
-0.38916	
-0.388977	
-0.388489	
-0.388733	
-0.389954	
-0.389648	
-0.387634	
-0.387634	
-0.387085	
-0.387695	
-0.388794	
-0.388611	
-0.388733	
-0.388367	
-0.388489	
-0.388062	
-0.388184	
-0.389099	
-0.389221	
-0.388062	
-0.388184	
-0.387085	
-0.387756	
-0.38855	
-0.388794	
-0.388916	
-0.388672	
-0.38916	
-0.388733	
-0.387756	
-0.388855	
-0.389404	
-0.38855	
-0.387146	
-0.387939	
-0.387451	
-0.38855	
-0.388977	
-0.389221	
-0.388855	
-0.388611	
-0.388672	
-0.389404	
-0.388916	
-0.389771	
-0.389709	
-0.388184	
-0.388428	
-0.388428	
-0.387695	
-0.389343	
-0.389526	
-0.390076	
-0.38916	
-0.389221	
-0.390015	
-0.390259	
-0.390869	
-0.391235	
-0.390381	
-0.390686	
-0.391357	
-0.391968	
-0.392456	
-0.3927	
-0.393738	
-0.393127	
-0.392761	
-0.393127	
-0.392395	
-0.394409	
-0.394104	
-0.392883	
-0.392578	
-0.391663	
-0.392151	
-0.392761	
-0.39209	
-0.391968	
-0.391479	
-0.391663	
-0.390869	
-0.39032	
-0.391113	
-0.391235	
-0.390991	
-0.389954	
-0.388733	
-0.389099	
-0.38916	
-0.389771	
-0.390259	
-0.390198	
-0.390198	
-0.389893	
-0.390503	
-0.389404	
-0.390747	
-0.391174	
-0.389465	
-0.390381	
-0.390503	
-0.390808	
-0.391235	
-0.391418	
-0.392029	
-0.391296	
-0.391174	
-0.391907	
-0.391235	
-0.392456	
-0.390991	
-0.390198	
-0.39093	
-0.389893	
-0.390686	
-0.390442	
-0.390625	
-0.390991	
-0.392029	
-0.391479	
-0.391357	
-0.391052	
-0.39093	
-0.3927	
-0.39209	
-0.391235	
-0.391052	
-0.391724	
-0.391418	
-0.391113	
-0.392639	
-0.392883	
-0.392334	
-0.393311	
-0.393921	
-0.393311	
-0.394653	
-0.393555	
-0.3927	
-0.392273	
-0.391113	
-0.392761	
-0.392944	
-0.392456	
-0.392578	
-0.393005	
-0.392029	
-0.392578	
-0.391602	
-0.392883	
-0.391113	
-0.391785	
-0.391235	
-0.389648	
-0.390991	
-0.390503	
-0.391357	
-0.390869	
-0.391357	
-0.390869	
-0.391418	
-0.391541	
-0.391968	
-0.391235	
-0.391663	
-0.391052	
-0.390198	
-0.391541	
-0.391113	
-0.390686	
-0.391235	
-0.391907	
-0.391602	
-0.391479	
-0.39325	
-0.392456	
-0.392151	
-0.391968	
-0.391602	
-0.391235	
-0.391541	
-0.39209	
-0.391663	
-0.391724	
-0.391968	
-0.392517	
-0.391052	
-0.390564	
-0.391052	
-0.391296	
-0.390503	
-0.390991	
-0.390503	
-0.388855	
-0.390625	
-0.389771	
-0.390991	
-0.390625	
-0.391296	
-0.391357	
-0.391602	
-0.391724	
-0.393005	
-0.391541	
-0.39209	
-0.391785	
-0.391663	
-0.392517	
-0.392334	
-0.393433	
-0.393066	
-0.393433	
-0.393738	
-0.393433	
-0.394714	
-0.394043	
-0.392944	
-0.393494	
-0.393433	
-0.392639	
-0.393005	
-0.392395	
-0.391174	
-0.392029	
-0.392273	
-0.392639	
-0.391296	
-0.391418	
-0.392212	
-0.391418	
-0.391418	
-0.391296	
-0.390503	
-0.390503	
-0.391296	
-0.390808	
-0.392212	
-0.391968	
-0.392761	
-0.391907	
-0.391846	
-0.392761	
-0.393738	
-0.392212	
-0.392456	
-0.391602	
-0.389954	
-0.391846	
-0.392151	
-0.392212	
-0.392639	
-0.392944	
-0.393372	
-0.393066	
-0.39325	
-0.394104	
-0.392761	
-0.393311	
-0.393494	
-0.393066	
-0.393616	
-0.394653	
-0.39325	
-0.394043	
-0.39447	
-0.394897	
-0.394165	
-0.394287	
-0.394653	
-0.39386	
-0.394104	
-0.394165	
-0.393921	
-0.392639	
-0.394592	
-0.39447	
-0.395203	
-0.394958	
-0.395325	
-0.394714	
-0.393982	
-0.395081	
-0.394775	
-0.3927	
-0.392578	
-0.391846	
-0.391296	
-0.391785	
-0.391785	
-0.391296	
-0.392395	
-0.392456	
-0.3927	
-0.391968	
-0.392761	
-0.392639	
-0.391479	
-0.391968	
-0.391785	
-0.391846	
-0.391785	
-0.3927	
-0.391541	
-0.392761	
-0.392944	
-0.393433	
-0.392761	
-0.392761	
-0.393311	
-0.394836	
-0.393127	
-0.393799	
-0.393738	
-0.392517	
-0.39386	
-0.394043	
-0.393738	
-0.394714	
-0.394714	
-0.395508	
-0.394653	
-0.395752	
-0.395691	
-0.394653	
-0.394836	
-0.394653	
-0.394836	
-0.395264	
-0.395386	
-0.394226	
-0.395935	
-0.395447	
-0.396362	
-0.396301	
-0.396729	
-0.396301	
-0.3974	
-0.39624	
-0.396606	
-0.396301	
-0.394836	
-0.396545	
-0.396362	
-0.397095	
-0.3974	
-0.396851	
-0.397278	
-0.39679	
-0.397339	
-0.397888	
-0.395386	
-0.396729	
-0.396912	
-0.395935	
-0.396057	
-0.396118	
-0.395874	
-0.396606	
-0.396301	
-0.396851	
-0.396118	
-0.397705	
-0.396973	
-0.397095	
-0.396423	
-0.395691	
-0.395935	
-0.395325	
-0.395996	
-0.395264	
-0.396423	
-0.395874	
-0.396362	
-0.39679	
-0.396179	
-0.396545	
-0.397278	
-0.395996	
-0.396057	
-0.396179	
-0.39563	
-0.395813	
-0.39563	
-0.395264	
-0.395447	
-0.39563	
-0.395996	
-0.395569	
-0.396057	
-0.396301	
-0.395813	
-0.395081	
-0.394531	
-0.392822	
-0.391602	
-0.392883	
-0.391785	
-0.392273	
-0.392334	
-0.392334	
-0.392273	
-0.392944	
-0.392273	
-0.393372	
-0.391907	
-0.392273	
-0.392395	
-0.391541	
-0.392944	
-0.393066	
-0.39386	
-0.394592	
-0.394104	
-0.395508	
-0.395081	
-0.395447	
-0.394958	
-0.394409	
-0.395142	
-0.395386	
-0.394897	
-0.394104	
-0.395142	
-0.393982	
-0.395203	
-0.395325	
-0.395203	
-0.395325	
-0.395447	
-0.394775	
-0.395996	
-0.394348	
-0.394348	
-0.393921	
-0.39209	
-0.393921	
-0.392639	
-0.393066	
-0.393982	
-0.393799	
-0.393982	
-0.393799	
-0.394409	
-0.394165	
-0.394531	
-0.394043	
-0.39325	
-0.393616	
-0.394165	
-0.394714	
-0.394287	
-0.394226	
-0.394592	
-0.395386	
-0.394348	
-0.394531	
-0.394226	
-0.394775	
-0.393555	
-0.39386	
-0.393127	
-0.391174	
-0.393188	
-0.391968	
-0.393127	
-0.392456	
-0.392456	
-0.392395	
-0.392517	
-0.392639	
-0.393311	
-0.3927	
-0.393188	
-0.392151	
-0.391907	
-0.39209	
-0.391479	
-0.393188	
-0.393372	
-0.392944	
-0.393921	
-0.393677	
-0.394226	
-0.393127	
-0.393738	
-0.394043	
-0.392761	
-0.393616	
-0.391602	
-0.393494	
-0.394165	
-0.394287	
-0.39386	
-0.394104	
-0.39386	
-0.394226	
-0.393738	
-0.394897	
-0.393677	
-0.393311	
-0.393799	
-0.392944	
-0.393616	
-0.393311	
-0.393066	
-0.393005	
-0.393066	
-0.393799	
-0.393372	
-0.394165	
-0.393677	
-0.395325	
-0.393982	
-0.392944	
-0.39325	
-0.392151	
-0.392212	
-0.393066	
-0.393311	
-0.393372	
-0.394043	
-0.393982	
-0.394592	
-0.393921	
-0.395081	
-0.394409	
-0.392883	
-0.393433	
-0.391357	
-0.392944	
-0.394348	
-0.393127	
-0.392944	
-0.393311	
-0.39386	
-0.393066	
-0.392944	
-0.39325	
-0.392578	
-0.391846	
-0.392273	
-0.390991	
-0.391479	
-0.391541	
-0.391174	
-0.39093	
-0.39093	
-0.391174	
-0.390991	
-0.391602	
-0.391357	
-0.392639	
-0.391174	
-0.390137	
-0.391296	
-0.38916	
-0.390442	
-0.392212	
-0.391907	
-0.392517	
-0.392273	
-0.393555	
-0.393494	
-0.393127	
-0.394104	
-0.3927	
-0.392639	
-0.393005	
-0.392883	
-0.393372	
-0.39325	
-0.392578	
-0.393555	
-0.393677	
-0.393372	
-0.393005	
-0.392822	
-0.393005	
-0.393555	
-0.391907	
-0.392517	
-0.391907	
-0.391479	
-0.391907	
-0.391174	
-0.390991	
-0.391296	
-0.391724	
-0.391724	
-0.391663	
-0.391113	
-0.391663	
-0.390198	
-0.38916	
-0.390015	
-0.388367	
-0.388855	
-0.390137	
-0.389648	
-0.389526	
-0.390259	
-0.390198	
-0.390686	
-0.389709	
-0.390259	
-0.390991	
-0.389099	
-0.389221	
-0.38855	
-0.388794	
-0.388855	
-0.389343	
-0.389099	
-0.389648	
-0.390015	
-0.391724	
-0.391785	
-0.391846	
-0.393372	
-0.390686	
-0.391357	
-0.391113	
-0.389282	
-0.391907	
-0.391724	
-0.391846	
-0.39209	
-0.39209	
-0.392273	
-0.393372	
-0.392456	
-0.3927	
-0.392212	
-0.390503	
-0.391235	
-0.390747	
-0.390747	
-0.390808	
-0.390869	
-0.391113	
-0.391541	
-0.390686	
-0.391785	
-0.390259	
-0.390686	
-0.391541	
-0.389465	
-0.389343	
-0.389282	
-0.389099	
-0.389404	
-0.389221	
-0.389099	
-0.389404	
-0.389343	
-0.389404	
-0.389832	
-0.388794	
-0.390625	
-0.388733	
-0.386963	
-0.387939	
-0.385681	
-0.388306	
-0.387634	
-0.388062	
-0.387634	
-0.387939	
-0.388062	
-0.388672	
-0.387573	
-0.388062	
-0.387939	
-0.386353	
-0.387329	
-0.387085	
-0.38623	
-0.387268	
-0.387695	
-0.387817	
-0.387573	
-0.387268	
-0.388245	
-0.388367	
-0.387939	
-0.389832	
-0.386841	
-0.387207	
-0.387634	
-0.38501	
-0.387207	
-0.387817	
-0.388123	
-0.387573	
-0.387207	
-0.387695	
-0.388672	
-0.387451	
-0.388611	
-0.387573	
-0.385559	
-0.387268	
-0.386963	
-0.387939	
-0.387085	
-0.387756	
-0.387634	
-0.387512	
-0.387634	
-0.388306	
-0.388428	
-0.388855	
-0.389526	
-0.387024	
-0.387634	
-0.387756	
-0.386414	
-0.388489	
-0.388794	
-0.388245	
-0.388428	
-0.38855	
-0.388733	
-0.389771	
-0.389526	
-0.391602	
-0.390686	
-0.390747	
-0.390564	
-0.388916	
-0.391602	
-0.391785	
-0.392273	
-0.391846	
-0.391785	
-0.392151	
-0.393188	
-0.392517	
-0.392639	
-0.393066	
-0.391052	
-0.391052	
-0.391174	
-0.39032	
-0.389893	
-0.390076	
-0.389954	
-0.389771	
-0.389099	
-0.389648	
-0.389526	
-0.390198	
-0.390381	
-0.388428	
-0.388245	
-0.388367	
-0.386536	
-0.388489	
-0.388489	
-0.388977	
-0.388977	
-0.38916	
-0.388916	
-0.389771	
-0.390442	
-0.390381	
-0.390259	
-0.388733	
-0.389648	
-0.389771	
-0.389893	
-0.390015	
-0.390076	
-0.390503	
-0.390442	
-0.390503	
-0.390808	
-0.390503	
-0.390503	
-0.391602	
-0.388672	
-0.389099	
-0.389648	
-0.387817	
-0.389709	
-0.390015	
-0.390259	
-0.390503	
-0.390259	
-0.39093	
-0.39093	
-0.391357	
-0.391541	
-0.391296	
-0.39093	
-0.389832	
-0.389709	
-0.390686	
-0.391785	
-0.391846	
-0.391479	
-0.392212	
-0.39209	
-0.392761	
-0.39325	
-0.3927	
-0.39325	
-0.391663	
-0.391296	
-0.390625	
-0.390686	
-0.391479	
-0.391296	
-0.391907	
-0.390869	
-0.39093	
-0.391907	
-0.39093	
-0.391113	
-0.391846	
-0.390564	
-0.389954	
-0.389404	
-0.388489	
-0.388611	
-0.390015	
-0.390198	
-0.390015	
-0.389771	
-0.390076	
-0.390503	
-0.390991	
-0.391479	
-0.390686	
-0.390076	
-0.390076	
-0.390015	
-0.390808	
-0.390747	
-0.391541	
-0.391235	
-0.391113	
-0.391357	
-0.39209	
-0.391113	
-0.391602	
-0.392639	
-0.390808	
-0.390747	
-0.390808	
-0.390137	
-0.390137	
-0.390686	
-0.390808	
-0.390137	
-0.390442	
-0.390869	
-0.390137	
-0.390869	
-0.391113	
-0.390381	
-0.39032	
-0.388611	
-0.388489	
-0.389832	
-0.390503	
-0.390564	
-0.390381	
-0.390625	
-0.391113	
-0.392273	
-0.391357	
-0.391846	
-0.392395	
-0.392517	
-0.391724	
-0.391357	
-0.391846	
-0.391968	
-0.3927	
-0.393005	
-0.392517	
-0.39325	
-0.39325	
-0.393738	
-0.393127	
-0.394043	
-0.392761	
-0.391663	
-0.390625	
-0.389404	
-0.390442	
-0.391541	
-0.391479	
-0.391174	
-0.390747	
-0.390686	
-0.391296	
-0.391541	
-0.391296	
-0.390808	
-0.390808	
-0.390381	
-0.39093	
-0.391785	
-0.391785	
-0.391479	
-0.391724	
-0.391663	
-0.391602	
-0.391968	
-0.39209	
-0.392212	
-0.394348	
-0.392517	
-0.391846	
-0.391785	
-0.390747	
-0.391541	
-0.392639	
-0.3927	
-0.393005	
-0.39325	
-0.393005	
-0.393921	
-0.393494	
-0.394104	
-0.393433	
-0.392151	
-0.391846	
-0.392334	
-0.393555	
-0.394897	
-0.393982	
-0.394348	
-0.394226	
-0.394226	
-0.39447	
-0.394775	
-0.394592	
-0.395569	
-0.394287	
-0.393982	
-0.393616	
-0.393555	
-0.394348	
-0.394348	
-0.39447	
-0.393921	
-0.393616	
-0.393127	
-0.394165	
-0.392822	
-0.393799	
-0.393066	
-0.390747	
-0.392151	
-0.390808	
-0.390381	
-0.391541	
-0.391724	
-0.392029	
-0.391907	
-0.391968	
-0.392456	
-0.3927	
-0.392822	
-0.393494	
-0.391602	
-0.391296	
-0.392212	
-0.392029	
-0.39325	
-0.392883	
-0.393311	
-0.393311	
-0.393738	
-0.393799	
-0.394836	
-0.393982	
-0.395752	
-0.395203	
-0.393066	
-0.394043	
-0.393494	
-0.393372	
-0.394775	
-0.394592	
-0.395264	
-0.395142	
-0.395508	
-0.396057	
-0.395752	
-0.395752	
-0.396484	
-0.395325	
-0.394653	
-0.395447	
-0.395386	
-0.396606	
-0.39624	
-0.39624	
-0.396484	
-0.396973	
-0.396729	
-0.397827	
-0.396973	
-0.398193	
-0.398743	
-0.39624	
-0.396667	
-0.396484	
-0.396729	
-0.397522	
-0.397217	
-0.397217	
-0.397095	
-0.397278	
-0.397705	
-0.397888	
-0.39801	
-0.397766	
-0.395996	
-0.395203	
-0.395752	
-0.39563	
-0.396057	
-0.396606	
-0.397095	
-0.397095	
-0.396912	
-0.3974	
-0.398193	
-0.397766	
-0.397705	
-0.397217	
-0.396606	
-0.396729	
-0.396545	
-0.39563	
-0.397156	
-0.39679	
-0.396973	
-0.396729	
-0.396667	
-0.397095	
-0.397095	
-0.397827	
-0.397339	
-0.395203	
-0.395264	
-0.396118	
-0.395325	
-0.396484	
-0.396362	
-0.39624	
-0.395813	
-0.396118	
-0.395935	
-0.395691	
-0.394775	
-0.395142	
-0.39447	
-0.393616	
-0.392578	
-0.391968	
-0.392212	
-0.392944	
-0.392395	
-0.392822	
-0.393005	
-0.393188	
-0.394592	
-0.393311	
-0.394104	
-0.394409	
-0.392944	
-0.393372	
-0.394165	
-0.393616	
-0.395447	
-0.395508	
-0.396179	
-0.395691	
-0.396118	
-0.396423	
-0.396851	
-0.396057	
-0.396912	
-0.396606	
-0.396057	
-0.396545	
-0.394531	
-0.395386	
-0.396179	
-0.396179	
-0.395935	
-0.39563	
-0.395691	
-0.395996	
-0.395264	
-0.396118	
-0.39563	
-0.394592	
-0.394775	
-0.394531	
-0.393311	
-0.393921	
-0.395081	
-0.395081	
-0.394897	
-0.395081	
-0.396667	
-0.396423	
-0.395325	
-0.395874	
-0.39502	
-0.394836	
-0.39502	
-0.394897	
-0.394531	
-0.39502	
-0.395508	
-0.395386	
-0.39502	
-0.39563	
-0.395691	
-0.394531	
-0.39563	
-0.395142	
-0.393677	
-0.393555	
-0.393066	
-0.393127	
-0.394043	
-0.393677	
-0.393921	
-0.393799	
-0.393555	
-0.394592	
-0.394165	
-0.394165	
-0.395264	
-0.393127	
-0.393311	
-0.393799	
-0.391663	
-0.394409	
-0.394958	
-0.394287	
-0.394165	
-0.394775	
-0.394897	
-0.395996	
-0.394653	
-0.396057	
-0.395813	
-0.395386	
-0.395508	
-0.394653	
-0.394653	
-0.395569	
-0.395508	
-0.395081	
-0.394836	
-0.395142	
-0.39563	
-0.396057	
-0.395386	
-0.396057	
-0.394653	
-0.393738	
-0.394287	
-0.392578	
-0.394714	
-0.394592	
-0.39502	
-0.395203	
-0.395142	
-0.395752	
-0.395142	
-0.394897	
-0.395752	
-0.393921	
-0.394592	
-0.394714	
-0.393982	
-0.394958	
-0.395386	
-0.395264	
-0.395325	
-0.395691	
-0.396118	
-0.39563	
-0.395935	
-0.395752	
-0.397217	
-0.394775	
-0.393738	
-0.394531	
-0.393677	
-0.394836	
-0.39447	
-0.394409	
-0.394287	
-0.394531	
-0.394714	
-0.393616	
-0.393799	
-0.394592	
-0.392029	
-0.392151	
-0.392456	
-0.390869	
	
