E:\DOCUMENTS AND SETTINGS\JPOTAS\MEUS DOCUMENTOS\UFRJ\RSCI-BM 12 WK SERIES\070731-RSCI-BM-12\RSCI-BM-12-LEMG\070731-RSCI-BM-12-LEMG-0016.ACQ
0.025000 msec/sample
1 channel
Analog input
Volts
CH1	
2000	
-0.396545	
-0.397339	
-0.396667	
-0.396851	
-0.396912	
-0.397278	
-0.398499	
-0.397888	
-0.398071	
-0.398193	
-0.397827	
-0.399292	
-0.398987	
-0.399292	
-0.39978	
-0.399292	
-0.399048	
-0.399048	
-0.398682	
-0.399658	
-0.398682	
-0.398621	
-0.39856	
-0.396545	
-0.397949	
-0.397705	
-0.397949	
-0.397827	
-0.39679	
-0.396484	
-0.396973	
-0.396362	
-0.398315	
-0.396973	
-0.397522	
-0.397766	
-0.396301	
-0.397156	
-0.397644	
-0.397278	
-0.398132	
-0.397034	
-0.396423	
-0.396912	
-0.396667	
-0.398438	
-0.397339	
-0.397766	
-0.398376	
-0.397278	
-0.398438	
-0.398071	
-0.397339	
-0.398743	
-0.398621	
-0.398254	
-0.397766	
-0.397827	
-0.399048	
-0.397827	
-0.3974	
-0.397583	
-0.396912	
-0.39679	
-0.397156	
-0.397095	
-0.397156	
-0.396423	
-0.396423	
-0.396057	
-0.396301	
-0.397339	
-0.396729	
-0.396912	
-0.396851	
-0.396973	
-0.396667	
-0.397095	
-0.397949	
-0.397888	
-0.397034	
-0.397095	
-0.396179	
-0.397034	
-0.398132	
-0.397034	
-0.3974	
-0.39801	
-0.3974	
-0.397461	
-0.397156	
-0.39679	
-0.397095	
-0.396179	
-0.395813	
-0.394653	
-0.395081	
-0.395691	
-0.395386	
-0.394409	
-0.39386	
-0.393799	
-0.39386	
-0.393311	
-0.394043	
-0.394409	
-0.39386	
-0.393127	
-0.392212	
-0.393616	
-0.394165	
-0.394775	
-0.393982	
-0.394531	
-0.393982	
-0.394775	
-0.395447	
-0.39679	
-0.396729	
-0.397095	
-0.396667	
-0.395752	
-0.3974	
-0.397522	
-0.398315	
-0.397278	
-0.397278	
-0.397156	
-0.396362	
-0.397522	
-0.39801	
-0.398132	
-0.398621	
-0.397705	
-0.3974	
-0.397888	
-0.398987	
-0.398743	
-0.398132	
-0.398071	
-0.399048	
-0.397705	
-0.398499	
-0.398926	
-0.398743	
-0.399292	
-0.398132	
-0.397522	
-0.398376	
-0.399414	
-0.399109	
-0.398804	
-0.398071	
-0.398376	
-0.396973	
-0.398254	
-0.398376	
-0.397522	
-0.397461	
-0.396912	
-0.396118	
-0.396851	
-0.396545	
-0.396362	
-0.395203	
-0.395874	
-0.39563	
-0.394287	
-0.394104	
-0.39447	
-0.393616	
-0.394287	
-0.393677	
-0.393494	
-0.394226	
-0.394226	
-0.395081	
-0.393982	
-0.394348	
-0.394958	
-0.394165	
-0.394592	
-0.395081	
-0.39386	
-0.395569	
-0.394714	
-0.393555	
-0.395081	
-0.396057	
-0.396423	
-0.39563	
-0.395264	
-0.396179	
-0.394775	
-0.395874	
-0.396179	
-0.394592	
-0.389526	
-0.382874	
-0.381104	
-0.382141	
-0.382446	
-0.382874	
-0.389404	
-0.394104	
-0.394592	
-0.393982	
-0.394348	
-0.394592	
-0.392822	
-0.394104	
-0.39325	
-0.391907	
-0.39325	
-0.392883	
-0.393066	
-0.392456	
-0.392395	
-0.393127	
-0.391724	
-0.392151	
-0.392822	
-0.391479	
-0.392822	
-0.392029	
-0.391724	
-0.392395	
-0.39325	
-0.393127	
-0.3927	
-0.392639	
-0.393555	
-0.392456	
-0.392578	
-0.393311	
-0.391846	
-0.393188	
-0.392395	
-0.391663	
-0.39209	
-0.392273	
-0.392761	
-0.393127	
-0.392822	
-0.393433	
-0.393372	
-0.394226	
-0.395264	
-0.393921	
-0.396057	
-0.395447	
-0.395325	
-0.396729	
-0.397766	
-0.399658	
-0.401367	
-0.403137	
-0.40625	
-0.40863	
-0.412537	
-0.415833	
-0.419128	
-0.423279	
-0.428223	
-0.434448	
-0.441101	
-0.447021	
-0.455017	
-0.462219	
-0.470032	
-0.477844	
-0.485535	
-0.493164	
-0.498657	
-0.505859	
-0.510559	
-0.514771	
-0.520142	
-0.523865	
-0.527771	
-0.530945	
-0.533813	
-0.536255	
-0.537231	
-0.53894	
-0.540161	
-0.538147	
-0.538635	
-0.536255	
-0.534058	
-0.531921	
-0.530579	
-0.529358	
-0.528259	
-0.528259	
-0.529419	
-0.52948	
-0.532288	
-0.534546	
-0.538208	
-0.540894	
-0.543213	
-0.546265	
-0.54895	
-0.551575	
-0.553284	
-0.552063	
-0.55249	
-0.552734	
-0.550171	
-0.549866	
-0.547424	
-0.544434	
-0.540894	
-0.535339	
-0.531738	
-0.526184	
-0.519897	
-0.513794	
-0.505981	
-0.499146	
-0.492249	
-0.484863	
-0.478455	
-0.470459	
-0.464294	
-0.457458	
-0.450256	
-0.444336	
-0.437378	
-0.430725	
-0.424377	
-0.416931	
-0.409485	
-0.402832	
-0.393433	
-0.386841	
-0.378113	
-0.369995	
-0.36261	
-0.353516	
-0.345337	
-0.338135	
-0.330017	
-0.324097	
-0.315735	
-0.308716	
-0.303223	
-0.295349	
-0.291077	
-0.285767	
-0.281494	
-0.278992	
-0.274658	
-0.271973	
-0.270081	
-0.267761	
-0.268066	
-0.266357	
-0.266296	
-0.267151	
-0.268616	
-0.270447	
-0.271423	
-0.273682	
-0.276611	
-0.279846	
-0.283325	
-0.288147	
-0.293274	
-0.297607	
-0.302246	
-0.307129	
-0.310425	
-0.315857	
-0.319092	
-0.322632	
-0.325745	
-0.326904	
-0.330261	
-0.333008	
-0.333801	
-0.335266	
-0.336609	
-0.338196	
-0.338623	
-0.34137	
-0.341797	
-0.342896	
-0.346008	
-0.345398	
-0.347656	
-0.349548	
-0.350891	
-0.353088	
-0.353638	
-0.354492	
-0.356201	
-0.357361	
-0.358337	
-0.358459	
-0.359985	
-0.360535	
-0.361389	
-0.362366	
-0.363037	
-0.364075	
-0.364014	
-0.364563	
-0.365173	
-0.365906	
-0.366089	
-0.366516	
-0.366882	
-0.367615	
-0.367615	
-0.367798	
-0.368652	
-0.368408	
-0.368347	
-0.368835	
-0.368835	
-0.369141	
-0.371277	
-0.370728	
-0.371399	
-0.372131	
-0.372314	
-0.373047	
-0.37384	
-0.373657	
-0.375122	
-0.375244	
-0.375732	
-0.376404	
-0.376953	
-0.376831	
-0.376343	
-0.377258	
-0.377563	
-0.378174	
-0.378357	
-0.378357	
-0.378113	
-0.377991	
-0.37854	
-0.37793	
-0.377136	
-0.377686	
-0.377075	
-0.376892	
-0.376587	
-0.376343	
-0.376709	
-0.376587	
-0.375977	
-0.376831	
-0.376343	
-0.376099	
-0.376099	
-0.375427	
-0.37616	
-0.375305	
-0.376099	
-0.375671	
-0.375793	
-0.375977	
-0.376648	
-0.375854	
-0.376892	
-0.376831	
-0.376221	
-0.376587	
-0.377136	
-0.376709	
-0.37616	
-0.376648	
-0.374023	
-0.365173	
-0.364502	
-0.36554	
-0.366516	
-0.365662	
-0.372314	
-0.377563	
-0.378296	
-0.379639	
-0.378906	
-0.379211	
-0.37915	
-0.379395	
-0.379639	
-0.380371	
-0.379272	
-0.380493	
-0.381592	
-0.381287	
-0.381104	
-0.382019	
-0.381714	
-0.382263	
-0.383057	
-0.383545	
-0.383667	
-0.384277	
-0.382385	
-0.384094	
-0.384216	
-0.382874	
-0.383972	
-0.385254	
-0.38385	
-0.384766	
-0.384277	
-0.384033	
-0.384277	
-0.38446	
-0.38446	
-0.385864	
-0.384888	
-0.384644	
-0.384033	
-0.384155	
-0.383972	
-0.385132	
-0.385376	
-0.385864	
-0.385742	
-0.38623	
-0.387573	
-0.386719	
-0.388062	
-0.39032	
-0.390747	
-0.392822	
-0.395996	
-0.398621	
-0.402039	
-0.40564	
-0.408081	
-0.413086	
-0.418152	
-0.422791	
-0.429077	
-0.435486	
-0.441101	
-0.448975	
-0.457275	
-0.464905	
-0.472778	
-0.480713	
-0.488159	
-0.495117	
-0.501099	
-0.506897	
-0.512695	
-0.517334	
-0.519958	
-0.523499	
-0.525146	
-0.528015	
-0.529053	
-0.529297	
-0.529968	
-0.527222	
-0.526978	
-0.525452	
-0.521545	
-0.522034	
-0.520142	
-0.51886	
-0.519958	
-0.522156	
-0.525085	
-0.527222	
-0.530334	
-0.534363	
-0.536072	
-0.538025	
-0.540527	
-0.542542	
-0.544556	
-0.545044	
-0.54657	
-0.546448	
-0.544983	
-0.544739	
-0.542236	
-0.538147	
-0.533752	
-0.53009	
-0.524658	
-0.517883	
-0.512207	
-0.505066	
-0.496582	
-0.489746	
-0.481506	
-0.47522	
-0.467346	
-0.460693	
-0.453857	
-0.445374	
-0.438782	
-0.432129	
-0.423523	
-0.418274	
-0.410217	
-0.400696	
-0.393738	
-0.384155	
-0.376587	
-0.367981	
-0.359497	
-0.35199	
-0.342834	
-0.33551	
-0.32843	
-0.31958	
-0.31488	
-0.308655	
-0.301086	
-0.296082	
-0.290588	
-0.286011	
-0.282898	
-0.280396	
-0.277771	
-0.273682	
-0.272888	
-0.272339	
-0.27063	
-0.270996	
-0.270447	
-0.269836	
-0.271057	
-0.271912	
-0.275085	
-0.277527	
-0.281189	
-0.283875	
-0.288147	
-0.292053	
-0.296265	
-0.301331	
-0.305603	
-0.308044	
-0.312683	
-0.314636	
-0.31958	
-0.320557	
-0.323669	
-0.325378	
-0.328247	
-0.330688	
-0.333008	
-0.335083	
-0.337585	
-0.338379	
-0.339661	
-0.340698	
-0.343811	
-0.346375	
-0.347839	
-0.349426	
-0.350159	
-0.352905	
-0.355286	
-0.356445	
-0.356934	
-0.35791	
-0.358826	
-0.359924	
-0.362	
-0.363464	
-0.364502	
-0.366516	
-0.366882	
-0.368652	
-0.369629	
-0.3703	
-0.371643	
-0.372375	
-0.371948	
-0.372009	
-0.372803	
-0.372925	
-0.37439	
-0.375	
-0.374268	
-0.373901	
-0.374329	
-0.374939	
-0.376404	
-0.376343	
-0.376038	
-0.376343	
-0.37616	
-0.377075	
-0.377686	
-0.378174	
-0.378418	
-0.378113	
-0.378357	
-0.378967	
-0.379944	
-0.380371	
-0.380066	
-0.379517	
-0.378967	
-0.380981	
-0.38092	
-0.381104	
-0.382324	
-0.380371	
-0.381653	
-0.382141	
-0.383118	
-0.382629	
-0.383301	
-0.383301	
-0.38324	
-0.383301	
-0.38269	
-0.384033	
-0.38385	
-0.38324	
-0.383423	
-0.382935	
-0.382996	
-0.384155	
-0.382996	
-0.382629	
-0.382813	
-0.382324	
-0.383728	
-0.383118	
-0.383362	
-0.384094	
-0.383484	
-0.383911	
-0.38501	
-0.384338	
-0.384216	
-0.385254	
-0.384399	
-0.382385	
-0.385376	
-0.385254	
-0.384888	
-0.385498	
-0.385437	
-0.385437	
-0.385803	
-0.385803	
-0.385742	
-0.385925	
-0.384949	
-0.383423	
-0.384766	
-0.384766	
-0.384521	
-0.383728	
-0.384277	
-0.383911	
-0.384094	
-0.383484	
-0.383362	
-0.38446	
-0.382813	
-0.381714	
-0.38269	
-0.383179	
-0.383667	
-0.382813	
-0.383728	
-0.383789	
-0.38385	
-0.384521	
-0.384521	
-0.385376	
-0.385864	
-0.385864	
-0.38678	
-0.38623	
-0.387817	
-0.387268	
-0.388794	
-0.388306	
-0.388611	
-0.38855	
-0.389832	
-0.389282	
-0.388916	
-0.388489	
-0.389587	
-0.388855	
-0.389648	
-0.388794	
-0.390564	
-0.390076	
-0.389893	
-0.389893	
-0.391602	
-0.390564	
-0.391846	
-0.390808	
-0.389343	
-0.391418	
-0.39093	
-0.39093	
-0.391724	
-0.391479	
-0.391235	
-0.391174	
-0.391174	
-0.392151	
-0.392334	
-0.391846	
-0.391785	
-0.391235	
-0.390869	
-0.391296	
-0.390808	
-0.392273	
-0.391479	
-0.39093	
-0.390503	
-0.390381	
-0.389709	
-0.390747	
-0.389709	
-0.387817	
-0.388977	
-0.388123	
-0.388855	
-0.389038	
-0.388245	
-0.387756	
-0.388	
-0.388672	
-0.390015	
-0.388733	
-0.389221	
-0.388916	
-0.387573	
-0.388855	
-0.38916	
-0.388977	
-0.389465	
-0.389282	
-0.389221	
-0.389282	
-0.389771	
-0.391663	
-0.391235	
-0.391052	
-0.390808	
-0.390015	
-0.390198	
-0.390442	
-0.390564	
-0.391296	
-0.390747	
-0.390625	
-0.390503	
-0.390015	
-0.389832	
-0.390137	
-0.390076	
-0.389099	
-0.38916	
-0.388794	
-0.387695	
-0.389099	
-0.389099	
-0.388916	
-0.388611	
-0.388489	
-0.388977	
-0.388428	
-0.388428	
-0.387634	
-0.387268	
-0.386841	
-0.38739	
-0.388062	
-0.389038	
-0.388367	
-0.387878	
-0.388184	
-0.388	
-0.389038	
-0.388977	
-0.389648	
-0.38855	
-0.388062	
-0.388733	
-0.388916	
-0.389221	
-0.388855	
-0.388428	
-0.388733	
-0.388489	
-0.389404	
-0.388794	
-0.388428	
-0.387207	
-0.387573	
-0.388611	
-0.388733	
-0.389526	
-0.390442	
-0.38916	
-0.389771	
-0.390015	
-0.389465	
-0.390503	
-0.390686	
-0.390076	
-0.389282	
-0.389526	
-0.390564	
-0.390625	
-0.390869	
-0.390808	
-0.390747	
-0.390808	
-0.391785	
-0.392029	
-0.390808	
-0.391052	
-0.390076	
-0.389832	
-0.390869	
-0.390564	
-0.390869	
-0.391724	
-0.390808	
-0.389709	
-0.389709	
-0.389893	
-0.389343	
-0.388245	
-0.388733	
-0.387085	
-0.387085	
-0.387207	
-0.387085	
-0.388062	
-0.389221	
-0.388733	
-0.388245	
-0.38855	
-0.390076	
-0.389587	
-0.389282	
-0.389038	
-0.388489	
-0.388977	
-0.38916	
-0.389038	
-0.389465	
-0.388916	
-0.388916	
-0.388916	
-0.389282	
-0.389771	
-0.389404	
-0.389526	
-0.388794	
-0.388611	
-0.389038	
-0.389099	
-0.389343	
-0.389771	
-0.388916	
-0.38916	
-0.389465	
-0.388611	
-0.390442	
-0.390015	
-0.390198	
-0.389099	
-0.389709	
-0.390076	
-0.389221	
-0.390198	
-0.390686	
-0.390442	
-0.390503	
-0.390442	
-0.391296	
-0.391235	
-0.390808	
-0.391113	
-0.389343	
-0.390564	
-0.390137	
-0.389526	
-0.390259	
-0.389648	
-0.389404	
-0.389221	
-0.388794	
-0.390686	
-0.388916	
-0.388855	
-0.388245	
-0.385376	
-0.388123	
-0.387878	
-0.387451	
-0.388611	
-0.387451	
-0.386963	
-0.387024	
-0.386902	
-0.389038	
-0.38739	
-0.387939	
-0.387268	
-0.387207	
-0.38855	
-0.387634	
-0.388672	
-0.388977	
-0.388428	
-0.388611	
-0.388977	
-0.389771	
-0.389954	
-0.389221	
-0.389648	
-0.387695	
-0.389099	
-0.389221	
-0.389404	
-0.389526	
-0.38855	
-0.388672	
-0.388916	
-0.387939	
-0.390503	
-0.388428	
-0.388794	
-0.388733	
-0.387329	
-0.388306	
-0.387329	
-0.388245	
-0.388123	
-0.388	
-0.38739	
-0.387085	
-0.388428	
-0.389709	
-0.387939	
-0.388428	
-0.387512	
-0.387207	
-0.388977	
-0.388123	
-0.389404	
-0.389526	
-0.389587	
-0.389526	
-0.388977	
-0.390442	
-0.391235	
-0.389465	
-0.389099	
-0.387756	
-0.388245	
-0.388428	
-0.388855	
-0.389587	
-0.388672	
-0.388611	
-0.388855	
-0.388	
-0.389587	
-0.388916	
-0.388794	
-0.388245	
-0.388062	
-0.387512	
-0.388611	
-0.388733	
-0.390076	
-0.389709	
-0.390015	
-0.390015	
-0.389709	
-0.391785	
-0.391785	
-0.391541	
-0.391602	
-0.390625	
-0.390747	
-0.391541	
-0.391907	
-0.392761	
-0.392456	
-0.392517	
-0.392395	
-0.391907	
-0.394043	
-0.393921	
-0.393616	
-0.391785	
-0.390747	
-0.390808	
-0.391357	
-0.391296	
-0.391541	
-0.390747	
-0.389893	
-0.389465	
-0.389404	
-0.389587	
-0.389709	
-0.389099	
-0.388123	
-0.388611	
-0.388184	
-0.38739	
-0.388367	
-0.388245	
-0.387695	
-0.388123	
-0.387878	
-0.38855	
-0.388184	
-0.38855	
-0.388794	
-0.385803	
-0.387756	
-0.387451	
-0.386597	
-0.387207	
-0.387329	
-0.387329	
-0.386963	
-0.386719	
-0.388672	
-0.387573	
-0.388611	
-0.38855	
-0.386963	
-0.387695	
-0.388	
-0.388306	
-0.389221	
-0.388428	
-0.388245	
-0.388123	
-0.387695	
-0.389465	
-0.389343	
-0.390076	
-0.390869	
-0.389038	
-0.39032	
-0.390137	
-0.390869	
-0.391968	
-0.391113	
-0.391174	
-0.390991	
-0.391357	
-0.39325	
-0.392639	
-0.392029	
-0.391846	
-0.392822	
-0.392212	
-0.392151	
-0.392029	
-0.3927	
-0.391663	
-0.391418	
-0.391541	
-0.392761	
-0.392822	
-0.391907	
-0.391418	
-0.389404	
-0.39032	
-0.389954	
-0.39032	
-0.390381	
-0.390686	
-0.390503	
-0.390625	
-0.390137	
-0.391357	
-0.390869	
-0.391052	
-0.391357	
-0.390259	
-0.391846	
-0.390808	
-0.390991	
-0.392761	
-0.392334	
-0.392212	
-0.392273	
-0.391357	
-0.394104	
-0.392761	
-0.393066	
-0.393799	
-0.391907	
-0.393494	
-0.393311	
-0.392944	
-0.394592	
-0.393982	
-0.393921	
-0.393555	
-0.393677	
-0.395325	
-0.393677	
-0.394165	
-0.394165	
-0.391663	
-0.393372	
-0.393127	
-0.393738	
-0.393372	
-0.393127	
-0.393677	
-0.393494	
-0.394043	
-0.395142	
-0.394104	
-0.394775	
-0.394592	
-0.394043	
-0.394287	
-0.393738	
-0.394775	
-0.394104	
-0.39386	
-0.393677	
-0.392761	
-0.393677	
-0.394104	
-0.392883	
-0.393677	
-0.392517	
-0.392639	
-0.392578	
-0.390991	
-0.392334	
-0.392273	
-0.392029	
-0.391724	
-0.391052	
-0.392151	
-0.392456	
-0.391724	
-0.393066	
-0.391785	
-0.391357	
-0.39209	
-0.390869	
-0.392212	
-0.392517	
-0.392517	
-0.392334	
-0.393311	
-0.394409	
-0.394287	
-0.394653	
-0.395508	
-0.394836	
-0.395142	
-0.394592	
-0.394409	
-0.396118	
-0.395386	
-0.394714	
-0.39447	
-0.39386	
-0.394836	
-0.394531	
-0.394165	
-0.395386	
-0.39325	
-0.393616	
-0.393555	
-0.393066	
-0.394653	
-0.394043	
-0.394165	
-0.393799	
-0.3927	
-0.395386	
-0.394897	
-0.394592	
-0.395203	
-0.393555	
-0.394653	
-0.394592	
-0.39386	
-0.395386	
-0.39447	
-0.393982	
-0.39447	
-0.39447	
-0.395569	
-0.394531	
-0.394958	
-0.394592	
-0.392822	
-0.393433	
-0.393127	
-0.392334	
-0.393738	
-0.393494	
-0.39325	
-0.392578	
-0.39325	
-0.39386	
-0.392944	
-0.393494	
-0.393311	
-0.392883	
-0.39386	
-0.392517	
-0.393127	
-0.394897	
-0.394775	
-0.394287	
-0.394104	
-0.394592	
-0.395386	
-0.395325	
-0.39624	
-0.39624	
-0.395691	
-0.396423	
-0.395752	
-0.396606	
-0.396851	
-0.396912	
-0.397278	
-0.396484	
-0.3974	
-0.397461	
-0.397095	
-0.397583	
-0.395874	
-0.394592	
-0.395264	
-0.394714	
-0.395996	
-0.395142	
-0.395203	
-0.394714	
-0.394897	
-0.39624	
-0.395874	
-0.394836	
-0.39563	
-0.394592	
-0.393372	
-0.395081	
-0.394714	
-0.395264	
-0.395142	
-0.39502	
-0.394714	
-0.394409	
-0.396362	
-0.396301	
-0.39502	
-0.395386	
-0.395203	
-0.394592	
-0.395813	
-0.39624	
-0.396484	
-0.395935	
-0.396118	
-0.396423	
-0.395752	
-0.396423	
-0.396912	
-0.396729	
-0.396301	
-0.394714	
-0.394836	
-0.394714	
-0.395142	
-0.395203	
-0.394348	
-0.394348	
-0.394226	
-0.393616	
-0.39447	
-0.394836	
-0.395203	
-0.39502	
-0.394348	
-0.39502	
-0.394897	
-0.394775	
-0.396179	
-0.395325	
-0.394897	
-0.395142	
-0.39447	
-0.395813	
-0.395447	
-0.395386	
-0.395508	
-0.394653	
-0.395386	
-0.394653	
-0.39447	
-0.395508	
-0.394897	
-0.394348	
-0.394043	
-0.392761	
-0.394592	
-0.392883	
-0.392883	
-0.393188	
-0.391174	
-0.391907	
-0.390991	
-0.390625	
-0.39209	
-0.391541	
-0.391479	
-0.391113	
-0.390076	
-0.392578	
-0.391174	
-0.391907	
-0.392456	
-0.391174	
-0.391968	
-0.391785	
-0.392761	
-0.394226	
-0.393799	
-0.394775	
-0.394409	
-0.394897	
-0.396484	
-0.395386	
-0.396057	
-0.395325	
-0.394287	
-0.394714	
-0.394226	
-0.395203	
-0.396301	
-0.39624	
-0.395813	
-0.395325	
-0.396179	
-0.397278	
-0.396301	
-0.396912	
-0.396301	
-0.395935	
-0.396362	
-0.39502	
-0.396851	
-0.39679	
-0.396362	
-0.396667	
-0.396057	
-0.396484	
-0.397217	
-0.396606	
-0.397522	
-0.395691	
-0.396057	
-0.395996	
-0.393921	
-0.396118	
-0.395996	
-0.395996	
-0.396179	
-0.395325	
-0.395508	
-0.395691	
-0.394775	
-0.395325	
-0.393066	
-0.393494	
-0.393433	
-0.391846	
-0.393311	
-0.392944	
-0.392395	
-0.391785	
-0.391174	
-0.392151	
-0.392761	
-0.392761	
-0.393127	
-0.391724	
-0.39325	
-0.392883	
-0.391418	
-0.393127	
-0.392761	
-0.3927	
-0.393127	
-0.392578	
-0.393311	
-0.393005	
-0.394165	
-0.395325	
-0.392395	
-0.393311	
-0.393738	
-0.393982	
-0.394165	
-0.393616	
-0.394104	
-0.393799	
-0.393127	
-0.394165	
-0.39325	
-0.393494	
-0.393311	
-0.391357	
-0.392273	
-0.391541	
-0.392029	
-0.392578	
-0.392151	
-0.391724	
-0.391235	
-0.391113	
-0.392029	
-0.390991	
-0.391174	
-0.390564	
-0.388916	
-0.390503	
-0.390076	
-0.390503	
-0.390259	
-0.390381	
-0.390564	
-0.390503	
-0.390076	
-0.391968	
-0.390808	
-0.391602	
-0.391052	
-0.389587	
-0.390808	
-0.389709	
-0.391296	
-0.391235	
-0.390747	
-0.390564	
-0.390381	
-0.390076	
-0.391663	
-0.390137	
-0.391541	
-0.390015	
-0.387634	
-0.390198	
-0.389099	
-0.391113	
-0.391663	
-0.391663	
-0.391541	
-0.391541	
-0.391357	
-0.394043	
-0.391907	
-0.392944	
-0.391724	
-0.390503	
-0.391724	
-0.391113	
-0.393005	
-0.393616	
-0.392517	
-0.392273	
-0.392395	
-0.391663	
-0.393799	
-0.392212	
-0.393005	
-0.391968	
-0.391846	
-0.392212	
-0.392334	
-0.392151	
-0.392944	
-0.391052	
-0.391418	
-0.390564	
-0.390076	
-0.390686	
-0.389465	
-0.38916	
-0.388977	
-0.388916	
-0.388245	
-0.388916	
-0.390015	
-0.390808	
-0.389893	
-0.390503	
-0.390015	
-0.39032	
-0.391357	
-0.390991	
-0.39093	
-0.390076	
-0.389832	
-0.389771	
-0.389832	
-0.390442	
-0.390686	
-0.390381	
-0.389221	
-0.38916	
-0.390686	
-0.391235	
-0.391113	
-0.390076	
-0.389465	
-0.389343	
-0.389465	
-0.390137	
-0.390381	
-0.390198	
-0.390015	
-0.389648	
-0.389771	
-0.391296	
-0.391113	
-0.391357	
-0.391174	
-0.389282	
-0.390137	
-0.390686	
-0.390564	
-0.391724	
-0.390869	
-0.391174	
-0.391418	
-0.390991	
-0.392517	
-0.391663	
-0.39209	
-0.391541	
-0.39032	
-0.390869	
-0.390015	
-0.390381	
-0.391357	
-0.390625	
-0.389954	
-0.390137	
-0.389221	
-0.390625	
-0.389587	
-0.390198	
-0.389221	
-0.388672	
-0.388306	
-0.388184	
-0.388611	
-0.38916	
-0.388123	
-0.387939	
-0.387878	
-0.386963	
-0.388855	
-0.38916	
-0.390503	
-0.388977	
-0.389648	
-0.389343	
-0.389099	
-0.389587	
-0.390503	
-0.389648	
-0.389648	
-0.389832	
-0.389648	
-0.390808	
-0.390259	
-0.390259	
-0.390137	
-0.390442	
-0.389465	
-0.389648	
-0.390076	
-0.390503	
-0.390015	
-0.389709	
-0.389771	
-0.389343	
-0.390198	
-0.389404	
-0.389038	
-0.389038	
-0.389282	
-0.388733	
-0.388611	
-0.388916	
-0.389465	
-0.388245	
-0.388855	
-0.38855	
-0.388794	
-0.390076	
-0.389893	
-0.390137	
-0.389648	
-0.389587	
-0.390076	
-0.390259	
-0.390442	
-0.391174	
-0.390625	
-0.390625	
-0.390625	
-0.390686	
-0.391113	
-0.390503	
-0.389648	
-0.389221	
-0.389099	
-0.38916	
-0.389648	
-0.39032	
-0.390259	
-0.389587	
-0.389465	
-0.389465	
-0.390259	
-0.39032	
-0.390503	
-0.389465	
-0.389099	
-0.389954	
-0.39032	
-0.390808	
-0.391357	
-0.391724	
-0.391968	
-0.391663	
-0.391907	
-0.39325	
-0.393982	
-0.393005	
-0.393066	
-0.391968	
-0.392944	
-0.393372	
-0.393738	
-0.393982	
-0.394592	
-0.394043	
-0.393982	
-0.393433	
-0.394409	
-0.394287	
-0.393494	
-0.393127	
-0.391113	
-0.391541	
-0.391846	
-0.391479	
-0.390869	
-0.391052	
-0.39032	
-0.390198	
-0.390137	
-0.391296	
-0.390869	
-0.39032	
-0.389587	
-0.389099	
-0.389771	
-0.388916	
-0.38916	
-0.389282	
-0.389465	
-0.389038	
-0.389099	
-0.38916	
-0.390015	
-0.389221	
-0.389404	
-0.388367	
-0.389526	
-0.389282	
-0.389038	
-0.38916	
-0.388977	
-0.38916	
-0.389404	
-0.388733	
-0.389343	
-0.389954	
-0.389526	
-0.389954	
-0.389709	
-0.389709	
-0.390015	
-0.389587	
-0.390015	
-0.390442	
-0.390015	
-0.390564	
-0.390869	
-0.390503	
-0.392273	
-0.39209	
-0.392456	
-0.391907	
-0.391785	
-0.392822	
-0.392883	
-0.393188	
-0.39386	
-0.393921	
-0.394714	
-0.393494	
-0.393921	
-0.394958	
-0.394287	
-0.393982	
-0.393799	
-0.393127	
-0.394104	
-0.393372	
-0.393555	
-0.394226	
-0.393738	
-0.393372	
-0.393066	
-0.392822	
-0.393677	
-0.392456	
-0.392639	
-0.391724	
-0.391479	
-0.392334	
-0.392395	
-0.392639	
-0.392944	
-0.392334	
-0.392822	
-0.392822	
-0.393677	
-0.394104	
-0.39325	
-0.393738	
-0.393188	
-0.393982	
-0.393799	
-0.393921	
-0.395081	
-0.395203	
-0.394653	
-0.394775	
-0.395081	
-0.396729	
-0.396057	
-0.395813	
-0.395813	
-0.394653	
-0.396362	
-0.396179	
-0.395874	
-0.396301	
-0.39563	
-0.396057	
-0.396057	
-0.395386	
-0.39679	
-0.395813	
-0.395264	
-0.395691	
-0.394287	
-0.395874	
-0.395813	
-0.395386	
-0.396423	
-0.395569	
-0.395691	
-0.395996	
-0.395996	
-0.396973	
-0.396118	
-0.396667	
-0.397156	
-0.395081	
-0.397034	
-0.395813	
-0.395081	
-0.395935	
-0.394775	
-0.394836	
-0.394653	
-0.393799	
-0.395447	
-0.394165	
-0.394165	
-0.394348	
-0.393005	
-0.394653	
-0.393982	
-0.393066	
-0.394592	
-0.39325	
-0.393799	
-0.393799	
-0.393311	
-0.394958	
-0.393982	
-0.393982	
-0.394226	
-0.393372	
-0.394836	
-0.395142	
-0.395203	
-0.396484	
-0.395142	
-0.396362	
-0.396606	
-0.395996	
-0.398193	
-0.397034	
-0.397156	
-0.397705	
-0.395996	
-0.397644	
-0.396851	
-0.396057	
-0.397339	
-0.394958	
-0.396118	
-0.395813	
-0.395386	
-0.397339	
-0.395874	
-0.395691	
-0.396545	
-0.394531	
-0.396851	
-0.39563	
-0.395386	
-0.397217	
-0.395325	
-0.39679	
-0.39624	
-0.395813	
-0.398132	
-0.396973	
-0.397278	
-0.397522	
-0.394104	
-0.396973	
-0.396301	
-0.395569	
-0.397339	
-0.396118	
-0.39679	
-0.39624	
-0.394897	
-0.397339	
-0.395203	
-0.39563	
-0.395935	
-0.393311	
-0.395813	
-0.395142	
-0.394226	
-0.395386	
-0.394531	
-0.395264	
-0.395081	
-0.394226	
-0.397095	
-0.395813	
-0.39624	
-0.396606	
	
