E:\DOCUMENTS AND SETTINGS\JPOTAS\MEUS DOCUMENTOS\UFRJ\RSCI-BM 12 WK SERIES\070731-RSCI-BM-12\RSCI-BM-12-LEMG\070731-RSCI-BM-12-LEMG-0006.ACQ
0.025000 msec/sample
1 channel
Analog input
Volts
CH1	
2000	
-0.397156	
-0.397156	
-0.397034	
-0.396179	
-0.397156	
-0.398132	
-0.399048	
-0.39856	
-0.398315	
-0.398376	
-0.398132	
-0.399109	
-0.398987	
-0.39801	
-0.398743	
-0.398804	
-0.398132	
-0.398132	
-0.397156	
-0.398071	
-0.398193	
-0.398071	
-0.397827	
-0.397888	
-0.399231	
-0.398376	
-0.398254	
-0.39801	
-0.396973	
-0.397766	
-0.39679	
-0.397156	
-0.39679	
-0.396118	
-0.396851	
-0.396973	
-0.396973	
-0.397095	
-0.397827	
-0.398193	
-0.399963	
-0.400208	
-0.399048	
-0.400024	
-0.399048	
-0.400085	
-0.399902	
-0.401184	
-0.399841	
-0.400085	
-0.400391	
-0.399658	
-0.40033	
-0.400513	
-0.400696	
-0.401062	
-0.401306	
-0.400574	
-0.400635	
-0.400146	
-0.400818	
-0.401062	
-0.400757	
-0.400574	
-0.40033	
-0.401001	
-0.399963	
-0.400452	
-0.400024	
-0.399353	
-0.400146	
-0.39856	
-0.398743	
-0.398804	
-0.398438	
-0.398071	
-0.397522	
-0.397034	
-0.396912	
-0.397339	
-0.396545	
-0.396179	
-0.396484	
-0.394958	
-0.395935	
-0.395203	
-0.39447	
-0.395386	
-0.394348	
-0.394836	
-0.394226	
-0.39386	
-0.393188	
-0.394409	
-0.39502	
-0.39386	
-0.394592	
-0.394531	
-0.393738	
-0.394043	
-0.393433	
-0.394531	
-0.394714	
-0.394592	
-0.394409	
-0.393982	
-0.394531	
-0.394226	
-0.394409	
-0.394592	
-0.394531	
-0.395081	
-0.394531	
-0.394714	
-0.395203	
-0.395935	
-0.395691	
-0.395386	
-0.39563	
-0.395813	
-0.397156	
-0.397034	
-0.396118	
-0.396362	
-0.395264	
-0.397034	
-0.397034	
-0.396362	
-0.396118	
-0.396362	
-0.396667	
-0.396729	
-0.396729	
-0.39563	
-0.397278	
-0.397156	
-0.397156	
-0.397095	
-0.395752	
-0.395996	
-0.396423	
-0.396545	
-0.396851	
-0.396179	
-0.396545	
-0.396729	
-0.396484	
-0.396362	
-0.396667	
-0.396545	
-0.396973	
-0.396484	
-0.397217	
-0.395874	
-0.396301	
-0.397217	
-0.397949	
-0.397034	
-0.397034	
-0.39801	
-0.397461	
-0.397766	
-0.397888	
-0.398193	
-0.398865	
-0.398132	
-0.399902	
-0.399231	
-0.398621	
-0.400208	
-0.400085	
-0.400024	
-0.400574	
-0.400452	
-0.400574	
-0.400269	
-0.401184	
-0.401062	
-0.401001	
-0.401245	
-0.401062	
-0.400696	
-0.400879	
-0.401733	
-0.400269	
-0.400818	
-0.400146	
-0.399841	
-0.400635	
-0.399475	
-0.399292	
-0.398987	
-0.398254	
-0.398804	
-0.398376	
-0.398376	
-0.398926	
-0.392456	
-0.385071	
-0.385437	
-0.384888	
-0.384888	
-0.385254	
-0.392212	
-0.397095	
-0.398438	
-0.398315	
-0.398438	
-0.397827	
-0.396729	
-0.397278	
-0.397583	
-0.397156	
-0.397034	
-0.396301	
-0.396179	
-0.396545	
-0.396484	
-0.395691	
-0.395325	
-0.395508	
-0.39563	
-0.395081	
-0.394775	
-0.39502	
-0.39386	
-0.394409	
-0.394714	
-0.394897	
-0.388306	
-0.383179	
-0.382996	
-0.382751	
-0.381836	
-0.383057	
-0.390076	
-0.395264	
-0.397217	
-0.397522	
-0.396667	
-0.3974	
-0.397583	
-0.398071	
-0.397461	
-0.398254	
-0.399231	
-0.399231	
-0.39917	
-0.399414	
-0.398132	
-0.399536	
-0.40033	
-0.400635	
-0.401489	
-0.402649	
-0.404724	
-0.406189	
-0.408691	
-0.411743	
-0.414429	
-0.416382	
-0.419678	
-0.423157	
-0.427246	
-0.433838	
-0.439941	
-0.446594	
-0.45343	
-0.460876	
-0.467651	
-0.474731	
-0.480957	
-0.487976	
-0.493164	
-0.49884	
-0.503845	
-0.506531	
-0.510803	
-0.514526	
-0.518005	
-0.520264	
-0.522278	
-0.523682	
-0.52478	
-0.525574	
-0.525452	
-0.522888	
-0.52356	
-0.522644	
-0.520508	
-0.519409	
-0.518494	
-0.516235	
-0.5177	
-0.519043	
-0.520569	
-0.523804	
-0.526917	
-0.531311	
-0.534668	
-0.538086	
-0.54187	
-0.543945	
-0.547485	
-0.550476	
-0.551147	
-0.55249	
-0.552734	
-0.552246	
-0.551636	
-0.5495	
-0.548096	
-0.545532	
-0.540771	
-0.536377	
-0.531189	
-0.524292	
-0.519592	
-0.512878	
-0.505432	
-0.499573	
-0.492065	
-0.485413	
-0.47821	
-0.471436	
-0.464661	
-0.456177	
-0.45105	
-0.445129	
-0.437195	
-0.432068	
-0.42572	
-0.418457	
-0.411682	
-0.404663	
-0.397705	
-0.390076	
-0.381897	
-0.374817	
-0.366943	
-0.357178	
-0.350403	
-0.343445	
-0.334351	
-0.328552	
-0.322754	
-0.315369	
-0.309143	
-0.303589	
-0.298706	
-0.294495	
-0.29071	
-0.288391	
-0.284302	
-0.282043	
-0.280518	
-0.278687	
-0.279175	
-0.279236	
-0.279358	
-0.280212	
-0.283142	
-0.284668	
-0.287598	
-0.29071	
-0.295776	
-0.298584	
-0.303162	
-0.308716	
-0.31427	
-0.319763	
-0.325439	
-0.329651	
-0.334473	
-0.338684	
-0.342712	
-0.346619	
-0.350098	
-0.352905	
-0.353821	
-0.355774	
-0.35675	
-0.356506	
-0.358154	
-0.35968	
-0.359314	
-0.360535	
-0.36145	
-0.362061	
-0.363464	
-0.365906	
-0.36731	
-0.368774	
-0.371948	
-0.375061	
-0.377808	
-0.380859	
-0.384583	
-0.386963	
-0.390442	
-0.393311	
-0.395752	
-0.398987	
-0.4021	
-0.404053	
-0.405457	
-0.407959	
-0.410706	
-0.411682	
-0.413696	
-0.414917	
-0.41394	
-0.415833	
-0.41571	
-0.415283	
-0.414429	
-0.414185	
-0.414856	
-0.411133	
-0.411804	
-0.411072	
-0.408325	
-0.410034	
-0.410278	
-0.409058	
-0.408875	
-0.408203	
-0.408264	
-0.408447	
-0.407776	
-0.40802	
-0.406799	
-0.406189	
-0.405151	
-0.404236	
-0.402771	
-0.401428	
-0.398926	
-0.395813	
-0.394592	
-0.391602	
-0.390015	
-0.38739	
-0.384949	
-0.383118	
-0.378357	
-0.37616	
-0.374329	
-0.369934	
-0.369324	
-0.368042	
-0.365234	
-0.363892	
-0.362427	
-0.360046	
-0.359436	
-0.359131	
-0.358765	
-0.357117	
-0.358215	
-0.358643	
-0.358276	
-0.360596	
-0.361877	
-0.362915	
-0.36499	
-0.36731	
-0.369263	
-0.371399	
-0.373291	
-0.375488	
-0.377441	
-0.379028	
-0.380493	
-0.38208	
-0.383728	
-0.385559	
-0.387085	
-0.387695	
-0.389832	
-0.391174	
-0.39209	
-0.393066	
-0.394592	
-0.394409	
-0.39502	
-0.395996	
-0.395691	
-0.397156	
-0.399475	
-0.39856	
-0.399597	
-0.400085	
-0.400391	
-0.400208	
-0.40094	
-0.401489	
-0.399292	
-0.399597	
-0.399109	
-0.39856	
-0.398376	
-0.39856	
-0.39679	
-0.397156	
-0.397339	
-0.396667	
-0.396973	
-0.396484	
-0.396973	
-0.395447	
-0.39502	
-0.395264	
-0.394226	
-0.394592	
-0.395081	
-0.393127	
-0.394226	
-0.394104	
-0.39447	
-0.394409	
-0.395142	
-0.395142	
-0.393311	
-0.39447	
-0.394714	
-0.393066	
-0.393433	
-0.393066	
-0.391846	
-0.391663	
-0.391052	
-0.390991	
-0.391296	
-0.390869	
-0.391113	
-0.389893	
-0.389221	
-0.389038	
-0.388062	
-0.387573	
-0.388794	
-0.388855	
-0.387207	
-0.388306	
-0.388306	
-0.388062	
-0.388306	
-0.389648	
-0.389404	
-0.388794	
-0.389648	
-0.390076	
-0.39032	
-0.390381	
-0.390686	
-0.391052	
-0.391663	
-0.392029	
-0.392151	
-0.3927	
-0.392883	
-0.394958	
-0.394348	
-0.393433	
-0.39386	
-0.39325	
-0.39325	
-0.39325	
-0.393982	
-0.391724	
-0.392822	
-0.392151	
-0.391663	
-0.391968	
-0.393127	
-0.392517	
-0.391846	
-0.392822	
-0.393921	
-0.393127	
-0.393738	
-0.394348	
-0.393494	
-0.394043	
-0.393738	
-0.39386	
-0.394958	
-0.394836	
-0.39563	
-0.39563	
-0.394836	
-0.396179	
-0.396179	
-0.396484	
-0.39679	
-0.397217	
-0.396912	
-0.397034	
-0.397278	
-0.398438	
-0.39801	
-0.398499	
-0.398071	
-0.397583	
-0.398621	
-0.398682	
-0.398315	
-0.399109	
-0.399414	
-0.398315	
-0.398071	
-0.397583	
-0.397949	
-0.397644	
-0.398621	
-0.397949	
-0.396606	
-0.396912	
-0.396667	
-0.396484	
-0.396179	
-0.39624	
-0.393677	
-0.394653	
-0.393494	
-0.392395	
-0.392517	
-0.392578	
-0.392334	
-0.391541	
-0.390991	
-0.391418	
-0.390137	
-0.390808	
-0.390137	
-0.389893	
-0.389771	
-0.389709	
-0.389709	
-0.390503	
-0.389832	
-0.390259	
-0.389648	
-0.388611	
-0.389709	
-0.389587	
-0.389893	
-0.390503	
-0.39093	
-0.388672	
-0.389404	
-0.389832	
-0.389221	
-0.39032	
-0.391296	
-0.391174	
-0.39093	
-0.391296	
-0.391418	
-0.390625	
-0.392273	
-0.392639	
-0.392761	
-0.392761	
-0.392639	
-0.393494	
-0.394104	
-0.394409	
-0.394958	
-0.394409	
-0.393982	
-0.395081	
-0.395386	
-0.395447	
-0.395691	
-0.39679	
-0.395691	
-0.396423	
-0.395935	
-0.396484	
-0.395691	
-0.396301	
-0.396667	
-0.395264	
-0.395447	
-0.395569	
-0.395203	
-0.395874	
-0.395508	
-0.395142	
-0.395142	
-0.39563	
-0.395386	
-0.395081	
-0.394897	
-0.395874	
-0.39447	
-0.393005	
-0.394348	
-0.393555	
-0.393311	
-0.394409	
-0.395386	
-0.394409	
-0.395325	
-0.395874	
-0.39563	
-0.396301	
-0.397583	
-0.398376	
-0.397888	
-0.397766	
-0.397827	
-0.398254	
-0.397522	
-0.398438	
-0.398071	
-0.397278	
-0.397888	
-0.398743	
-0.400024	
-0.398926	
-0.399597	
-0.399719	
-0.397827	
-0.398621	
-0.397644	
-0.398499	
-0.398621	
-0.399292	
-0.39801	
-0.397583	
-0.398071	
-0.397156	
-0.397522	
-0.397888	
-0.397644	
-0.397217	
-0.396973	
-0.396484	
-0.396606	
-0.395691	
-0.396362	
-0.394836	
-0.393982	
-0.394287	
-0.393616	
-0.394653	
-0.39447	
-0.393799	
-0.393982	
-0.391968	
-0.392883	
-0.393005	
-0.391968	
-0.392883	
-0.392639	
-0.392151	
-0.391846	
-0.391663	
-0.391968	
-0.392273	
-0.392883	
-0.392578	
-0.39209	
-0.391968	
-0.391357	
-0.392883	
-0.392639	
-0.392944	
-0.392029	
-0.39209	
-0.392273	
-0.391541	
-0.392639	
-0.392639	
-0.39325	
-0.393738	
-0.391724	
-0.393005	
-0.392761	
-0.393372	
-0.394348	
-0.393494	
-0.393738	
-0.393372	
-0.394104	
-0.39502	
-0.39447	
-0.395386	
-0.394653	
-0.394714	
-0.394836	
-0.394226	
-0.395081	
-0.39502	
-0.395813	
-0.394226	
-0.394348	
-0.394836	
-0.394592	
-0.395874	
-0.394714	
-0.395386	
-0.395325	
-0.393921	
-0.395142	
-0.393677	
-0.39563	
-0.395325	
-0.394714	
-0.394958	
-0.394287	
-0.394714	
-0.394958	
-0.394897	
-0.395447	
-0.395142	
-0.395935	
-0.395386	
-0.395203	
-0.395447	
-0.395081	
-0.395935	
-0.395813	
-0.396118	
-0.395386	
-0.394897	
-0.396729	
-0.396606	
-0.397278	
-0.396851	
-0.396301	
-0.397461	
-0.397522	
-0.398926	
-0.39801	
-0.398254	
-0.398621	
-0.39856	
-0.398315	
-0.399109	
-0.398926	
-0.399109	
-0.39978	
-0.399353	
-0.399414	
-0.398987	
-0.399231	
-0.399902	
-0.40033	
-0.398926	
-0.39856	
-0.398132	
-0.3974	
-0.397949	
-0.397034	
-0.397705	
-0.397583	
-0.398132	
-0.396973	
-0.396851	
-0.396851	
-0.39624	
-0.396301	
-0.395813	
-0.395447	
-0.395264	
-0.396667	
-0.395752	
-0.395203	
-0.39624	
-0.395386	
-0.395447	
-0.394897	
-0.394287	
-0.396118	
-0.395447	
-0.394958	
-0.394714	
-0.393311	
-0.394287	
-0.394958	
-0.394165	
-0.393921	
-0.394409	
-0.393494	
-0.393433	
-0.393188	
-0.391479	
-0.394348	
-0.393127	
-0.393127	
-0.392456	
-0.391602	
-0.393494	
-0.39325	
-0.392944	
-0.393066	
-0.393188	
-0.394409	
-0.393677	
-0.394104	
-0.394592	
-0.394226	
-0.394348	
-0.394348	
-0.393982	
-0.394409	
-0.395264	
-0.394226	
-0.394775	
-0.395264	
-0.394043	
-0.395081	
-0.394897	
-0.394592	
-0.395508	
-0.393555	
-0.394226	
-0.39386	
-0.393005	
-0.394287	
-0.39325	
-0.392822	
-0.393372	
-0.393738	
-0.393127	
-0.392639	
-0.391846	
-0.390991	
-0.391479	
-0.391968	
-0.391296	
-0.39093	
-0.390564	
-0.39209	
-0.391052	
-0.391602	
-0.391296	
-0.391479	
-0.391418	
-0.391907	
-0.391602	
-0.391907	
-0.392273	
-0.391785	
-0.391541	
-0.391724	
-0.392883	
-0.392212	
-0.392273	
-0.392761	
-0.392517	
-0.393677	
-0.392944	
-0.392944	
-0.39325	
-0.394104	
-0.394531	
-0.393799	
-0.393677	
-0.39325	
-0.394592	
-0.393982	
-0.393921	
-0.393982	
-0.393677	
-0.394165	
-0.394287	
-0.394165	
-0.394104	
-0.395264	
-0.394592	
-0.394775	
-0.393799	
-0.395081	
-0.394897	
-0.394897	
-0.394592	
-0.395264	
-0.395996	
-0.39563	
-0.39563	
-0.395325	
-0.39563	
-0.395508	
-0.39563	
-0.395569	
-0.394348	
-0.395752	
-0.394653	
-0.394226	
-0.393982	
-0.393677	
-0.394043	
-0.393372	
-0.393127	
-0.392944	
-0.393127	
-0.392212	
-0.391968	
-0.391357	
-0.391113	
-0.39093	
-0.391235	
-0.391235	
-0.391113	
-0.392212	
-0.390259	
-0.390564	
-0.390808	
-0.390564	
-0.390747	
-0.390869	
-0.391052	
-0.391052	
-0.392639	
-0.391296	
-0.391846	
-0.391846	
-0.390869	
-0.392029	
-0.391296	
-0.391663	
-0.391785	
-0.392517	
-0.391968	
-0.392517	
-0.391174	
-0.391174	
-0.392517	
-0.392456	
-0.391907	
-0.39209	
-0.393616	
-0.392273	
-0.391357	
-0.391113	
-0.390259	
-0.390015	
-0.389587	
-0.389282	
-0.388916	
-0.389709	
-0.389465	
-0.389038	
-0.388489	
-0.388306	
-0.389587	
-0.388672	
-0.388245	
-0.388733	
-0.38855	
-0.388611	
-0.388	
-0.387268	
-0.387695	
-0.388	
-0.388306	
-0.38855	
-0.388123	
-0.389282	
-0.388428	
-0.388062	
-0.389038	
-0.389221	
-0.389709	
-0.389526	
-0.389404	
-0.388428	
-0.38855	
-0.389587	
-0.390259	
-0.390686	
-0.390991	
-0.392761	
-0.391785	
-0.392944	
-0.393066	
-0.391541	
-0.392517	
-0.3927	
-0.393127	
-0.393616	
-0.39386	
-0.393555	
-0.393738	
-0.393738	
-0.393982	
-0.394348	
-0.394531	
-0.39447	
-0.394775	
-0.395325	
-0.394592	
-0.394714	
-0.39386	
-0.394409	
-0.394592	
-0.394958	
-0.394897	
-0.394897	
-0.396301	
-0.39447	
-0.39447	
-0.394714	
-0.393677	
-0.395081	
-0.394165	
-0.394226	
-0.394043	
-0.393433	
-0.393677	
-0.393555	
-0.392883	
-0.392273	
-0.393921	
-0.39325	
-0.392761	
-0.392944	
-0.392151	
-0.392334	
-0.392334	
-0.390808	
-0.392212	
-0.391846	
-0.392029	
-0.391724	
-0.391968	
-0.393127	
-0.392029	
-0.39209	
-0.392273	
-0.391174	
-0.393372	
-0.392212	
-0.39209	
-0.391418	
-0.391602	
-0.392761	
-0.39209	
-0.391968	
-0.391846	
-0.393494	
-0.392456	
-0.392456	
-0.393127	
-0.391418	
-0.392578	
-0.391724	
-0.391357	
-0.390991	
-0.391174	
-0.390808	
-0.391113	
-0.390686	
-0.390442	
-0.391418	
-0.390869	
-0.390503	
-0.39093	
-0.39032	
-0.389954	
-0.389709	
-0.38855	
-0.388123	
-0.388	
-0.388123	
-0.388245	
-0.388123	
-0.389038	
-0.387817	
-0.387756	
-0.388184	
-0.38678	
-0.387634	
-0.387207	
-0.386658	
-0.386841	
-0.388428	
-0.386658	
-0.386597	
-0.387146	
-0.387268	
-0.388672	
-0.388062	
-0.388733	
-0.38916	
-0.388855	
-0.388855	
-0.38916	
-0.388062	
-0.389282	
-0.389771	
-0.389343	
-0.389404	
-0.389832	
-0.390076	
-0.390869	
-0.390381	
-0.390381	
-0.390442	
-0.389954	
-0.39032	
-0.390198	
-0.390381	
-0.389648	
-0.390747	
-0.390991	
-0.391113	
-0.391113	
-0.39209	
-0.391602	
-0.391785	
-0.391785	
-0.391235	
-0.39209	
-0.392578	
-0.391907	
-0.392761	
-0.393311	
-0.393127	
-0.393799	
-0.393677	
-0.393188	
-0.39386	
-0.393799	
-0.393799	
-0.394226	
-0.393066	
-0.393372	
-0.393311	
-0.392151	
-0.392212	
-0.392761	
-0.392334	
-0.392395	
-0.391785	
-0.391785	
-0.391357	
-0.391174	
-0.39093	
-0.390259	
-0.391663	
-0.391479	
-0.391541	
-0.391479	
-0.391357	
-0.392029	
-0.392029	
-0.391907	
-0.391296	
-0.393005	
-0.391602	
-0.392151	
-0.39325	
-0.391602	
-0.393066	
-0.39325	
-0.392395	
-0.39325	
-0.393677	
-0.393555	
-0.393494	
-0.393616	
-0.394043	
-0.394165	
-0.393616	
-0.394043	
-0.394287	
-0.393921	
-0.39447	
-0.393799	
-0.393738	
-0.394775	
-0.393799	
-0.393555	
-0.393494	
-0.392883	
-0.393982	
-0.393127	
-0.392944	
-0.393921	
-0.39209	
-0.393982	
-0.392822	
-0.392578	
-0.392883	
-0.392029	
-0.391968	
-0.391663	
-0.391113	
-0.390869	
-0.392456	
-0.390991	
-0.391296	
-0.391174	
-0.390259	
-0.392029	
-0.390869	
-0.390015	
-0.391663	
-0.390381	
-0.391113	
-0.390625	
-0.390625	
-0.391296	
-0.390442	
-0.390991	
-0.390442	
-0.38916	
-0.390381	
-0.390015	
-0.389709	
-0.389893	
-0.390259	
-0.389465	
-0.389832	
-0.389343	
-0.38855	
-0.390869	
-0.389893	
-0.390137	
-0.390869	
-0.389404	
-0.391174	
-0.390808	
-0.390686	
-0.391968	
-0.390991	
-0.391724	
-0.392029	
-0.392334	
-0.393066	
-0.39325	
-0.393127	
-0.393311	
-0.393066	
-0.393494	
-0.394165	
-0.394104	
-0.394226	
-0.394775	
-0.393066	
-0.394287	
-0.394165	
-0.393433	
-0.394958	
-0.394165	
-0.394287	
-0.394897	
-0.392517	
-0.393555	
-0.392944	
-0.391602	
-0.393127	
-0.393311	
-0.392822	
-0.393188	
-0.392944	
-0.393616	
-0.393921	
-0.392395	
-0.393127	
-0.391907	
-0.391785	
-0.392822	
-0.391846	
-0.392944	
-0.393494	
-0.393372	
-0.39386	
-0.394348	
-0.394348	
-0.39624	
-0.395386	
-0.395203	
-0.396057	
-0.395081	
-0.395325	
-0.396179	
-0.394775	
-0.395691	
-0.396301	
-0.394531	
-0.396057	
-0.39624	
-0.39502	
-0.3974	
-0.396606	
-0.396912	
-0.395752	
-0.394409	
-0.396362	
-0.395874	
-0.396057	
-0.395813	
-0.395813	
-0.395203	
-0.395508	
-0.395264	
-0.39502	
-0.396057	
-0.394775	
-0.394775	
-0.393738	
-0.3927	
-0.393982	
-0.393127	
-0.392517	
-0.392761	
-0.391235	
-0.391785	
-0.391724	
-0.390869	
-0.391724	
-0.390747	
-0.391113	
-0.390564	
-0.389954	
-0.389648	
-0.39032	
-0.389954	
-0.390137	
-0.390015	
-0.387878	
-0.389221	
-0.389099	
-0.388855	
-0.39093	
-0.390076	
-0.390198	
-0.389221	
-0.387512	
-0.389587	
-0.389526	
-0.389832	
-0.389893	
-0.389221	
-0.388855	
-0.389954	
-0.389465	
-0.390869	
-0.390808	
-0.390503	
-0.390259	
-0.390503	
-0.390564	
-0.390686	
-0.390747	
-0.391113	
-0.392212	
-0.390991	
-0.390991	
-0.391296	
-0.391541	
-0.393127	
-0.392151	
-0.391907	
-0.391541	
-0.391113	
-0.392273	
-0.391968	
-0.391602	
-0.391846	
-0.392578	
-0.390869	
-0.391846	
-0.39209	
-0.391968	
-0.393616	
-0.392151	
-0.390991	
-0.391418	
-0.389038	
-0.392029	
-0.391846	
-0.391296	
-0.391724	
-0.391296	
-0.391602	
-0.391418	
-0.391174	
-0.392334	
-0.392639	
-0.393066	
-0.392029	
-0.391602	
-0.392029	
-0.392029	
-0.392639	
-0.393066	
-0.393555	
-0.392029	
-0.393311	
-0.393311	
-0.392456	
-0.395813	
-0.394714	
-0.394775	
-0.394592	
-0.394531	
-0.395325	
-0.39624	
-0.395386	
-0.395874	
-0.395569	
-0.395508	
-0.395569	
-0.396545	
-0.396484	
-0.397888	
-0.397034	
-0.39624	
-0.396057	
-0.39502	
-0.397034	
-0.395752	
-0.395752	
-0.396057	
-0.39502	
-0.393921	
-0.393921	
-0.393555	
-0.394714	
-0.394592	
-0.394348	
-0.394104	
-0.393616	
-0.392395	
-0.393372	
-0.392883	
-0.393127	
-0.39325	
-0.391846	
-0.392456	
-0.391968	
-0.392578	
-0.393494	
-0.39325	
-0.392334	
-0.392029	
-0.391846	
-0.392212	
-0.391663	
-0.391907	
-0.392029	
-0.391418	
-0.391479	
-0.390747	
-0.390198	
-0.391113	
-0.391907	
-0.391113	
-0.390137	
-0.390564	
-0.389404	
-0.390198	
-0.389893	
-0.390137	
-0.389954	
-0.389038	
-0.390076	
-0.389465	
-0.389465	
-0.390808	
-0.391907	
-0.391174	
-0.391113	
-0.391296	
-0.390747	
-0.39209	
-0.392151	
-0.392395	
-0.391663	
-0.391785	
-0.391846	
-0.391724	
-0.392395	
-0.393127	
-0.392944	
-0.392273	
-0.391968	
-0.390564	
-0.391174	
-0.391479	
-0.391724	
-0.391846	
-0.390686	
-0.390747	
-0.39032	
-0.389526	
-0.390564	
-0.391113	
-0.390381	
-0.390198	
-0.389343	
-0.388184	
-0.389343	
-0.389404	
-0.389038	
-0.388611	
-0.388245	
-0.388855	
-0.388977	
-0.389526	
-0.389771	
-0.390442	
-0.389221	
-0.389465	
-0.388977	
-0.388611	
-0.389648	
-0.389648	
-0.390625	
-0.389465	
-0.389832	
-0.389526	
-0.389282	
-0.390564	
-0.392334	
-0.391785	
-0.391418	
-0.39093	
-0.390442	
-0.391235	
-0.391846	
-0.392029	
-0.391907	
-0.390442	
-0.391541	
-0.391907	
-0.39209	
-0.392151	
-0.393127	
-0.392212	
-0.392151	
-0.391968	
-0.391724	
-0.392822	
-0.392456	
-0.39325	
-0.392456	
-0.392761	
-0.392761	
-0.391907	
-0.393005	
-0.394104	
-0.394897	
-0.393372	
-0.393127	
-0.393005	
-0.39209	
-0.393433	
-0.393372	
-0.393188	
-0.392395	
-0.392944	
-0.392822	
-0.390808	
-0.391846	
-0.393433	
-0.392578	
-0.390991	
-0.390686	
-0.389526	
-0.390198	
-0.390442	
-0.390747	
-0.389526	
-0.389282	
-0.389587	
-0.38916	
-0.389221	
-0.389282	
-0.390137	
-0.388916	
-0.388794	
-0.388916	
-0.389709	
-0.389709	
-0.389832	
-0.390686	
-0.389038	
-0.389465	
-0.389893	
-0.389099	
-0.389893	
-0.39032	
-0.391663	
-0.389954	
-0.390442	
-0.390076	
-0.388916	
-0.390808	
-0.39093	
-0.390564	
-0.390503	
-0.390747	
-0.390381	
-0.390503	
-0.391235	
-0.391663	
-0.390137	
-0.389771	
-0.388855	
-0.388855	
-0.387939	
-0.388	
-0.388428	
-0.386902	
-0.387451	
-0.387756	
-0.386536	
-0.387207	
-0.387878	
-0.389343	
-0.38678	
-0.387146	
-0.386902	
-0.385254	
-0.385986	
-0.386841	
-0.386597	
-0.386658	
-0.386169	
-0.386292	
-0.386719	
-0.387207	
-0.388367	
-0.388	
-0.387451	
-0.387878	
-0.387573	
-0.386963	
-0.388184	
-0.388916	
-0.387085	
-0.388367	
-0.389099	
-0.38855	
-0.390198	
-0.391113	
-0.391602	
-0.391235	
-0.391174	
-0.391724	
-0.391113	
-0.391785	
-0.392517	
-0.392456	
-0.392517	
-0.392578	
-0.392944	
-0.393188	
-0.392822	
-0.394409	
-0.395325	
-0.394043	
-0.393677	
-0.394226	
-0.391479	
-0.393921	
-0.394592	
-0.393127	
-0.39386	
-0.39386	
-0.393677	
-0.394043	
-0.39386	
-0.394775	
-0.394592	
-0.39386	
-0.393921	
-0.392151	
-0.391724	
-0.393616	
-0.393494	
-0.392822	
-0.392761	
-0.392578	
-0.391602	
-0.392151	
-0.392395	
-0.393005	
-0.391479	
-0.391541	
-0.392151	
-0.391113	
-0.391602	
-0.392029	
-0.39093	
-0.391113	
-0.391113	
-0.390869	
-0.391174	
-0.391724	
-0.392456	
-0.393494	
-0.391602	
-0.391663	
-0.391235	
-0.390198	
-0.391418	
-0.392456	
-0.390869	
-0.391602	
-0.391052	
-0.391357	
-0.391663	
-0.391907	
-0.391541	
-0.392212	
-0.391785	
-0.391541	
-0.391235	
-0.391418	
-0.391479	
-0.391052	
-0.390564	
-0.390503	
-0.390869	
-0.389343	
-0.390503	
-0.391418	
-0.391785	
-0.390503	
-0.390442	
-0.390747	
-0.389282	
-0.390259	
-0.389404	
-0.387756	
-0.388428	
-0.388	
-0.387512	
-0.387878	
-0.387695	
-0.388672	
-0.388977	
-0.387451	
-0.387207	
-0.387207	
-0.38562	
-0.387085	
-0.387512	
-0.385437	
-0.386597	
-0.386353	
-0.386292	
-0.387451	
-0.388123	
-0.388977	
-0.389038	
-0.388855	
-0.388977	
-0.388916	
-0.388916	
-0.389404	
-0.389404	
-0.389587	
-0.389282	
-0.389343	
-0.389099	
-0.389709	
-0.390808	
-0.392151	
-0.390442	
-0.390747	
-0.389832	
-0.388428	
-0.390564	
-0.391235	
-0.390137	
-0.390442	
-0.390686	
-0.390808	
-0.391052	
-0.391724	
-0.391968	
-0.391602	
-0.392029	
-0.392578	
-0.392029	
-0.392273	
-0.393066	
-0.393127	
-0.393127	
-0.392883	
-0.393494	
-0.393677	
-0.393738	
-0.395203	
-0.39563	
-0.393799	
-0.394165	
-0.39325	
-0.391602	
-0.393372	
-0.393372	
-0.392883	
-0.3927	
-0.392822	
-0.39209	
-0.391296	
-0.392029	
-0.3927	
-0.391968	
-0.391174	
-0.391418	
-0.391724	
-0.391907	
-0.392517	
-0.391785	
-0.391846	
-0.392395	
-0.392517	
-0.392273	
-0.392151	
-0.393372	
-0.393311	
-0.392517	
-0.392883	
-0.392944	
-0.392212	
-0.394043	
-0.393982	
-0.393921	
-0.394348	
-0.394226	
-0.394165	
-0.393921	
-0.394592	
-0.395386	
-0.395386	
-0.394897	
-0.394836	
-0.393982	
-0.394043	
-0.394592	
-0.394653	
-0.394653	
-0.394531	
-0.394104	
-0.394348	
-0.393433	
-0.394775	
-0.395142	
-0.393921	
-0.393982	
-0.393799	
-0.393127	
-0.393982	
-0.393616	
-0.393433	
-0.393066	
-0.392578	
-0.392334	
-0.391968	
-0.392395	
-0.392395	
-0.392883	
-0.392273	
-0.39209	
-0.391846	
-0.391113	
-0.39209	
-0.391846	
-0.391663	
-0.392212	
-0.391418	
-0.391235	
-0.390747	
-0.392395	
-0.3927	
-0.391602	
-0.391174	
-0.391052	
-0.390259	
-0.390991	
-0.390686	
-0.390747	
-0.390991	
-0.390747	
-0.390686	
-0.390381	
-0.390259	
-0.391724	
-0.391907	
-0.391052	
-0.391357	
-0.390564	
-0.391296	
-0.391907	
-0.391785	
-0.392639	
-0.3927	
-0.393188	
	
