E:\DOCUMENTS AND SETTINGS\JPOTAS\MEUS DOCUMENTOS\UFRJ\RSCI-BM 12 WK SERIES\070731-RSCI-BM-12\RSCI-BM-12-LEMG\070731-RSCI-BM-12-LEMG-0017.ACQ
0.025000 msec/sample
1 channel
Analog input
Volts
CH1	
2000	
-0.397827	
-0.397522	
-0.397766	
-0.39679	
-0.396606	
-0.395813	
-0.397217	
-0.397278	
-0.397461	
-0.397583	
-0.397766	
-0.397888	
-0.3974	
-0.397339	
-0.395813	
-0.396179	
-0.396301	
-0.395813	
-0.395508	
-0.395935	
-0.396484	
-0.396484	
-0.396545	
-0.397095	
-0.397339	
-0.397705	
-0.398987	
-0.397339	
-0.397766	
-0.397339	
-0.396973	
-0.39679	
-0.39801	
-0.397766	
-0.398071	
-0.398071	
-0.399048	
-0.398804	
-0.39917	
-0.399231	
-0.397766	
-0.398193	
-0.39801	
-0.39801	
-0.397583	
-0.398376	
-0.397949	
-0.397949	
-0.397705	
-0.398071	
-0.397278	
-0.397583	
-0.39679	
-0.395813	
-0.395996	
-0.395691	
-0.395935	
-0.39563	
-0.395325	
-0.395996	
-0.396179	
-0.396423	
-0.396667	
-0.396179	
-0.396729	
-0.396729	
-0.395752	
-0.396057	
-0.395996	
-0.396362	
-0.39624	
-0.396179	
-0.395691	
-0.396545	
-0.396851	
-0.397217	
-0.397095	
-0.397095	
-0.3974	
-0.397644	
-0.396973	
-0.396118	
-0.396423	
-0.395142	
-0.396423	
-0.395508	
-0.395752	
-0.394958	
-0.395325	
-0.394836	
-0.394287	
-0.394043	
-0.394226	
-0.393799	
-0.393372	
-0.393616	
-0.392212	
-0.393188	
-0.393066	
-0.393433	
-0.393738	
-0.394165	
-0.394775	
-0.39447	
-0.394958	
-0.394592	
-0.395203	
-0.395203	
-0.395691	
-0.395264	
-0.395325	
-0.395996	
-0.396118	
-0.396545	
-0.396606	
-0.397034	
-0.396912	
-0.397949	
-0.397034	
-0.398376	
-0.397949	
-0.398743	
-0.398254	
-0.398071	
-0.39856	
-0.398865	
-0.399048	
-0.399231	
-0.398926	
-0.398254	
-0.398499	
-0.397827	
-0.399841	
-0.39801	
-0.398254	
-0.398621	
-0.396851	
-0.398254	
-0.398254	
-0.398193	
-0.398804	
-0.397522	
-0.397095	
-0.397095	
-0.395874	
-0.397217	
-0.395813	
-0.395325	
-0.395203	
-0.394165	
-0.395447	
-0.395081	
-0.394958	
-0.395203	
-0.394958	
-0.394958	
-0.39447	
-0.394104	
-0.395874	
-0.395325	
-0.394897	
-0.395203	
-0.39386	
-0.394897	
-0.394836	
-0.395325	
-0.39563	
-0.396179	
-0.395508	
-0.395508	
-0.394958	
-0.395752	
-0.39563	
-0.395081	
-0.394897	
-0.394165	
-0.394409	
-0.394836	
-0.395813	
-0.396667	
-0.397888	
-0.396301	
-0.396301	
-0.395874	
-0.3974	
-0.396606	
-0.396729	
-0.39679	
-0.395874	
-0.395935	
-0.396973	
-0.397339	
-0.398071	
-0.398865	
-0.397583	
-0.397644	
-0.397278	
-0.392029	
-0.386719	
-0.385925	
-0.385315	
-0.385132	
-0.386414	
-0.393494	
-0.397888	
-0.398926	
-0.399719	
-0.399353	
-0.398621	
-0.397644	
-0.398254	
-0.397705	
-0.397705	
-0.396851	
-0.395691	
-0.397095	
-0.396729	
-0.396362	
-0.396667	
-0.397949	
-0.397034	
-0.397278	
-0.395874	
-0.396667	
-0.396057	
-0.396179	
-0.395935	
-0.395325	
-0.395874	
-0.395508	
-0.396301	
-0.396851	
-0.397949	
-0.396667	
-0.396362	
-0.395935	
-0.396118	
-0.396667	
-0.397095	
-0.395874	
-0.395386	
-0.396179	
-0.395203	
-0.395996	
-0.396606	
-0.397827	
-0.396912	
-0.397156	
-0.396851	
-0.39679	
-0.396973	
-0.398438	
-0.39801	
-0.398621	
-0.400391	
-0.401917	
-0.404846	
-0.407471	
-0.410645	
-0.413818	
-0.416931	
-0.419983	
-0.425293	
-0.430176	
-0.438416	
-0.443665	
-0.450745	
-0.458984	
-0.467529	
-0.47522	
-0.484558	
-0.491394	
-0.499512	
-0.506042	
-0.512695	
-0.518738	
-0.524414	
-0.528809	
-0.532837	
-0.536621	
-0.539856	
-0.542786	
-0.544617	
-0.545349	
-0.546021	
-0.545593	
-0.54425	
-0.54303	
-0.540955	
-0.538635	
-0.535522	
-0.533142	
-0.531616	
-0.530396	
-0.531616	
-0.532532	
-0.533691	
-0.536438	
-0.538269	
-0.540466	
-0.543152	
-0.5448	
-0.548279	
-0.548462	
-0.550537	
-0.551392	
-0.550903	
-0.552551	
-0.552856	
-0.551086	
-0.549683	
-0.546387	
-0.541992	
-0.538635	
-0.533081	
-0.529419	
-0.522034	
-0.515564	
-0.50824	
-0.5	
-0.494141	
-0.488464	
-0.479858	
-0.473694	
-0.465942	
-0.457703	
-0.452759	
-0.445801	
-0.440186	
-0.431824	
-0.425659	
-0.418823	
-0.411682	
-0.405396	
-0.398926	
-0.389893	
-0.382385	
-0.374268	
-0.365967	
-0.35791	
-0.348511	
-0.341736	
-0.333862	
-0.326721	
-0.31958	
-0.312988	
-0.307129	
-0.302429	
-0.296997	
-0.29126	
-0.286377	
-0.282104	
-0.278442	
-0.27478	
-0.272888	
-0.269531	
-0.269226	
-0.268311	
-0.267517	
-0.268799	
-0.271545	
-0.271484	
-0.272156	
-0.274292	
-0.276428	
-0.280212	
-0.284058	
-0.288879	
-0.293213	
-0.297852	
-0.302185	
-0.306702	
-0.312744	
-0.316223	
-0.319885	
-0.322754	
-0.324524	
-0.328003	
-0.330872	
-0.333008	
-0.334351	
-0.335144	
-0.336914	
-0.338074	
-0.341675	
-0.342346	
-0.345337	
-0.345947	
-0.346863	
-0.348755	
-0.349487	
-0.351746	
-0.3526	
-0.354248	
-0.355835	
-0.356079	
-0.358398	
-0.359314	
-0.360168	
-0.360779	
-0.361267	
-0.362244	
-0.361572	
-0.363708	
-0.364563	
-0.365417	
-0.365662	
-0.366028	
-0.367676	
-0.36908	
-0.368408	
-0.368408	
-0.36908	
-0.369263	
-0.369507	
-0.370483	
-0.370728	
-0.371704	
-0.372192	
-0.372437	
-0.373047	
-0.374878	
-0.374695	
-0.376099	
-0.375732	
-0.37384	
-0.376282	
-0.376465	
-0.377136	
-0.377991	
-0.378235	
-0.378174	
-0.377747	
-0.378967	
-0.379089	
-0.378784	
-0.378967	
-0.379028	
-0.378418	
-0.377441	
-0.379089	
-0.378235	
-0.378479	
-0.378296	
-0.377991	
-0.378052	
-0.379761	
-0.378113	
-0.378662	
-0.377991	
-0.376099	
-0.377319	
-0.376709	
-0.377014	
-0.376953	
-0.376648	
-0.376465	
-0.375977	
-0.37677	
-0.378296	
-0.377075	
-0.377808	
-0.377869	
-0.376953	
-0.377319	
-0.377258	
-0.377808	
-0.377441	
-0.376831	
-0.376953	
-0.377258	
-0.377991	
-0.377563	
-0.378967	
-0.378601	
-0.377502	
-0.378967	
-0.379456	
-0.379395	
-0.380066	
-0.379944	
-0.380432	
-0.379395	
-0.381287	
-0.381958	
-0.382019	
-0.382141	
-0.381042	
-0.381958	
-0.382019	
-0.382568	
-0.382446	
-0.38269	
-0.382141	
-0.382324	
-0.383179	
-0.383789	
-0.38324	
-0.382935	
-0.383301	
-0.383667	
-0.383301	
-0.383545	
-0.383179	
-0.383728	
-0.383606	
-0.383301	
-0.38269	
-0.384705	
-0.384033	
-0.384705	
-0.383911	
-0.382813	
-0.383362	
-0.383362	
-0.384155	
-0.383789	
-0.383972	
-0.383606	
-0.382996	
-0.384583	
-0.383423	
-0.38324	
-0.383484	
-0.383118	
-0.383667	
-0.383057	
-0.382813	
-0.38269	
-0.383667	
-0.382751	
-0.382507	
-0.383118	
-0.384521	
-0.384033	
-0.384216	
-0.383484	
-0.38446	
-0.384094	
-0.382751	
-0.384033	
-0.383972	
-0.383972	
-0.383484	
-0.384277	
-0.385742	
-0.385437	
-0.385254	
-0.385986	
-0.38385	
-0.385864	
-0.385315	
-0.385193	
-0.385559	
-0.386108	
-0.386414	
-0.386047	
-0.386047	
-0.388245	
-0.386475	
-0.386475	
-0.387024	
-0.38562	
-0.386658	
-0.386292	
-0.386353	
-0.386108	
-0.387207	
-0.386658	
-0.387146	
-0.386902	
-0.388245	
-0.387329	
-0.387695	
-0.387817	
-0.388	
-0.388062	
-0.388245	
-0.387817	
-0.387634	
-0.388611	
-0.389038	
-0.388916	
-0.388123	
-0.389343	
-0.389587	
-0.390259	
-0.388428	
-0.390137	
-0.389832	
-0.388733	
-0.390076	
-0.390747	
-0.389771	
-0.390076	
-0.389587	
-0.390564	
-0.388611	
-0.378357	
-0.377869	
-0.376831	
-0.377441	
-0.377197	
-0.382629	
-0.388123	
-0.390259	
-0.388794	
-0.388428	
-0.388672	
-0.388489	
-0.388	
-0.387817	
-0.386658	
-0.388428	
-0.388123	
-0.387268	
-0.388062	
-0.388977	
-0.388611	
-0.388428	
-0.38916	
-0.388977	
-0.389526	
-0.389526	
-0.389648	
-0.389771	
-0.390503	
-0.390198	
-0.391418	
-0.391479	
-0.392517	
-0.392273	
-0.392822	
-0.394043	
-0.394653	
-0.394104	
-0.394836	
-0.393799	
-0.395996	
-0.39502	
-0.39502	
-0.394653	
-0.394958	
-0.395081	
-0.395081	
-0.394897	
-0.395996	
-0.395996	
-0.396545	
-0.396301	
-0.396423	
-0.397705	
-0.398193	
-0.399658	
-0.401123	
-0.404053	
-0.406006	
-0.408997	
-0.41272	
-0.415039	
-0.418884	
-0.422546	
-0.427368	
-0.434448	
-0.439209	
-0.446411	
-0.45343	
-0.461426	
-0.469116	
-0.476868	
-0.484924	
-0.492737	
-0.499573	
-0.506836	
-0.511963	
-0.517212	
-0.521667	
-0.526001	
-0.530762	
-0.53302	
-0.535706	
-0.53656	
-0.537354	
-0.538757	
-0.536255	
-0.535583	
-0.533875	
-0.530457	
-0.529968	
-0.527649	
-0.52771	
-0.528137	
-0.530151	
-0.533203	
-0.534607	
-0.538147	
-0.542969	
-0.544434	
-0.548523	
-0.550049	
-0.552612	
-0.554871	
-0.556091	
-0.558777	
-0.559082	
-0.560059	
-0.558777	
-0.555603	
-0.553162	
-0.549805	
-0.545532	
-0.540955	
-0.534058	
-0.527832	
-0.520508	
-0.512024	
-0.504089	
-0.496582	
-0.489441	
-0.481812	
-0.473877	
-0.467468	
-0.459412	
-0.452271	
-0.444946	
-0.436218	
-0.429016	
-0.421204	
-0.412842	
-0.404846	
-0.397217	
-0.388489	
-0.380066	
-0.371826	
-0.363708	
-0.354675	
-0.346741	
-0.339478	
-0.330811	
-0.32428	
-0.31781	
-0.310364	
-0.30481	
-0.299377	
-0.294556	
-0.289307	
-0.284241	
-0.28064	
-0.275635	
-0.272156	
-0.269531	
-0.265503	
-0.265137	
-0.263794	
-0.263367	
-0.263916	
-0.265137	
-0.267151	
-0.269348	
-0.272461	
-0.276123	
-0.278503	
-0.284973	
-0.288513	
-0.292969	
-0.298035	
-0.302734	
-0.306946	
-0.311646	
-0.315735	
-0.318726	
-0.321716	
-0.325134	
-0.326904	
-0.329834	
-0.330627	
-0.333313	
-0.334534	
-0.335266	
-0.337585	
-0.339661	
-0.342102	
-0.343079	
-0.345032	
-0.348022	
-0.348267	
-0.351563	
-0.352844	
-0.354431	
-0.356018	
-0.356628	
-0.358826	
-0.359741	
-0.36084	
-0.361572	
-0.363098	
-0.364136	
-0.364014	
-0.365601	
-0.366272	
-0.366821	
-0.36853	
-0.369568	
-0.370239	
-0.370483	
-0.371155	
-0.372192	
-0.371765	
-0.371887	
-0.37146	
-0.372131	
-0.372253	
-0.37207	
-0.372192	
-0.372375	
-0.373047	
-0.372437	
-0.37384	
-0.374634	
-0.374084	
-0.375366	
-0.374695	
-0.374268	
-0.375366	
-0.374512	
-0.375732	
-0.375183	
-0.37561	
-0.376099	
-0.377136	
-0.37738	
-0.377502	
-0.377441	
-0.378113	
-0.376709	
-0.377502	
-0.377197	
-0.37738	
-0.378418	
-0.378235	
-0.378479	
-0.37915	
-0.379395	
-0.38031	
-0.380005	
-0.381104	
-0.380493	
-0.379944	
-0.381531	
-0.381958	
-0.381226	
-0.381531	
-0.381165	
-0.381775	
-0.38269	
-0.382874	
-0.383362	
-0.383423	
-0.384033	
-0.383728	
-0.383728	
-0.382874	
-0.382813	
-0.384827	
-0.383545	
-0.384338	
-0.384705	
-0.384705	
-0.385559	
-0.385498	
-0.38562	
-0.385193	
-0.384399	
-0.384949	
-0.384399	
-0.384705	
-0.384094	
-0.385071	
-0.385071	
-0.384949	
-0.384888	
-0.385437	
-0.385559	
-0.384827	
-0.384583	
-0.383667	
-0.384888	
-0.384888	
-0.384155	
-0.384338	
-0.384766	
-0.385315	
-0.385254	
-0.385864	
-0.386047	
-0.385132	
-0.38562	
-0.384644	
-0.385986	
-0.385803	
-0.384705	
-0.38562	
-0.386414	
-0.386353	
-0.386292	
-0.387329	
-0.385925	
-0.385864	
-0.385498	
-0.385071	
-0.386658	
-0.386047	
-0.38501	
-0.385742	
-0.385864	
-0.385071	
-0.385559	
-0.386536	
-0.386108	
-0.385315	
-0.385254	
-0.38324	
-0.38623	
-0.385193	
-0.383911	
-0.385315	
-0.385376	
-0.385681	
-0.385864	
-0.38623	
-0.387085	
-0.386963	
-0.386658	
-0.38623	
-0.387512	
-0.38739	
-0.387939	
-0.387451	
-0.387207	
-0.388489	
-0.388733	
-0.38916	
-0.391357	
-0.390137	
-0.390381	
-0.390503	
-0.38855	
-0.390503	
-0.389832	
-0.388733	
-0.389648	
-0.38916	
-0.389465	
-0.389526	
-0.390076	
-0.39093	
-0.38916	
-0.389465	
-0.387634	
-0.38678	
-0.388794	
-0.387512	
-0.387512	
-0.38739	
-0.386719	
-0.387634	
-0.387024	
-0.387024	
-0.386108	
-0.385864	
-0.385864	
-0.384644	
-0.385254	
-0.384827	
-0.384705	
-0.385681	
-0.385681	
-0.386047	
-0.386597	
-0.387085	
-0.387817	
-0.386475	
-0.386597	
-0.386536	
-0.386047	
-0.38739	
-0.386658	
-0.386841	
-0.386841	
-0.387085	
-0.387451	
-0.387878	
-0.387695	
-0.388245	
-0.387207	
-0.386963	
-0.38678	
-0.386719	
-0.38739	
-0.385925	
-0.38739	
-0.387024	
-0.387573	
-0.388062	
-0.388855	
-0.388977	
-0.387695	
-0.387756	
-0.388123	
-0.387634	
-0.387634	
-0.387329	
-0.388184	
-0.388489	
-0.388306	
-0.388794	
-0.389709	
-0.389893	
-0.389648	
-0.388916	
-0.389038	
-0.387878	
-0.38916	
-0.388245	
-0.387817	
-0.388062	
-0.388306	
-0.388489	
-0.389282	
-0.388916	
-0.389099	
-0.388367	
-0.388733	
-0.387817	
-0.387512	
-0.388367	
-0.387573	
-0.387878	
-0.387817	
-0.387878	
-0.388428	
-0.388062	
-0.388672	
-0.387939	
-0.387207	
-0.388916	
-0.388489	
-0.389099	
-0.388611	
-0.388489	
-0.389038	
-0.389282	
-0.390137	
-0.390076	
-0.389954	
-0.390564	
-0.389771	
-0.389832	
-0.389343	
-0.389221	
-0.389771	
-0.389954	
-0.390076	
-0.389282	
-0.390625	
-0.390564	
-0.390137	
-0.391296	
-0.390991	
-0.388916	
-0.390198	
-0.38855	
-0.390503	
-0.389465	
-0.389526	
-0.389709	
-0.389099	
-0.389648	
-0.390503	
-0.389893	
-0.390869	
-0.390686	
-0.390137	
-0.390686	
-0.391357	
-0.391418	
-0.391479	
-0.390869	
-0.391968	
-0.392639	
-0.392761	
-0.393005	
-0.39325	
-0.39325	
-0.393677	
-0.393616	
-0.393799	
-0.393921	
-0.393616	
-0.393311	
-0.392273	
-0.392273	
-0.392944	
-0.393372	
-0.3927	
-0.392944	
-0.391907	
-0.390808	
-0.391907	
-0.391052	
-0.390991	
-0.391541	
-0.390808	
-0.390381	
-0.389954	
-0.390686	
-0.390991	
-0.390564	
-0.390747	
-0.390198	
-0.389343	
-0.388977	
-0.388489	
-0.388123	
-0.388672	
-0.387817	
-0.387817	
-0.38855	
-0.389099	
-0.388855	
-0.389343	
-0.389404	
-0.389526	
-0.388672	
-0.388977	
-0.388855	
-0.388428	
-0.38855	
-0.388428	
-0.388733	
-0.389832	
-0.390625	
-0.390869	
-0.391296	
-0.391418	
-0.390259	
-0.391846	
-0.392578	
-0.392151	
-0.391907	
-0.391724	
-0.392212	
-0.391418	
-0.392212	
-0.392151	
-0.392944	
-0.392517	
-0.392334	
-0.391907	
-0.392578	
-0.392212	
-0.393494	
-0.391357	
-0.391541	
-0.391907	
-0.3927	
-0.392761	
-0.392151	
-0.393005	
-0.392151	
-0.390869	
-0.392212	
-0.391479	
-0.391541	
-0.391724	
-0.391235	
-0.391479	
-0.391541	
-0.391479	
-0.392151	
-0.391968	
-0.392517	
-0.392456	
-0.39093	
-0.391174	
-0.391113	
-0.390076	
-0.390442	
-0.390137	
-0.39032	
-0.390198	
-0.390564	
-0.390381	
-0.390991	
-0.390442	
-0.389893	
-0.388794	
-0.388977	
-0.389404	
-0.389893	
-0.390198	
-0.389587	
-0.389587	
-0.389709	
-0.391296	
-0.39032	
-0.39032	
-0.390137	
-0.388855	
-0.389832	
-0.389526	
-0.389893	
-0.391113	
-0.391174	
-0.390625	
-0.390869	
-0.389771	
-0.39209	
-0.391052	
-0.390991	
-0.391541	
-0.391418	
-0.390808	
-0.391357	
-0.390686	
-0.392151	
-0.391541	
-0.391052	
-0.391357	
-0.390381	
-0.391663	
-0.391235	
-0.39093	
-0.391968	
-0.391052	
-0.390137	
-0.391663	
-0.390564	
-0.392578	
-0.391479	
-0.390625	
-0.391479	
-0.392029	
-0.392456	
-0.392883	
-0.392151	
-0.392639	
-0.392395	
-0.391663	
-0.393311	
-0.392334	
-0.393188	
-0.392883	
-0.393188	
-0.393127	
-0.393982	
-0.393433	
-0.394714	
-0.393188	
-0.392822	
-0.392944	
-0.3927	
-0.39325	
-0.392883	
-0.392578	
-0.392761	
-0.392334	
-0.391235	
-0.3927	
-0.391785	
-0.392151	
-0.391479	
-0.391602	
-0.39093	
-0.390747	
-0.390015	
-0.390808	
-0.389221	
-0.389648	
-0.389526	
-0.389954	
-0.390137	
-0.39032	
-0.39032	
-0.391113	
-0.390747	
-0.390381	
-0.391968	
-0.390808	
-0.392151	
-0.391724	
-0.391052	
-0.392212	
-0.392944	
-0.392944	
-0.393555	
-0.393494	
-0.393311	
-0.394226	
-0.39386	
-0.395325	
-0.394958	
-0.395996	
-0.395203	
-0.396301	
-0.396545	
-0.397034	
-0.396057	
-0.39624	
-0.395325	
-0.394836	
-0.39447	
-0.394043	
-0.395081	
-0.395386	
-0.394958	
-0.394592	
-0.394592	
-0.394165	
-0.395691	
-0.395081	
-0.395447	
-0.394287	
-0.394958	
-0.394287	
-0.393799	
-0.394653	
-0.39563	
-0.395142	
-0.394775	
-0.394653	
-0.39502	
-0.395081	
-0.39502	
-0.396423	
-0.394958	
-0.39502	
-0.394714	
-0.395264	
-0.394836	
-0.395447	
-0.395142	
-0.394226	
-0.39502	
-0.395752	
-0.394714	
-0.394592	
-0.394653	
-0.393555	
-0.394165	
-0.394104	
-0.394409	
-0.393738	
-0.394348	
-0.393982	
-0.393921	
-0.394531	
-0.395569	
-0.395508	
-0.395203	
-0.395325	
-0.394775	
-0.395691	
-0.39563	
-0.395264	
-0.395081	
-0.395386	
-0.395935	
-0.395508	
-0.395691	
-0.397278	
-0.396851	
-0.396729	
-0.396057	
-0.396973	
-0.396484	
-0.396118	
-0.39624	
-0.395569	
-0.395508	
-0.394897	
-0.395325	
-0.393982	
-0.395142	
-0.394592	
-0.394958	
-0.394653	
-0.394226	
-0.394226	
-0.394409	
-0.393982	
-0.394531	
-0.39386	
-0.392883	
-0.394348	
-0.392639	
-0.394958	
-0.394348	
-0.395203	
-0.394043	
-0.394897	
-0.394348	
-0.394226	
-0.393921	
-0.394836	
-0.394043	
-0.394226	
-0.394409	
-0.393494	
-0.394592	
-0.394775	
-0.395813	
-0.39502	
-0.394348	
-0.394714	
-0.394287	
-0.393555	
-0.394348	
-0.392822	
-0.393433	
-0.392639	
-0.391602	
-0.392395	
-0.392151	
-0.392822	
-0.392578	
-0.391357	
-0.391052	
-0.39093	
-0.390076	
-0.391479	
-0.390747	
-0.391418	
-0.391052	
-0.392578	
-0.391846	
-0.392334	
-0.392944	
-0.393188	
-0.392944	
-0.393494	
-0.3927	
-0.393555	
-0.393738	
-0.392395	
-0.393494	
-0.393738	
-0.394043	
-0.394287	
-0.39502	
-0.394592	
-0.394775	
-0.395691	
-0.396423	
-0.396606	
-0.397095	
-0.396729	
-0.39624	
-0.396973	
-0.396057	
-0.396851	
-0.396423	
-0.396423	
-0.395874	
-0.395935	
-0.396057	
-0.396057	
-0.395996	
-0.39624	
-0.395935	
-0.396057	
-0.396301	
-0.395569	
-0.396545	
-0.395386	
-0.395203	
-0.394531	
-0.393555	
-0.393982	
-0.392822	
-0.392822	
-0.393921	
-0.392273	
-0.393127	
-0.3927	
-0.391968	
-0.394043	
-0.393005	
-0.393433	
-0.392639	
-0.391602	
-0.392944	
-0.391602	
-0.392334	
-0.393677	
-0.391296	
-0.392883	
-0.393127	
-0.393372	
-0.393311	
-0.392944	
-0.393921	
-0.392944	
-0.393066	
-0.393799	
-0.392517	
-0.392883	
-0.393311	
-0.392456	
-0.393066	
-0.3927	
-0.393921	
-0.394409	
-0.394226	
-0.394409	
-0.394775	
-0.394958	
-0.394714	
-0.394226	
-0.394775	
-0.394775	
-0.395142	
-0.394836	
-0.393799	
-0.395142	
-0.395874	
-0.396057	
-0.395874	
-0.395569	
-0.39624	
-0.395752	
-0.396179	
-0.396484	
-0.395813	
-0.395935	
-0.396057	
-0.39502	
-0.396301	
-0.395325	
-0.396057	
-0.395874	
-0.395874	
-0.395752	
-0.395325	
-0.395691	
-0.395264	
-0.394043	
-0.39447	
-0.394714	
-0.394958	
-0.395386	
-0.39447	
-0.394287	
-0.394287	
-0.393738	
-0.394714	
-0.393555	
-0.393982	
-0.394165	
-0.394104	
-0.394165	
-0.393738	
-0.394287	
-0.395081	
-0.394531	
-0.394592	
-0.394348	
-0.39502	
-0.395081	
-0.393677	
-0.394226	
-0.392883	
-0.392822	
-0.394104	
-0.392456	
-0.393921	
-0.394165	
-0.393921	
-0.393921	
-0.39325	
-0.394165	
-0.393677	
-0.392395	
-0.393799	
-0.392151	
-0.392334	
-0.392212	
-0.390808	
-0.39209	
-0.392334	
-0.392456	
-0.392883	
-0.391968	
-0.3927	
-0.3927	
-0.391113	
-0.393188	
-0.392883	
-0.392883	
-0.392944	
-0.3927	
-0.393799	
-0.393494	
-0.393799	
-0.394531	
-0.394653	
-0.395142	
-0.395325	
-0.39502	
-0.395569	
-0.395508	
-0.395691	
-0.395691	
-0.395386	
-0.396179	
-0.395813	
-0.395569	
-0.39563	
-0.394287	
-0.394653	
-0.394592	
-0.394226	
-0.394165	
-0.393555	
-0.393677	
-0.393127	
-0.392944	
-0.393188	
-0.392212	
-0.392395	
-0.39209	
-0.391479	
-0.391541	
-0.390198	
-0.389648	
-0.390442	
-0.389465	
-0.389282	
-0.389221	
-0.389465	
-0.389893	
-0.389343	
-0.390259	
-0.390259	
-0.389954	
-0.390625	
-0.389954	
-0.389221	
-0.390259	
-0.389893	
-0.390198	
-0.389648	
-0.390259	
-0.390015	
-0.390076	
-0.390625	
-0.390747	
-0.390137	
-0.390686	
-0.389038	
-0.391479	
-0.390137	
-0.389526	
-0.390198	
-0.389709	
-0.39032	
-0.390198	
-0.390686	
-0.391418	
-0.389709	
-0.390503	
-0.390869	
-0.389832	
-0.391235	
-0.390381	
-0.389465	
-0.390015	
-0.390259	
-0.391785	
-0.391357	
-0.391174	
-0.392395	
-0.39032	
-0.391052	
-0.390991	
-0.391174	
-0.391785	
-0.390747	
-0.390686	
-0.391052	
-0.390991	
-0.391541	
-0.390808	
-0.391174	
-0.391174	
-0.390015	
-0.390259	
-0.390381	
-0.390686	
-0.390869	
-0.390869	
-0.389771	
-0.390503	
-0.390259	
-0.390259	
-0.389465	
-0.39093	
-0.389404	
-0.389954	
-0.389221	
-0.390137	
-0.390137	
-0.390381	
-0.390137	
-0.390076	
-0.39032	
-0.391968	
-0.391296	
-0.391724	
-0.392639	
-0.391174	
-0.391785	
-0.391724	
-0.391479	
-0.3927	
-0.391541	
-0.391418	
-0.390503	
-0.390686	
-0.392578	
-0.391479	
-0.391724	
-0.392944	
-0.390198	
-0.391235	
-0.391479	
-0.392395	
-0.392212	
-0.391296	
-0.391479	
-0.390381	
-0.391174	
-0.391968	
-0.391113	
-0.391296	
-0.392029	
-0.39093	
-0.391296	
-0.391785	
-0.391907	
-0.392822	
-0.392273	
-0.392456	
-0.3927	
-0.393494	
-0.394409	
-0.39447	
-0.394775	
-0.395142	
-0.394348	
-0.39502	
-0.393921	
-0.395264	
-0.395508	
-0.395691	
-0.394531	
-0.394104	
-0.394348	
-0.394592	
-0.394409	
-0.394287	
-0.393799	
-0.39325	
-0.393127	
-0.392883	
-0.393677	
-0.392944	
-0.392517	
-0.392151	
-0.392029	
-0.392273	
-0.391785	
-0.391785	
-0.392151	
-0.391052	
-0.390869	
-0.390564	
-0.390137	
-0.390808	
-0.389587	
-0.389709	
-0.389038	
-0.38916	
-0.390137	
-0.389771	
-0.390808	
-0.390259	
-0.389648	
-0.390198	
-0.389893	
-0.390076	
-0.389893	
-0.389709	
-0.389771	
-0.389343	
-0.390381	
-0.391113	
-0.391357	
-0.391846	
-0.39209	
-0.390442	
-0.391785	
-0.392761	
-0.392395	
-0.39325	
-0.393372	
-0.39386	
-0.391968	
-0.393188	
-0.394226	
-0.393982	
-0.393433	
-0.393921	
-0.392639	
-0.392334	
-0.392639	
-0.393127	
-0.393799	
-0.393433	
-0.39325	
-0.392456	
-0.393311	
-0.394775	
-0.394165	
-0.393677	
-0.393799	
-0.392944	
-0.393066	
-0.393433	
-0.393066	
-0.393555	
-0.393005	
-0.393188	
-0.391541	
-0.392517	
-0.39447	
-0.393005	
-0.393311	
-0.393188	
-0.392517	
-0.392883	
-0.392578	
-0.392456	
-0.392822	
-0.391663	
-0.391846	
-0.391113	
-0.391296	
-0.392334	
-0.391174	
-0.391235	
-0.391113	
-0.390808	
-0.391052	
-0.390747	
-0.392029	
-0.392212	
-0.391357	
-0.391663	
-0.390259	
-0.391602	
-0.392456	
-0.391724	
-0.391541	
-0.390869	
-0.391418	
-0.391602	
-0.391418	
-0.392822	
-0.392639	
-0.392029	
-0.392212	
-0.391907	
-0.393066	
-0.392944	
-0.393005	
-0.393066	
-0.391602	
-0.393311	
-0.393127	
-0.392151	
-0.39325	
-0.393921	
-0.393188	
-0.393127	
-0.392944	
-0.394592	
-0.393372	
-0.392822	
-0.393372	
-0.391357	
-0.392822	
-0.392639	
-0.391602	
-0.393616	
-0.394287	
-0.393127	
-0.393127	
-0.393799	
-0.394592	
-0.393677	
-0.393738	
-0.394287	
-0.394104	
-0.393921	
-0.394165	
-0.393555	
-0.394592	
-0.395691	
-0.394958	
-0.394836	
-0.395264	
-0.395447	
-0.395325	
-0.395142	
-0.394287	
-0.394714	
-0.394836	
-0.395203	
-0.394409	
-0.39447	
-0.39447	
-0.394409	
-0.393738	
-0.394958	
-0.394226	
-0.393433	
-0.393982	
-0.392822	
-0.393127	
-0.392761	
-0.392639	
-0.392822	
-0.392517	
-0.391846	
-0.392517	
-0.391479	
-0.391846	
-0.39209	
-0.392151	
-0.391907	
-0.393005	
-0.392883	
-0.392639	
-0.392883	
-0.393372	
-0.394104	
-0.394165	
-0.394165	
-0.393982	
-0.394226	
-0.395386	
-0.394775	
-0.395081	
-0.396301	
-0.395996	
-0.396606	
-0.396973	
-0.397278	
-0.398254	
-0.397766	
-0.398132	
-0.397949	
-0.397034	
-0.398071	
-0.398071	
-0.39624	
-0.397644	
-0.397217	
-0.396912	
-0.396545	
-0.397156	
-0.397949	
-0.39679	
-0.396729	
-0.39679	
-0.396912	
-0.396667	
-0.396301	
-0.395874	
-0.396729	
-0.396729	
-0.396423	
-0.396667	
-0.397827	
-0.397583	
-0.396973	
-0.397278	
-0.395874	
-0.397827	
	
