E:\DOCUMENTS AND SETTINGS\JPOTAS\MEUS DOCUMENTOS\UFRJ\RSCI-BM 12 WK SERIES\070731-RSCI-BM-12\RSCI-BM-12-LEMG\070731-RSCI-BM-12-LEMG-0012.ACQ
0.025000 msec/sample
1 channel
Analog input
Volts
CH1	
2000	
-0.396606	
-0.395264	
-0.396912	
-0.397217	
-0.397705	
-0.398071	
-0.397766	
-0.398438	
-0.398071	
-0.397583	
-0.39856	
-0.398071	
-0.397522	
-0.397583	
-0.395691	
-0.396118	
-0.397217	
-0.396423	
-0.397217	
-0.397278	
-0.397644	
-0.397339	
-0.397705	
-0.397888	
-0.397888	
-0.396973	
-0.397583	
-0.396362	
-0.396362	
-0.396973	
-0.396667	
-0.397339	
-0.397766	
-0.397827	
-0.397095	
-0.396729	
-0.396362	
-0.397522	
-0.397644	
-0.397095	
-0.396912	
-0.396912	
-0.396545	
-0.395813	
-0.396057	
-0.396545	
-0.395996	
-0.396118	
-0.39563	
-0.395386	
-0.395752	
-0.395447	
-0.394592	
-0.394653	
-0.393616	
-0.393982	
-0.394287	
-0.393188	
-0.393982	
-0.394226	
-0.394653	
-0.394043	
-0.394287	
-0.394409	
-0.393799	
-0.394287	
-0.395203	
-0.392944	
-0.393494	
-0.394287	
-0.39325	
-0.394653	
-0.395996	
-0.395386	
-0.394653	
-0.394775	
-0.395081	
-0.394714	
-0.395386	
-0.395691	
-0.394653	
-0.395935	
-0.396423	
-0.396057	
-0.397827	
-0.398193	
-0.397522	
-0.397522	
-0.397583	
-0.397827	
-0.397461	
-0.397644	
-0.397461	
-0.397339	
-0.397522	
-0.397766	
-0.397766	
-0.397827	
-0.39801	
-0.398254	
-0.398865	
-0.398376	
-0.398438	
-0.398438	
-0.398499	
-0.398315	
-0.398499	
-0.397949	
-0.39801	
-0.398621	
-0.397888	
-0.39801	
-0.397888	
-0.397949	
-0.397156	
-0.396545	
-0.397339	
-0.396729	
-0.397339	
-0.397888	
-0.396423	
-0.396118	
-0.396545	
-0.395447	
-0.397461	
-0.398071	
-0.397461	
-0.396484	
-0.396667	
-0.396545	
-0.39563	
-0.396729	
-0.396606	
-0.395386	
-0.395813	
-0.395996	
-0.395508	
-0.396301	
-0.39624	
-0.39624	
-0.39563	
-0.396057	
-0.39563	
-0.395081	
-0.395386	
-0.395325	
-0.394409	
-0.394592	
-0.394104	
-0.394531	
-0.394409	
-0.394958	
-0.395813	
-0.395081	
-0.395203	
-0.394897	
-0.395691	
-0.39624	
-0.395935	
-0.394958	
-0.395264	
-0.394958	
-0.395386	
-0.395752	
-0.396301	
-0.397034	
-0.396667	
-0.396667	
-0.396973	
-0.396606	
-0.397461	
-0.397705	
-0.397522	
-0.396606	
-0.397217	
-0.39801	
-0.397827	
-0.398376	
-0.398621	
-0.398376	
-0.398193	
-0.398682	
-0.398132	
-0.398376	
-0.399048	
-0.399719	
-0.398254	
-0.398132	
-0.39801	
-0.397827	
-0.399109	
-0.399536	
-0.400391	
-0.399475	
-0.399536	
-0.399536	
-0.399475	
-0.394531	
-0.389587	
-0.388367	
-0.388611	
-0.387878	
-0.388855	
-0.396057	
-0.401001	
-0.402222	
-0.400818	
-0.400818	
-0.400696	
-0.400208	
-0.401428	
-0.400574	
-0.399719	
-0.398926	
-0.398682	
-0.399475	
-0.399597	
-0.400146	
-0.401123	
-0.400208	
-0.399963	
-0.400146	
-0.399719	
-0.400269	
-0.400085	
-0.399719	
-0.398376	
-0.398865	
-0.398743	
-0.399292	
-0.399414	
-0.400146	
-0.399841	
-0.399841	
-0.399902	
-0.39856	
-0.399414	
-0.400391	
-0.399902	
-0.398682	
-0.399109	
-0.398376	
-0.398254	
-0.399353	
-0.400146	
-0.400024	
-0.399231	
-0.399902	
-0.40033	
-0.399658	
-0.401245	
-0.402161	
-0.401917	
-0.40271	
-0.403442	
-0.405518	
-0.40863	
-0.411743	
-0.4151	
-0.417114	
-0.420471	
-0.424133	
-0.428284	
-0.435059	
-0.441772	
-0.44751	
-0.455322	
-0.463806	
-0.471619	
-0.478821	
-0.487488	
-0.495056	
-0.501526	
-0.508484	
-0.514221	
-0.519531	
-0.525269	
-0.529602	
-0.532349	
-0.536011	
-0.539368	
-0.542053	
-0.543274	
-0.544861	
-0.54541	
-0.544617	
-0.543274	
-0.541626	
-0.53949	
-0.53772	
-0.534729	
-0.531616	
-0.531799	
-0.531311	
-0.531982	
-0.533386	
-0.535889	
-0.532837	
-0.529968	
-0.532471	
-0.536194	
-0.538391	
-0.541565	
-0.549561	
-0.55426	
-0.556396	
-0.557251	
-0.556824	
-0.555969	
-0.554871	
-0.552551	
-0.549194	
-0.544678	
-0.541382	
-0.535461	
-0.530029	
-0.523682	
-0.516479	
-0.509888	
-0.502563	
-0.496155	
-0.488892	
-0.481873	
-0.474976	
-0.466858	
-0.460083	
-0.453308	
-0.44574	
-0.439636	
-0.432373	
-0.424744	
-0.417786	
-0.411133	
-0.404358	
-0.396912	
-0.389648	
-0.381287	
-0.372986	
-0.365051	
-0.356323	
-0.349915	
-0.342224	
-0.334351	
-0.326721	
-0.319031	
-0.3125	
-0.305969	
-0.301941	
-0.296875	
-0.291809	
-0.286926	
-0.283264	
-0.279175	
-0.2771	
-0.275696	
-0.273315	
-0.27124	
-0.271057	
-0.271301	
-0.273071	
-0.275146	
-0.278809	
-0.281982	
-0.28595	
-0.290771	
-0.295898	
-0.302856	
-0.311584	
-0.31842	
-0.326233	
-0.335266	
-0.343628	
-0.353333	
-0.361694	
-0.370117	
-0.377686	
-0.385437	
-0.392822	
-0.400879	
-0.408569	
-0.413757	
-0.419312	
-0.424438	
-0.427856	
-0.434204	
-0.438416	
-0.4422	
-0.445251	
-0.447083	
-0.448853	
-0.450317	
-0.452026	
-0.452881	
-0.452271	
-0.451355	
-0.451294	
-0.450867	
-0.452026	
-0.452271	
-0.452393	
-0.453369	
-0.454651	
-0.456055	
-0.457764	
-0.460754	
-0.462769	
-0.463867	
-0.46582	
-0.466492	
-0.468872	
-0.471313	
-0.473755	
-0.475281	
-0.476074	
-0.477234	
-0.4776	
-0.477844	
-0.480469	
-0.479248	
-0.478882	
-0.478333	
-0.47699	
-0.476318	
-0.475281	
-0.474365	
-0.472839	
-0.469482	
-0.466614	
-0.463623	
-0.460876	
-0.458801	
-0.453735	
-0.449524	
-0.445129	
-0.439209	
-0.434326	
-0.428894	
-0.423706	
-0.417786	
-0.409546	
-0.403259	
-0.395325	
-0.387817	
-0.381714	
-0.373535	
-0.364685	
-0.357178	
-0.348083	
-0.340576	
-0.334167	
-0.327698	
-0.321472	
-0.313965	
-0.308411	
-0.303284	
-0.298279	
-0.295837	
-0.29303	
-0.289917	
-0.288452	
-0.286133	
-0.285095	
-0.285828	
-0.286255	
-0.287659	
-0.287048	
-0.28772	
-0.288879	
-0.289368	
-0.292358	
-0.293335	
-0.293701	
-0.296997	
-0.29895	
-0.301331	
-0.303223	
-0.306641	
-0.308044	
-0.309998	
-0.311523	
-0.313599	
-0.316956	
-0.319763	
-0.321167	
-0.323364	
-0.324402	
-0.326843	
-0.330261	
-0.332336	
-0.33374	
-0.3349	
-0.336731	
-0.338135	
-0.339905	
-0.341492	
-0.342163	
-0.342773	
-0.344971	
-0.346191	
-0.347107	
-0.3479	
-0.350281	
-0.350098	
-0.351013	
-0.352234	
-0.3526	
-0.355103	
-0.355774	
-0.356262	
-0.356201	
-0.357788	
-0.358398	
-0.360229	
-0.361511	
-0.362671	
-0.36261	
-0.363464	
-0.363586	
-0.364929	
-0.366272	
-0.366699	
-0.366577	
-0.366882	
-0.367615	
-0.367615	
-0.368469	
-0.369446	
-0.369141	
-0.369446	
-0.369324	
-0.369568	
-0.371277	
-0.370544	
-0.370361	
-0.370361	
-0.3703	
-0.370483	
-0.371033	
-0.372192	
-0.372192	
-0.372009	
-0.371765	
-0.371521	
-0.373169	
-0.373291	
-0.374146	
-0.373474	
-0.372681	
-0.374268	
-0.373535	
-0.375427	
-0.375366	
-0.375488	
-0.374878	
-0.374146	
-0.375488	
-0.37738	
-0.376709	
-0.377808	
-0.37738	
-0.377197	
-0.378296	
-0.378296	
-0.379517	
-0.379333	
-0.379089	
-0.37854	
-0.377869	
-0.379578	
-0.380005	
-0.379578	
-0.380066	
-0.379089	
-0.379395	
-0.380493	
-0.380371	
-0.382263	
-0.382751	
-0.382141	
-0.382324	
-0.382629	
-0.382751	
-0.38324	
-0.384094	
-0.383179	
-0.383362	
-0.384094	
-0.383118	
-0.385376	
-0.385437	
-0.385925	
-0.385315	
-0.384949	
-0.385925	
-0.387024	
-0.386169	
-0.386047	
-0.385864	
-0.385193	
-0.385864	
-0.386963	
-0.386658	
-0.387268	
-0.386292	
-0.385925	
-0.386841	
-0.386475	
-0.386414	
-0.385681	
-0.385559	
-0.384399	
-0.385742	
-0.386047	
-0.386658	
-0.386597	
-0.386047	
-0.386108	
-0.387512	
-0.386902	
-0.387878	
-0.387939	
-0.38739	
-0.387817	
-0.388123	
-0.388306	
-0.390015	
-0.389465	
-0.388977	
-0.388855	
-0.388977	
-0.389099	
-0.390198	
-0.390015	
-0.388489	
-0.389404	
-0.389709	
-0.389526	
-0.390076	
-0.390015	
-0.389771	
-0.39032	
-0.389954	
-0.390137	
-0.389587	
-0.389954	
-0.389771	
-0.389465	
-0.388428	
-0.388672	
-0.388733	
-0.389832	
-0.389038	
-0.388733	
-0.388306	
-0.387512	
-0.388184	
-0.389648	
-0.388977	
-0.388916	
-0.389099	
-0.388	
-0.38916	
-0.389526	
-0.390625	
-0.390747	
-0.390137	
-0.390198	
-0.389709	
-0.39032	
-0.392395	
-0.391968	
-0.392151	
-0.391296	
-0.391541	
-0.392212	
-0.393311	
-0.394043	
-0.393677	
-0.393372	
-0.3927	
-0.392639	
-0.392456	
-0.39325	
-0.392517	
-0.393494	
-0.391357	
-0.391663	
-0.392212	
-0.393066	
-0.393433	
-0.39325	
-0.392273	
-0.392334	
-0.391968	
-0.392944	
-0.392761	
-0.392578	
-0.393005	
-0.391541	
-0.392761	
-0.392212	
-0.393066	
-0.393738	
-0.393677	
-0.392639	
-0.392517	
-0.392395	
-0.393066	
-0.392212	
-0.392883	
-0.391968	
-0.390442	
-0.391602	
-0.391235	
-0.391724	
-0.392273	
-0.392273	
-0.391541	
-0.391357	
-0.390381	
-0.390808	
-0.390625	
-0.391357	
-0.389954	
-0.388367	
-0.390076	
-0.39093	
-0.391235	
-0.390686	
-0.390991	
-0.391296	
-0.391174	
-0.391541	
-0.392639	
-0.391785	
-0.391785	
-0.391235	
-0.390808	
-0.391663	
-0.392151	
-0.392517	
-0.392456	
-0.391968	
-0.391907	
-0.391357	
-0.392517	
-0.393311	
-0.39386	
-0.392761	
-0.392578	
-0.393188	
-0.392273	
-0.393555	
-0.394592	
-0.39447	
-0.394043	
-0.394043	
-0.394287	
-0.394653	
-0.394531	
-0.394775	
-0.394043	
-0.392761	
-0.393433	
-0.394287	
-0.394836	
-0.395081	
-0.39502	
-0.394714	
-0.395081	
-0.395264	
-0.395691	
-0.395447	
-0.395447	
-0.395447	
-0.394348	
-0.394714	
-0.394897	
-0.395325	
-0.394531	
-0.394409	
-0.393921	
-0.393982	
-0.394653	
-0.39563	
-0.394592	
-0.393921	
-0.393311	
-0.392883	
-0.393921	
-0.393982	
-0.394653	
-0.394287	
-0.394653	
-0.394287	
-0.393372	
-0.394104	
-0.394409	
-0.394958	
-0.394348	
-0.393555	
-0.392334	
-0.393188	
-0.393982	
-0.393982	
-0.393433	
-0.393372	
-0.393188	
-0.392151	
-0.393127	
-0.393494	
-0.393738	
-0.392944	
-0.392822	
-0.392029	
-0.391296	
-0.392761	
-0.39325	
-0.393005	
-0.392822	
-0.393433	
-0.392395	
-0.392883	
-0.393555	
-0.394653	
-0.393372	
-0.393799	
-0.392822	
-0.392151	
-0.394043	
-0.394348	
-0.394165	
-0.394531	
-0.395325	
-0.39386	
-0.395142	
-0.395569	
-0.395813	
-0.395203	
-0.395325	
-0.395264	
-0.394531	
-0.396057	
-0.397217	
-0.39563	
-0.39624	
-0.396912	
-0.39563	
-0.395813	
-0.396667	
-0.39679	
-0.396667	
-0.396545	
-0.396118	
-0.395874	
-0.396912	
-0.397644	
-0.397644	
-0.397644	
-0.398804	
-0.396606	
-0.398254	
-0.39856	
-0.397949	
-0.398865	
-0.398499	
-0.397766	
-0.397888	
-0.398987	
-0.399414	
-0.39856	
-0.399048	
-0.39917	
-0.397339	
-0.398499	
-0.399109	
-0.397766	
-0.397827	
-0.397705	
-0.396057	
-0.397766	
-0.397827	
-0.398376	
-0.397278	
-0.397522	
-0.398865	
-0.39679	
-0.398132	
-0.399048	
-0.397949	
-0.397949	
-0.3974	
-0.396362	
-0.39679	
-0.396912	
-0.397583	
-0.39624	
-0.396606	
-0.397095	
-0.395447	
-0.396423	
-0.397766	
-0.39679	
-0.396545	
-0.396179	
-0.395203	
-0.395569	
-0.395813	
-0.396423	
-0.395996	
-0.395691	
-0.396423	
-0.395081	
-0.395325	
-0.396179	
-0.395569	
-0.395142	
-0.39447	
-0.394043	
-0.39386	
-0.394897	
-0.395264	
-0.395142	
-0.395203	
-0.395874	
-0.394287	
-0.394836	
-0.396057	
-0.394958	
-0.395203	
-0.395081	
-0.393982	
-0.394531	
-0.395447	
-0.39563	
-0.39563	
-0.39563	
-0.396423	
-0.39624	
-0.396667	
-0.397339	
-0.397644	
-0.398621	
-0.39801	
-0.396851	
-0.397949	
-0.397949	
-0.398804	
-0.399048	
-0.398743	
-0.39856	
-0.39801	
-0.398376	
-0.399048	
-0.397827	
-0.398193	
-0.397339	
-0.395935	
-0.396484	
-0.395691	
-0.397034	
-0.396545	
-0.395508	
-0.395569	
-0.395203	
-0.394592	
-0.395935	
-0.395264	
-0.395386	
-0.394226	
-0.393188	
-0.393494	
-0.392761	
-0.393921	
-0.39447	
-0.39386	
-0.394226	
-0.393738	
-0.391968	
-0.394531	
-0.393127	
-0.393799	
-0.392761	
-0.392151	
-0.392273	
-0.392334	
-0.392883	
-0.393921	
-0.393066	
-0.392822	
-0.393127	
-0.391479	
-0.393188	
-0.392639	
-0.392212	
-0.392151	
-0.391113	
-0.390259	
-0.390015	
-0.391418	
-0.392639	
-0.391113	
-0.391418	
-0.391907	
-0.390625	
-0.391785	
-0.391541	
-0.390503	
-0.391113	
-0.389282	
-0.390137	
-0.389343	
-0.390564	
-0.391602	
-0.391052	
-0.390869	
-0.392395	
-0.390991	
-0.39209	
-0.391602	
-0.390015	
-0.390503	
-0.389221	
-0.390076	
-0.390198	
-0.390747	
-0.390747	
-0.390991	
-0.391235	
-0.391541	
-0.390808	
-0.391602	
-0.390564	
-0.390747	
-0.390564	
-0.389648	
-0.389587	
-0.389404	
-0.391052	
-0.390991	
-0.391479	
-0.391235	
-0.392883	
-0.391846	
-0.393005	
-0.392395	
-0.391724	
-0.391907	
-0.391968	
-0.392151	
-0.391724	
-0.3927	
-0.393799	
-0.393921	
-0.394043	
-0.394958	
-0.394714	
-0.394592	
-0.394104	
-0.394043	
-0.394226	
-0.393494	
-0.393799	
-0.393188	
-0.393372	
-0.393188	
-0.394531	
-0.394043	
-0.394409	
-0.393127	
-0.393738	
-0.393494	
-0.392639	
-0.393066	
-0.392517	
-0.392639	
-0.392883	
-0.393127	
-0.393127	
-0.39325	
-0.391907	
-0.392395	
-0.391357	
-0.391174	
-0.390747	
-0.39093	
-0.390625	
-0.390015	
-0.390198	
-0.390381	
-0.390564	
-0.390503	
-0.39093	
-0.390686	
-0.390747	
-0.390137	
-0.390442	
-0.390625	
-0.390381	
-0.390381	
-0.390198	
-0.389954	
-0.388916	
-0.389832	
-0.39032	
-0.390869	
-0.390137	
-0.390381	
-0.389832	
-0.388489	
-0.390503	
-0.390808	
-0.39032	
-0.390259	
-0.390686	
-0.389404	
-0.390564	
-0.390686	
-0.392212	
-0.390564	
-0.390747	
-0.390442	
-0.389526	
-0.391541	
-0.391541	
-0.391418	
-0.390564	
-0.390259	
-0.389771	
-0.391357	
-0.391357	
-0.391846	
-0.391052	
-0.391724	
-0.390991	
-0.390686	
-0.392151	
-0.392456	
-0.392456	
-0.393005	
-0.391968	
-0.392456	
-0.393433	
-0.393799	
-0.394714	
-0.39325	
-0.393494	
-0.393005	
-0.392273	
-0.393494	
-0.393433	
-0.393494	
-0.393066	
-0.391846	
-0.391846	
-0.392151	
-0.392395	
-0.392761	
-0.392822	
-0.3927	
-0.392029	
-0.39093	
-0.392395	
-0.391785	
-0.391907	
-0.390991	
-0.390442	
-0.39032	
-0.391235	
-0.391296	
-0.390625	
-0.390015	
-0.390137	
-0.390076	
-0.389465	
-0.39032	
-0.390198	
-0.390625	
-0.388855	
-0.389099	
-0.387939	
-0.388855	
-0.388977	
-0.389526	
-0.389709	
-0.389587	
-0.389648	
-0.388855	
-0.389526	
-0.389343	
-0.389465	
-0.388367	
-0.387756	
-0.387085	
-0.387268	
-0.388123	
-0.388245	
-0.388733	
-0.388428	
-0.388245	
-0.387878	
-0.388123	
-0.388855	
-0.388428	
-0.387695	
-0.387146	
-0.386963	
-0.38678	
-0.387695	
-0.388062	
-0.388977	
-0.388428	
-0.388855	
-0.387878	
-0.388428	
-0.389038	
-0.387817	
-0.388	
-0.387329	
-0.387512	
-0.387512	
-0.388245	
-0.387756	
-0.388611	
-0.388489	
-0.389648	
-0.388489	
-0.388245	
-0.390442	
-0.389221	
-0.388855	
-0.388245	
-0.387451	
-0.387939	
-0.388306	
-0.388123	
-0.388794	
-0.388672	
-0.38916	
-0.388855	
-0.38855	
-0.390198	
-0.389221	
-0.38916	
-0.389526	
-0.388245	
-0.388977	
-0.390137	
-0.39032	
-0.391052	
-0.390198	
-0.391052	
-0.390198	
-0.389771	
-0.392151	
-0.39032	
-0.390503	
-0.390503	
-0.389282	
-0.389587	
-0.390503	
-0.391052	
-0.391174	
-0.390259	
-0.390991	
-0.390198	
-0.389221	
-0.391357	
-0.389404	
-0.390259	
-0.389465	
-0.388123	
-0.389038	
-0.389221	
-0.388855	
-0.388672	
-0.388	
-0.388672	
-0.387146	
-0.387085	
-0.38855	
-0.38623	
-0.387512	
-0.387329	
-0.386353	
-0.388062	
-0.38855	
-0.388977	
-0.389526	
-0.388855	
-0.389282	
-0.389038	
-0.389465	
-0.390381	
-0.389404	
-0.390869	
-0.390015	
-0.389099	
-0.390381	
-0.390442	
-0.391479	
-0.390991	
-0.39093	
-0.391602	
-0.391052	
-0.391602	
-0.392517	
-0.392212	
-0.392761	
-0.392761	
-0.391663	
-0.392029	
-0.39093	
-0.392761	
-0.392395	
-0.392334	
-0.393066	
-0.392944	
-0.3927	
-0.393372	
-0.393982	
-0.39386	
-0.393188	
-0.392334	
-0.392273	
-0.393005	
-0.39386	
-0.393677	
-0.394226	
-0.394104	
-0.394287	
-0.394104	
-0.394897	
-0.395142	
-0.395203	
-0.395508	
-0.394775	
-0.394531	
-0.39563	
-0.396057	
-0.395569	
-0.395386	
-0.395935	
-0.395569	
-0.395203	
-0.395691	
-0.395752	
-0.395081	
-0.395386	
-0.394897	
-0.394348	
-0.394531	
-0.393616	
-0.395386	
-0.395325	
-0.395325	
-0.395203	
-0.394897	
-0.39563	
-0.395691	
-0.395508	
-0.395874	
-0.394714	
-0.394531	
-0.394775	
-0.394287	
-0.395813	
-0.395386	
-0.39563	
-0.396179	
-0.39563	
-0.395752	
-0.395508	
-0.394287	
-0.395264	
-0.394165	
-0.393921	
-0.393738	
-0.393494	
-0.394836	
-0.393738	
-0.393677	
-0.394287	
-0.392578	
-0.393311	
-0.392578	
-0.391418	
-0.392334	
-0.391479	
-0.391541	
-0.391663	
-0.391907	
-0.392578	
-0.391846	
-0.391663	
-0.392578	
-0.391418	
-0.392883	
-0.392883	
-0.391296	
-0.392761	
-0.392578	
-0.39209	
-0.392395	
-0.392761	
-0.393555	
-0.392761	
-0.392944	
-0.393738	
-0.392456	
-0.392883	
-0.393616	
-0.39386	
-0.394348	
-0.394226	
-0.394531	
-0.39502	
-0.395325	
-0.395203	
-0.39563	
-0.396179	
-0.395874	
-0.395752	
-0.395935	
-0.396362	
-0.396606	
-0.396118	
-0.395142	
-0.395203	
-0.394714	
-0.395996	
-0.395752	
-0.396484	
-0.396179	
-0.396484	
-0.397034	
-0.39679	
-0.397095	
-0.397339	
-0.396423	
-0.397217	
-0.396484	
-0.394897	
-0.395569	
-0.395752	
-0.396423	
-0.395691	
-0.395874	
-0.39624	
-0.39563	
-0.396484	
-0.395996	
-0.394836	
-0.396057	
-0.393982	
-0.394653	
-0.395264	
-0.395325	
-0.395203	
-0.395447	
-0.395081	
-0.395325	
-0.393738	
-0.395691	
-0.395081	
-0.393799	
-0.39502	
-0.393677	
-0.393311	
-0.394348	
-0.393677	
-0.394409	
-0.393433	
-0.393982	
-0.394043	
-0.393372	
-0.394226	
-0.393616	
-0.393127	
-0.393494	
-0.392822	
-0.391968	
-0.39325	
-0.392761	
-0.39386	
-0.393555	
-0.393799	
-0.393372	
-0.394104	
-0.39447	
-0.394531	
-0.393616	
-0.394104	
-0.39386	
-0.393616	
-0.394409	
-0.394348	
-0.39502	
-0.394775	
-0.39502	
-0.395569	
-0.395569	
-0.39563	
-0.396606	
-0.395813	
-0.395996	
-0.395935	
-0.395203	
-0.39679	
-0.396606	
-0.396729	
-0.396545	
-0.396729	
-0.396851	
-0.397217	
-0.3974	
-0.398621	
-0.396667	
-0.39679	
-0.396667	
-0.395691	
-0.397644	
-0.397461	
-0.398315	
-0.398132	
-0.397949	
-0.398499	
-0.398254	
-0.398682	
-0.400146	
-0.398926	
-0.397949	
-0.398865	
-0.397034	
-0.399109	
-0.398987	
-0.399475	
-0.398926	
-0.39917	
-0.399353	
-0.399658	
-0.399109	
-0.399719	
-0.398438	
-0.397949	
-0.398132	
-0.395691	
-0.398193	
-0.398193	
-0.398438	
-0.398682	
-0.398682	
-0.398376	
-0.399109	
-0.398682	
-0.399597	
-0.398621	
-0.398132	
-0.398682	
-0.396301	
-0.397522	
-0.397156	
-0.39679	
-0.397461	
-0.397705	
-0.397888	
-0.397888	
-0.397217	
-0.398743	
-0.398376	
-0.398132	
-0.398132	
-0.395996	
-0.3974	
-0.397278	
-0.396912	
-0.397522	
-0.396851	
-0.397217	
-0.397034	
-0.396667	
-0.397278	
-0.397156	
-0.39624	
-0.396484	
-0.394531	
-0.395325	
-0.395752	
-0.395081	
-0.397034	
-0.395996	
-0.395874	
-0.395935	
-0.39563	
-0.396301	
-0.396729	
-0.395508	
-0.39624	
-0.395081	
-0.395691	
-0.396667	
-0.395508	
-0.397888	
-0.396729	
-0.396973	
-0.397156	
-0.398132	
-0.398621	
-0.399048	
-0.398804	
-0.398987	
-0.398132	
-0.398926	
-0.399353	
-0.398865	
-0.399475	
-0.399475	
-0.399109	
-0.399231	
-0.399719	
-0.399414	
-0.399048	
-0.398804	
-0.397461	
-0.397217	
-0.397278	
-0.39679	
-0.396667	
-0.397156	
-0.397034	
-0.396362	
-0.39624	
-0.396057	
-0.396118	
-0.395691	
-0.396057	
-0.394775	
-0.39502	
-0.394836	
-0.394409	
-0.394653	
-0.395142	
-0.395325	
-0.394409	
-0.394287	
-0.394226	
-0.394653	
-0.394836	
-0.394958	
-0.393738	
-0.394958	
-0.394409	
-0.393066	
-0.393311	
-0.393127	
-0.394165	
-0.393311	
-0.393433	
-0.394104	
-0.392517	
-0.393127	
-0.393738	
-0.393066	
-0.392883	
-0.392456	
-0.391602	
-0.392639	
-0.391663	
-0.393188	
-0.392639	
-0.392456	
-0.392151	
-0.391296	
-0.391724	
-0.392395	
-0.39209	
-0.392456	
-0.391785	
-0.391418	
-0.391785	
-0.392029	
-0.392944	
-0.391602	
-0.391846	
-0.392395	
-0.392578	
-0.392517	
-0.392822	
-0.391846	
-0.392212	
-0.392151	
-0.391418	
-0.391541	
-0.390991	
-0.39209	
-0.392212	
-0.392395	
-0.392334	
-0.392883	
-0.393127	
-0.392151	
-0.39209	
-0.391724	
-0.391785	
-0.391602	
-0.391724	
-0.39093	
-0.392639	
-0.393433	
-0.393188	
-0.39386	
-0.393982	
-0.393616	
-0.393616	
-0.394043	
-0.393433	
-0.39386	
-0.394287	
-0.394592	
-0.393494	
-0.395447	
-0.396423	
-0.395447	
-0.395386	
-0.396851	
-0.39502	
-0.395386	
-0.396362	
-0.394714	
-0.395081	
-0.394958	
-0.394531	
-0.394226	
-0.395142	
-0.395691	
-0.394348	
-0.394531	
-0.395386	
-0.394165	
-0.394714	
-0.395142	
-0.393372	
-0.393738	
-0.394592	
-0.393127	
-0.393433	
-0.393372	
-0.393921	
-0.392944	
-0.392456	
-0.393616	
-0.392334	
-0.39209	
-0.392639	
-0.390991	
-0.391357	
-0.391541	
-0.390625	
-0.391235	
-0.391479	
-0.392273	
-0.391785	
-0.391541	
-0.391846	
-0.391663	
-0.391968	
-0.392395	
-0.391479	
-0.392273	
-0.391235	
-0.390747	
-0.391724	
-0.389771	
-0.391357	
-0.391602	
-0.391541	
-0.391541	
-0.391785	
-0.392029	
-0.392151	
-0.391907	
-0.392517	
-0.392395	
-0.392212	
-0.391846	
-0.391663	
-0.39209	
-0.392273	
-0.3927	
-0.392639	
-0.392883	
-0.393311	
-0.392761	
-0.392761	
-0.393005	
-0.391418	
-0.392578	
-0.392517	
-0.392822	
-0.393372	
-0.393982	
-0.393311	
-0.393127	
-0.393982	
-0.39447	
-0.394958	
-0.395081	
-0.394958	
-0.394836	
-0.395081	
-0.394653	
-0.395203	
-0.395325	
-0.395508	
-0.39502	
-0.394836	
-0.395081	
-0.394653	
-0.394531	
-0.395874	
-0.394287	
-0.393677	
-0.394104	
-0.393372	
-0.393738	
-0.393555	
-0.393921	
-0.393433	
-0.393799	
-0.394409	
-0.39325	
-0.393677	
-0.393372	
-0.39209	
-0.392334	
-0.392029	
-0.391907	
-0.391663	
-0.392029	
-0.39209	
-0.392029	
-0.391785	
-0.392212	
-0.391785	
-0.392395	
-0.391724	
-0.390259	
-0.39093	
-0.390076	
-0.390564	
-0.390198	
-0.390686	
-0.391235	
-0.391357	
-0.390625	
-0.391357	
-0.390381	
-0.39093	
-0.39032	
-0.389099	
-0.390259	
-0.388977	
-0.389038	
-0.389893	
-0.389587	
-0.389832	
-0.39032	
-0.389404	
-0.390015	
-0.389465	
-0.389954	
-0.389954	
-0.389038	
-0.389954	
-0.388672	
-0.38916	
-0.389709	
-0.390015	
-0.389954	
-0.391235	
-0.389832	
-0.390015	
-0.389893	
-0.389099	
-0.389648	
-0.389465	
-0.390564	
-0.389099	
-0.389038	
-0.389648	
-0.389954	
-0.390564	
-0.391418	
-0.390503	
-0.390747	
-0.391663	
-0.390076	
-0.390564	
-0.390564	
-0.390625	
-0.389893	
-0.390015	
-0.390076	
-0.388977	
-0.390625	
-0.391235	
-0.390808	
-0.39093	
-0.392273	
-0.391418	
-0.391663	
-0.391907	
-0.391846	
-0.391174	
-0.391235	
-0.391846	
-0.391296	
-0.39209	
-0.39209	
-0.392456	
-0.392456	
-0.393127	
-0.3927	
-0.393555	
-0.393188	
-0.391846	
-0.392029	
-0.391602	
-0.392029	
-0.391724	
-0.392273	
-0.392395	
-0.392151	
-0.391968	
-0.3927	
-0.391541	
-0.39209	
-0.391724	
-0.390259	
-0.39032	
-0.38916	
-0.389282	
-0.390137	
-0.389404	
-0.389282	
-0.389709	
-0.389404	
-0.389893	
-0.389221	
-0.390076	
-0.390076	
-0.389099	
-0.390259	
-0.388855	
-0.389526	
-0.390564	
-0.390381	
-0.390869	
-0.391663	
-0.391479	
-0.392761	
-0.391724	
-0.392029	
-0.393066	
-0.391479	
-0.392578	
-0.391602	
-0.392456	
-0.39325	
-0.39209	
-0.393921	
-0.394714	
-0.393616	
-0.394775	
-0.393372	
-0.392517	
-0.394043	
-0.393188	
-0.394714	
-0.393738	
-0.393921	
-0.394531	
-0.394165	
-0.394592	
-0.39502	
-0.394897	
-0.39563	
-0.394714	
-0.394287	
-0.394958	
-0.394165	
-0.395813	
-0.395264	
-0.395447	
-0.394775	
-0.395691	
-0.395996	
-0.396545	
-0.395874	
-0.396912	
	
