E:\DOCUMENTS AND SETTINGS\JPOTAS\MEUS DOCUMENTOS\UFRJ\RSCI-BM 12 WK SERIES\070731-RSCI-BM-12\RSCI-BM-12-LEMG\070731-RSCI-BM-12-LEMG-0005.ACQ
0.025000 msec/sample
1 channel
Analog input
Volts
CH1	
2000	
-0.393555	
-0.393005	
-0.393982	
-0.394043	
-0.394653	
-0.39502	
-0.394897	
-0.395569	
-0.395447	
-0.394348	
-0.395935	
-0.396423	
-0.396484	
-0.3974	
-0.396423	
-0.396118	
-0.396729	
-0.397156	
-0.398193	
-0.396973	
-0.39679	
-0.396423	
-0.396667	
-0.397217	
-0.398132	
-0.397705	
-0.397888	
-0.3974	
-0.397461	
-0.397217	
-0.397522	
-0.398438	
-0.398865	
-0.39679	
-0.396729	
-0.396118	
-0.39624	
-0.397522	
-0.397888	
-0.397522	
-0.397339	
-0.396606	
-0.395691	
-0.396973	
-0.396606	
-0.397766	
-0.398438	
-0.398315	
-0.397827	
-0.396973	
-0.3974	
-0.39856	
-0.398926	
-0.398376	
-0.398926	
-0.397949	
-0.397095	
-0.39801	
-0.397766	
-0.398743	
-0.399536	
-0.398987	
-0.39856	
-0.398743	
-0.399841	
-0.401001	
-0.401245	
-0.400513	
-0.401184	
-0.40094	
-0.400818	
-0.401001	
-0.40094	
-0.402466	
-0.401978	
-0.401428	
-0.401062	
-0.399841	
-0.400146	
-0.40155	
-0.401001	
-0.401062	
-0.400574	
-0.400635	
-0.40033	
-0.400757	
-0.40033	
-0.400146	
-0.400757	
-0.399902	
-0.398865	
-0.398804	
-0.398865	
-0.39978	
-0.399353	
-0.398987	
-0.398132	
-0.397827	
-0.397583	
-0.397034	
-0.398499	
-0.397034	
-0.396362	
-0.396057	
-0.394714	
-0.395325	
-0.395447	
-0.395264	
-0.395386	
-0.395874	
-0.39447	
-0.393799	
-0.394348	
-0.393738	
-0.395203	
-0.393738	
-0.39325	
-0.392883	
-0.391785	
-0.392395	
-0.392578	
-0.393188	
-0.39325	
-0.39386	
-0.392883	
-0.392578	
-0.393127	
-0.393127	
-0.394714	
-0.394287	
-0.393616	
-0.393982	
-0.392944	
-0.393127	
-0.394348	
-0.395325	
-0.395203	
-0.395142	
-0.395203	
-0.395264	
-0.395447	
-0.396362	
-0.395996	
-0.395874	
-0.395508	
-0.395935	
-0.395935	
-0.395508	
-0.395996	
-0.397095	
-0.396912	
-0.396484	
-0.396484	
-0.396057	
-0.395935	
-0.397644	
-0.397095	
-0.396545	
-0.395935	
-0.395264	
-0.395874	
-0.39624	
-0.396057	
-0.397217	
-0.396057	
-0.395386	
-0.395142	
-0.394592	
-0.394165	
-0.396545	
-0.395325	
-0.394897	
-0.394348	
-0.393433	
-0.395142	
-0.395996	
-0.395813	
-0.397034	
-0.39624	
-0.396606	
-0.397034	
-0.396545	
-0.398438	
-0.398804	
-0.399109	
-0.398804	
-0.398499	
-0.397339	
-0.397827	
-0.398865	
-0.399231	
-0.399414	
-0.39917	
-0.39917	
-0.399353	
-0.399414	
-0.400696	
-0.393982	
-0.388855	
-0.387451	
-0.386902	
-0.387146	
-0.386414	
-0.394653	
-0.400452	
-0.400757	
-0.399902	
-0.400391	
-0.399719	
-0.400146	
-0.401611	
-0.400452	
-0.399719	
-0.40033	
-0.398682	
-0.399536	
-0.39978	
-0.400391	
-0.401306	
-0.40155	
-0.400085	
-0.394165	
-0.387817	
-0.386536	
-0.388245	
-0.387451	
-0.386841	
-0.3927	
-0.396179	
-0.39679	
-0.397522	
-0.397522	
-0.397034	
-0.397095	
-0.395996	
-0.395264	
-0.394592	
-0.394714	
-0.395935	
-0.395264	
-0.395203	
-0.394287	
-0.394348	
-0.394287	
-0.394592	
-0.395325	
-0.394958	
-0.395813	
-0.395386	
-0.395325	
-0.396118	
-0.397522	
-0.398376	
-0.399719	
-0.40033	
-0.401855	
-0.404968	
-0.408203	
-0.4104	
-0.413696	
-0.416748	
-0.420044	
-0.423645	
-0.427185	
-0.434509	
-0.441406	
-0.447815	
-0.45459	
-0.461182	
-0.468445	
-0.475098	
-0.481384	
-0.488831	
-0.494019	
-0.49884	
-0.502686	
-0.505676	
-0.509644	
-0.51416	
-0.51709	
-0.519226	
-0.520691	
-0.52124	
-0.522644	
-0.523621	
-0.523499	
-0.523315	
-0.521484	
-0.52002	
-0.518372	
-0.517456	
-0.517639	
-0.515625	
-0.515625	
-0.516785	
-0.518188	
-0.521729	
-0.525574	
-0.530029	
-0.534607	
-0.539368	
-0.542236	
-0.545044	
-0.548706	
-0.55127	
-0.553467	
-0.553589	
-0.552917	
-0.552551	
-0.550842	
-0.548401	
-0.546692	
-0.544983	
-0.54071	
-0.535767	
-0.529785	
-0.523193	
-0.517456	
-0.512451	
-0.505188	
-0.497742	
-0.490784	
-0.483276	
-0.478149	
-0.471619	
-0.464783	
-0.45874	
-0.452454	
-0.44574	
-0.439575	
-0.431885	
-0.426147	
-0.421997	
-0.414185	
-0.406738	
-0.399292	
-0.39032	
-0.384521	
-0.376648	
-0.368774	
-0.360657	
-0.352722	
-0.344238	
-0.336609	
-0.327942	
-0.321167	
-0.316528	
-0.308472	
-0.301575	
-0.295288	
-0.288269	
-0.285583	
-0.281921	
-0.278992	
-0.276001	
-0.272827	
-0.27124	
-0.270142	
-0.270142	
-0.271301	
-0.271301	
-0.272705	
-0.274658	
-0.276672	
-0.280273	
-0.283936	
-0.289673	
-0.294128	
-0.298157	
-0.30304	
-0.307739	
-0.313293	
-0.321289	
-0.325195	
-0.329041	
-0.333069	
-0.337463	
-0.341064	
-0.344055	
-0.347107	
-0.349182	
-0.350037	
-0.350708	
-0.350525	
-0.351746	
-0.354187	
-0.354858	
-0.35437	
-0.355164	
-0.355835	
-0.356445	
-0.359375	
-0.360962	
-0.362122	
-0.363647	
-0.365295	
-0.366699	
-0.367981	
-0.370422	
-0.371338	
-0.372131	
-0.373352	
-0.374084	
-0.375061	
-0.377869	
-0.379211	
-0.380798	
-0.381042	
-0.381958	
-0.382996	
-0.384583	
-0.38623	
-0.386963	
-0.38678	
-0.387024	
-0.386902	
-0.388123	
-0.389343	
-0.389893	
-0.390686	
-0.390015	
-0.390381	
-0.390442	
-0.390076	
-0.392456	
-0.391968	
-0.391846	
-0.392151	
-0.392395	
-0.393372	
-0.393921	
-0.394409	
-0.394226	
-0.393677	
-0.393982	
-0.392334	
-0.392395	
-0.39325	
-0.392151	
-0.391907	
-0.390015	
-0.388306	
-0.388733	
-0.387695	
-0.388	
-0.386841	
-0.386353	
-0.384949	
-0.38446	
-0.384033	
-0.384521	
-0.384888	
-0.384216	
-0.384338	
-0.383484	
-0.383972	
-0.38501	
-0.385376	
-0.386353	
-0.386658	
-0.386658	
-0.387146	
-0.387512	
-0.389221	
-0.389954	
-0.390076	
-0.391235	
-0.390381	
-0.391113	
-0.39093	
-0.391479	
-0.392761	
-0.392883	
-0.392639	
-0.392578	
-0.392151	
-0.393494	
-0.394104	
-0.39447	
-0.394348	
-0.393616	
-0.394287	
-0.395508	
-0.395935	
-0.395874	
-0.3974	
-0.396973	
-0.396973	
-0.397583	
-0.397339	
-0.399048	
-0.398804	
-0.399048	
-0.399048	
-0.398315	
-0.39978	
-0.40094	
-0.400452	
-0.401062	
-0.400574	
-0.400208	
-0.4021	
-0.400879	
-0.401245	
-0.401733	
-0.400085	
-0.400085	
-0.398804	
-0.399658	
-0.399719	
-0.398926	
-0.399048	
-0.398071	
-0.396362	
-0.397705	
-0.396179	
-0.395935	
-0.395264	
-0.393372	
-0.393982	
-0.394043	
-0.392273	
-0.393005	
-0.392395	
-0.392151	
-0.391052	
-0.390747	
-0.390869	
-0.389648	
-0.389771	
-0.390137	
-0.388611	
-0.388855	
-0.388794	
-0.388	
-0.388428	
-0.388611	
-0.388855	
-0.387939	
-0.387573	
-0.387878	
-0.386719	
-0.387634	
-0.386108	
-0.386841	
-0.384949	
-0.384705	
-0.384705	
-0.383728	
-0.384583	
-0.38385	
-0.383484	
-0.382996	
-0.382935	
-0.38385	
-0.383362	
-0.383118	
-0.383667	
-0.383667	
-0.384338	
-0.383667	
-0.385132	
-0.385681	
-0.387634	
-0.387512	
-0.387878	
-0.388611	
-0.388184	
-0.389465	
-0.39032	
-0.390076	
-0.390747	
-0.389893	
-0.390686	
-0.391968	
-0.39209	
-0.393494	
-0.394409	
-0.394714	
-0.393555	
-0.393982	
-0.39325	
-0.394104	
-0.394775	
-0.394531	
-0.394409	
-0.393982	
-0.394043	
-0.393982	
-0.392639	
-0.393982	
-0.394104	
-0.393555	
-0.393738	
-0.394531	
-0.395325	
-0.394958	
-0.394714	
-0.39563	
-0.393372	
-0.393433	
-0.394531	
-0.393982	
-0.394409	
-0.395813	
-0.395935	
-0.39502	
-0.394775	
-0.394348	
-0.394165	
-0.394653	
-0.39447	
-0.393677	
-0.392822	
-0.39386	
-0.393799	
-0.39386	
-0.393616	
-0.393372	
-0.393127	
-0.393738	
-0.393738	
-0.393616	
-0.392395	
-0.392883	
-0.392456	
-0.390808	
-0.391907	
-0.39209	
-0.391052	
-0.392334	
-0.392639	
-0.392578	
-0.392029	
-0.392761	
-0.392273	
-0.390381	
-0.391174	
-0.391968	
-0.390747	
-0.390747	
-0.390991	
-0.390442	
-0.391174	
-0.392029	
-0.391907	
-0.391663	
-0.391968	
-0.391479	
-0.392639	
-0.391235	
-0.391357	
-0.391479	
-0.389526	
-0.390991	
-0.391052	
-0.390381	
-0.391968	
-0.391968	
-0.39209	
-0.391785	
-0.391235	
-0.391663	
-0.390808	
-0.391907	
-0.391663	
-0.390015	
-0.390747	
-0.391418	
-0.391235	
-0.391235	
-0.392273	
-0.392334	
-0.393066	
-0.392944	
-0.393005	
-0.394226	
-0.393188	
-0.393921	
-0.394836	
-0.393066	
-0.394043	
-0.394348	
-0.394104	
-0.394897	
-0.395081	
-0.395874	
-0.395142	
-0.394714	
-0.395325	
-0.395508	
-0.39502	
-0.394958	
-0.395386	
-0.394348	
-0.395142	
-0.395081	
-0.394043	
-0.395081	
-0.39447	
-0.394836	
-0.394104	
-0.394226	
-0.39502	
-0.393188	
-0.394287	
-0.394104	
-0.392395	
-0.394043	
-0.393799	
-0.393677	
-0.394165	
-0.395386	
-0.394775	
-0.394958	
-0.394897	
-0.394287	
-0.395996	
-0.395203	
-0.395142	
-0.395569	
-0.393921	
-0.395508	
-0.395325	
-0.394531	
-0.396118	
-0.396484	
-0.39679	
-0.39563	
-0.396118	
-0.397522	
-0.397461	
-0.397644	
-0.398132	
-0.398438	
-0.398743	
-0.398743	
-0.398987	
-0.398865	
-0.400085	
-0.399841	
-0.399597	
-0.399109	
-0.398132	
-0.400024	
-0.399109	
-0.398682	
-0.398865	
-0.397034	
-0.39856	
-0.398865	
-0.397766	
-0.39856	
-0.399109	
-0.398499	
-0.398193	
-0.3974	
-0.398193	
-0.397949	
-0.397949	
-0.397766	
-0.397339	
-0.396912	
-0.396484	
-0.39563	
-0.394775	
-0.396729	
-0.395203	
-0.39447	
-0.39447	
-0.393616	
-0.395142	
-0.393555	
-0.393677	
-0.393982	
-0.391296	
-0.3927	
-0.392578	
-0.392578	
-0.392578	
-0.393066	
-0.391541	
-0.391724	
-0.391235	
-0.391113	
-0.391296	
-0.390625	
-0.391052	
-0.391357	
-0.391113	
-0.390869	
-0.390991	
-0.391235	
-0.392151	
-0.391846	
-0.391724	
-0.39209	
-0.391785	
-0.393982	
-0.392212	
-0.392212	
-0.392517	
-0.392273	
-0.393555	
-0.393433	
-0.393494	
-0.393188	
-0.39624	
-0.393433	
-0.393311	
-0.393616	
-0.393127	
-0.394897	
-0.394226	
-0.394043	
-0.394409	
-0.393738	
-0.394714	
-0.394104	
-0.39386	
-0.394836	
-0.395447	
-0.394592	
-0.394653	
-0.394714	
-0.395081	
-0.394226	
-0.393982	
-0.394409	
-0.393372	
-0.394226	
-0.394043	
-0.393738	
-0.393188	
-0.394714	
-0.393005	
-0.392944	
-0.393555	
-0.392456	
-0.394165	
-0.393433	
-0.393555	
-0.393799	
-0.393433	
-0.394165	
-0.394653	
-0.395569	
-0.395447	
-0.39624	
-0.396057	
-0.396484	
-0.396729	
-0.396973	
-0.397278	
-0.397095	
-0.3974	
-0.396729	
-0.39679	
-0.397156	
-0.397217	
-0.397827	
-0.399109	
-0.39856	
-0.398193	
-0.398682	
-0.397522	
-0.398376	
-0.39801	
-0.39856	
-0.397705	
-0.397949	
-0.398315	
-0.39801	
-0.397949	
-0.397583	
-0.398254	
-0.398315	
-0.39801	
-0.397766	
-0.398193	
-0.399414	
-0.398193	
-0.398743	
-0.398193	
-0.397095	
-0.398682	
-0.398621	
-0.399109	
-0.397766	
-0.398621	
-0.397888	
-0.397339	
-0.396362	
-0.397766	
-0.397034	
-0.396606	
-0.39563	
-0.395081	
-0.394897	
-0.394653	
-0.393616	
-0.393494	
-0.393555	
-0.394165	
-0.39325	
-0.392273	
-0.392578	
-0.393433	
-0.392822	
-0.391968	
-0.392029	
-0.391418	
-0.391724	
-0.391418	
-0.391541	
-0.391479	
-0.391296	
-0.391418	
-0.391724	
-0.390747	
-0.391602	
-0.392334	
-0.392273	
-0.392578	
-0.392151	
-0.391663	
-0.392944	
-0.393494	
-0.393311	
-0.391663	
-0.393372	
-0.3927	
-0.392578	
-0.392883	
-0.393127	
-0.393005	
-0.392395	
-0.392822	
-0.392273	
-0.392334	
-0.392517	
-0.393066	
-0.39386	
-0.393433	
-0.393616	
-0.393433	
-0.3927	
-0.393921	
-0.3927	
-0.393188	
-0.393494	
-0.393494	
-0.394104	
-0.393555	
-0.393738	
-0.393738	
-0.394104	
-0.394775	
-0.394043	
-0.393738	
-0.392883	
-0.39502	
-0.395142	
-0.394287	
-0.394043	
-0.393616	
-0.393677	
-0.394287	
-0.39386	
-0.394531	
-0.395386	
-0.395813	
-0.394775	
-0.394836	
-0.395569	
-0.395935	
-0.395325	
-0.394775	
-0.39447	
-0.39447	
-0.395386	
-0.395081	
-0.39447	
-0.394592	
-0.395203	
-0.396484	
-0.394897	
-0.394531	
-0.396118	
-0.39502	
-0.395813	
-0.395813	
-0.395752	
-0.396606	
-0.395935	
-0.396545	
-0.397095	
-0.396057	
-0.396667	
-0.396912	
-0.396301	
-0.396667	
-0.397705	
-0.397522	
-0.396423	
-0.396057	
-0.395813	
-0.394653	
-0.395081	
-0.395325	
-0.395325	
-0.39447	
-0.395203	
-0.394531	
-0.393494	
-0.394714	
-0.394653	
-0.395203	
-0.394409	
-0.394348	
-0.393311	
-0.392578	
-0.393677	
-0.393921	
-0.392578	
-0.393738	
-0.393982	
-0.393738	
-0.394226	
-0.394043	
-0.392761	
-0.394531	
-0.394592	
-0.394348	
-0.393433	
-0.393616	
-0.394165	
-0.394531	
-0.394226	
-0.394104	
-0.394287	
-0.393433	
-0.394409	
-0.394043	
-0.393311	
-0.393311	
-0.393311	
-0.392639	
-0.392639	
-0.392883	
-0.392517	
-0.392456	
-0.393066	
-0.393677	
-0.3927	
-0.393005	
-0.393066	
-0.393005	
-0.39325	
-0.392395	
-0.392395	
-0.392822	
-0.391052	
-0.391602	
-0.39209	
-0.390259	
-0.390686	
-0.391602	
-0.389526	
-0.389465	
-0.390015	
-0.389038	
-0.389526	
-0.389526	
-0.389221	
-0.389221	
-0.389771	
-0.390137	
-0.390259	
-0.389771	
-0.390381	
-0.390076	
-0.389221	
-0.390259	
-0.390808	
-0.390808	
-0.390198	
-0.390198	
-0.389771	
-0.390198	
-0.390808	
-0.391113	
-0.391113	
-0.391541	
-0.392578	
-0.392395	
-0.393494	
-0.393738	
-0.393433	
-0.39502	
-0.394531	
-0.394043	
-0.394348	
-0.393982	
-0.394958	
-0.395935	
-0.394653	
-0.396362	
-0.396851	
-0.396118	
-0.396729	
-0.397461	
-0.395813	
-0.397217	
-0.397095	
-0.397034	
-0.397156	
-0.396362	
-0.397949	
-0.398804	
-0.398438	
-0.398376	
-0.399048	
-0.397949	
-0.39917	
-0.398254	
-0.398499	
-0.398132	
-0.397949	
-0.398804	
-0.397461	
-0.397339	
-0.397827	
-0.396301	
-0.397339	
-0.397156	
-0.397156	
-0.39624	
-0.396973	
-0.395752	
-0.396423	
-0.395142	
-0.395325	
-0.395935	
-0.394775	
-0.394836	
-0.395691	
-0.395752	
-0.395691	
-0.395386	
-0.394592	
-0.395142	
-0.395508	
-0.394592	
-0.395325	
-0.395081	
-0.394592	
-0.395691	
-0.394531	
-0.395142	
-0.395386	
-0.396057	
-0.396606	
-0.395752	
-0.394348	
-0.39563	
-0.396057	
-0.395874	
-0.396484	
-0.396301	
-0.396851	
-0.395935	
-0.396545	
-0.396118	
-0.396057	
-0.396301	
-0.397217	
-0.395569	
-0.395081	
-0.395447	
-0.394592	
-0.394531	
-0.39386	
-0.393799	
-0.393127	
-0.392456	
-0.393005	
-0.393188	
-0.392395	
-0.392883	
-0.393005	
-0.391968	
-0.391968	
-0.392639	
-0.390808	
-0.392212	
-0.391296	
-0.391174	
-0.390991	
-0.390381	
-0.391235	
-0.391113	
-0.390991	
-0.391418	
-0.391418	
-0.390747	
-0.391724	
-0.390686	
-0.391602	
-0.391357	
-0.391724	
-0.391052	
-0.39093	
-0.391174	
-0.391418	
-0.391418	
-0.391296	
-0.391663	
-0.39093	
-0.391052	
-0.391846	
-0.390381	
-0.391907	
-0.391785	
-0.3927	
-0.391785	
-0.392273	
-0.393494	
-0.393799	
-0.394043	
-0.39447	
-0.395447	
-0.394348	
-0.395447	
-0.396729	
-0.395996	
-0.397095	
-0.396973	
-0.397034	
-0.396973	
-0.396912	
-0.397888	
-0.397217	
-0.398499	
-0.398499	
-0.398376	
-0.397461	
-0.398499	
-0.399231	
-0.398865	
-0.398926	
-0.398743	
-0.396973	
-0.39801	
-0.396606	
-0.397705	
-0.397522	
-0.397461	
-0.397888	
-0.39679	
-0.396912	
-0.397034	
-0.395874	
-0.397034	
-0.396912	
-0.3974	
-0.39624	
-0.39679	
-0.397156	
-0.396423	
-0.39679	
-0.397217	
-0.397217	
-0.395752	
-0.396851	
-0.397034	
-0.396606	
-0.397766	
-0.396606	
-0.395996	
-0.395691	
-0.395142	
-0.39624	
-0.39624	
-0.395569	
-0.396667	
-0.395508	
-0.395508	
-0.395996	
-0.396912	
-0.396057	
-0.396057	
-0.396118	
-0.394775	
-0.395752	
-0.395691	
-0.396362	
-0.39563	
-0.395813	
-0.396667	
-0.395874	
-0.395996	
-0.395691	
-0.395142	
-0.396362	
-0.394897	
-0.395447	
-0.393982	
-0.393433	
-0.394165	
-0.39502	
-0.395142	
-0.39447	
-0.394165	
-0.393738	
-0.394287	
-0.394531	
-0.393738	
-0.394226	
-0.39386	
-0.394531	
-0.393616	
-0.393066	
-0.393677	
-0.393127	
-0.394165	
-0.394043	
-0.3927	
-0.393005	
-0.393372	
-0.393616	
-0.393433	
-0.392456	
-0.392944	
-0.392395	
-0.392456	
-0.392761	
-0.392944	
-0.392029	
-0.393799	
-0.394958	
-0.393311	
-0.393921	
-0.394653	
-0.395081	
-0.395508	
-0.394958	
-0.395691	
-0.394653	
-0.394165	
-0.395752	
-0.396118	
-0.395325	
-0.395752	
-0.39624	
-0.395142	
-0.395874	
-0.395874	
-0.396484	
-0.396362	
-0.395996	
-0.397095	
-0.395874	
-0.395996	
-0.396606	
-0.396179	
-0.395935	
-0.395935	
-0.395691	
-0.396179	
-0.395874	
-0.396484	
-0.396484	
-0.395813	
-0.395203	
-0.395935	
-0.395386	
-0.395813	
-0.397278	
-0.395203	
-0.396606	
-0.397461	
-0.395935	
-0.396973	
-0.396667	
-0.396606	
-0.397583	
-0.396851	
-0.396912	
-0.395508	
-0.396179	
-0.397156	
-0.39679	
-0.397339	
-0.397339	
-0.397522	
-0.39801	
-0.398682	
-0.398682	
-0.399414	
-0.400146	
-0.399719	
-0.400024	
-0.399292	
-0.399536	
-0.401001	
-0.399841	
-0.400146	
-0.400085	
-0.399414	
-0.399841	
-0.399841	
-0.39978	
-0.400024	
-0.399536	
-0.399597	
-0.400452	
-0.398987	
-0.398804	
-0.398621	
-0.398193	
-0.398926	
-0.399353	
-0.398499	
-0.398499	
-0.398438	
-0.398376	
-0.398804	
-0.397705	
-0.397095	
-0.396606	
-0.395203	
-0.39679	
-0.395508	
-0.394714	
-0.395203	
-0.395142	
-0.394348	
-0.394226	
-0.393982	
-0.394592	
-0.394348	
-0.393555	
-0.393494	
-0.3927	
-0.393127	
-0.39325	
-0.391907	
-0.390869	
-0.393005	
-0.390808	
-0.39209	
-0.391418	
-0.391785	
-0.391663	
-0.391663	
-0.391296	
-0.391785	
-0.391296	
-0.392578	
-0.392151	
-0.392151	
-0.392883	
-0.393677	
-0.39325	
-0.392639	
-0.392212	
-0.392761	
-0.39447	
-0.393433	
-0.393555	
-0.394165	
-0.393799	
-0.394775	
-0.394226	
-0.39386	
-0.394531	
-0.393372	
-0.394531	
-0.394714	
-0.39447	
-0.395142	
-0.395081	
-0.394775	
-0.394531	
-0.394348	
-0.39447	
-0.395081	
-0.395508	
-0.394348	
-0.395264	
-0.39563	
-0.395203	
-0.395447	
-0.394836	
-0.395264	
-0.394409	
-0.394592	
-0.394348	
-0.394287	
-0.394775	
-0.393982	
-0.393616	
-0.39325	
-0.393799	
-0.393921	
-0.393494	
-0.393921	
-0.394592	
-0.39502	
-0.394104	
-0.394409	
-0.395203	
-0.394531	
-0.395874	
-0.396118	
-0.396667	
-0.396729	
-0.3974	
-0.396851	
-0.397339	
-0.397339	
-0.398132	
-0.398071	
-0.397339	
-0.397888	
-0.39801	
-0.398315	
-0.398132	
-0.39856	
-0.397827	
-0.399048	
-0.39856	
-0.398682	
-0.398621	
-0.39856	
-0.398743	
-0.398865	
-0.39856	
-0.398193	
-0.398865	
-0.398926	
-0.398132	
-0.398315	
-0.397095	
-0.39856	
-0.398193	
-0.398499	
-0.39856	
-0.39856	
-0.399353	
-0.398743	
-0.398804	
-0.398438	
-0.399109	
-0.39856	
-0.39856	
-0.397583	
-0.397095	
-0.397278	
-0.397522	
-0.39679	
-0.395935	
-0.396057	
-0.396362	
-0.394592	
-0.394409	
-0.394653	
-0.39386	
-0.393494	
-0.393188	
-0.3927	
-0.392639	
-0.393066	
-0.393188	
-0.392273	
-0.392456	
-0.392456	
-0.392883	
-0.392151	
-0.39032	
-0.392578	
-0.390198	
-0.391113	
-0.391174	
-0.390442	
-0.392334	
-0.392151	
-0.392456	
-0.392395	
-0.391724	
-0.392578	
-0.392883	
-0.3927	
-0.393311	
-0.393921	
-0.392273	
-0.393066	
-0.393005	
-0.392334	
-0.392334	
-0.392639	
-0.392395	
-0.3927	
-0.392761	
-0.39325	
-0.393311	
-0.392761	
-0.394531	
-0.393311	
-0.393188	
-0.393616	
-0.393005	
-0.393005	
-0.393433	
-0.393494	
-0.393127	
-0.392883	
-0.393616	
-0.394348	
-0.39325	
-0.393005	
-0.395569	
-0.394104	
-0.394531	
-0.393799	
-0.392883	
-0.394653	
-0.394653	
-0.394287	
-0.394409	
-0.393921	
-0.394287	
-0.394897	
-0.394104	
-0.394043	
-0.39624	
-0.394409	
-0.394775	
-0.39447	
-0.394592	
-0.395386	
-0.395081	
-0.394836	
-0.395325	
-0.394897	
-0.395325	
-0.395569	
-0.395203	
-0.396179	
-0.39563	
-0.395203	
-0.395386	
-0.39502	
-0.395935	
-0.395203	
-0.395264	
-0.395996	
-0.396301	
-0.39624	
-0.396667	
-0.396362	
-0.39563	
-0.398132	
-0.396667	
-0.396545	
-0.396667	
-0.396545	
-0.397644	
-0.39679	
-0.396729	
-0.39624	
-0.39502	
-0.395386	
-0.396057	
-0.394897	
-0.395081	
-0.395996	
-0.394348	
-0.39447	
-0.394409	
-0.392517	
-0.393982	
-0.394043	
-0.393921	
-0.393982	
-0.393005	
-0.393433	
-0.394958	
-0.393738	
-0.393921	
-0.393372	
-0.392273	
-0.393311	
-0.393677	
-0.394409	
-0.393433	
-0.393738	
-0.394287	
-0.394226	
-0.393494	
-0.393738	
-0.394653	
-0.39325	
-0.39502	
-0.393433	
-0.392883	
-0.393982	
-0.392822	
-0.394409	
-0.393494	
-0.393677	
-0.393799	
-0.393372	
-0.393311	
-0.392761	
-0.392517	
-0.391602	
-0.393921	
-0.392212	
-0.392151	
-0.392578	
-0.391541	
-0.393433	
-0.392517	
-0.392883	
-0.392822	
-0.391235	
-0.392395	
-0.391907	
-0.391418	
-0.391174	
-0.391052	
-0.390076	
-0.389893	
-0.389282	
-0.389587	
-0.389587	
-0.389648	
-0.38916	
-0.389587	
-0.388916	
-0.389709	
-0.390503	
-0.389099	
-0.390991	
-0.389648	
-0.388672	
-0.389404	
-0.389282	
-0.390564	
-0.39032	
-0.390198	
-0.390198	
-0.389771	
-0.39032	
-0.390503	
-0.391235	
-0.389954	
-0.392639	
-0.391541	
-0.391052	
-0.392578	
-0.391602	
-0.393494	
-0.393677	
-0.393982	
-0.394104	
-0.394287	
-0.394348	
-0.394714	
-0.394897	
-0.395325	
-0.395752	
-0.395325	
-0.394714	
-0.395447	
-0.394775	
-0.396423	
-0.396362	
-0.396423	
-0.397095	
-0.396912	
-0.397156	
-0.397522	
-0.397095	
-0.398621	
-0.39801	
-0.397278	
-0.39801	
-0.397766	
-0.398193	
-0.397705	
-0.397827	
-0.397705	
-0.397644	
-0.397034	
-0.397461	
-0.397461	
-0.395874	
-0.39801	
-0.396606	
-0.39563	
-0.396057	
-0.395325	
-0.395752	
-0.394958	
-0.395325	
-0.395447	
-0.394775	
-0.394897	
-0.39502	
-0.395874	
-0.394714	
-0.39624	
-0.394348	
-0.392944	
-0.394165	
-0.394104	
-0.394287	
-0.393921	
-0.39447	
-0.395081	
-0.395081	
-0.395203	
-0.395264	
-0.395569	
-0.395386	
-0.395691	
-0.394531	
-0.394104	
-0.394531	
-0.395142	
-0.395935	
-0.395508	
-0.395569	
-0.395569	
-0.396179	
-0.395996	
-0.396118	
-0.39563	
-0.39624	
-0.396118	
-0.395142	
-0.394653	
-0.393921	
-0.394409	
-0.394531	
-0.394165	
-0.393372	
-0.392883	
-0.392761	
-0.393127	
-0.393616	
-0.392334	
-0.392944	
-0.392456	
-0.390808	
-0.391541	
-0.390076	
-0.391296	
-0.391113	
-0.391418	
-0.39093	
-0.391052	
-0.390747	
-0.39093	
-0.390991	
-0.389465	
-0.390869	
-0.390564	
-0.389771	
-0.39093	
-0.391235	
-0.390686	
-0.390564	
-0.391541	
-0.391235	
-0.390686	
-0.391113	
-0.391479	
-0.390991	
-0.391357	
-0.391418	
-0.39032	
-0.390015	
-0.389221	
-0.389954	
-0.390564	
-0.390869	
-0.39093	
-0.390747	
-0.391541	
-0.39209	
-0.393433	
-0.393066	
-0.394287	
-0.394653	
-0.394592	
-0.39502	
-0.394836	
-0.395752	
-0.395935	
-0.396118	
-0.39624	
-0.397339	
-0.397095	
-0.397034	
-0.397888	
-0.396667	
-0.398499	
-0.397522	
-0.395996	
-0.397339	
-0.398132	
-0.398193	
-0.398438	
-0.398132	
-0.397583	
-0.398315	
-0.397339	
-0.396851	
-0.397095	
-0.397583	
-0.397766	
-0.39624	
-0.396179	
-0.395813	
-0.39679	
-0.396606	
-0.39563	
-0.396057	
-0.396423	
-0.396057	
-0.396362	
-0.39679	
-0.396301	
-0.397156	
-0.397156	
-0.395874	
-0.395691	
-0.394836	
-0.395691	
-0.395813	
-0.395935	
-0.395508	
-0.395325	
-0.395325	
-0.395569	
-0.396118	
-0.39563	
-0.396301	
-0.395752	
-0.394714	
-0.395569	
-0.395386	
-0.395752	
-0.395691	
-0.395325	
-0.395264	
-0.395325	
-0.395203	
-0.395325	
-0.395874	
-0.39447	
-0.395386	
-0.394897	
-0.395203	
-0.395264	
-0.395691	
-0.39447	
-0.394836	
-0.394958	
-0.393982	
-0.393616	
-0.393799	
-0.394287	
-0.394287	
-0.39447	
-0.39447	
-0.393738	
-0.394043	
-0.393555	
-0.39386	
-0.393677	
-0.393433	
-0.393311	
-0.392212	
-0.392883	
-0.393005	
-0.394226	
-0.392639	
-0.39325	
-0.393372	
-0.39209	
-0.392395	
-0.391785	
-0.391846	
-0.391968	
-0.391907	
	
