E:\DOCUMENTS AND SETTINGS\JPOTAS\MEUS DOCUMENTOS\UFRJ\RSCI-BM 12 WK SERIES\070731-RSCI-BM-12\RSCI-BM-12-LEMG\070731-RSCI-BM-12-LEMG-0004.ACQ
0.025000 msec/sample
1 channel
Analog input
Volts
CH1	
2000	
-0.396057	
-0.395203	
-0.395935	
-0.395264	
-0.395752	
-0.395691	
-0.396362	
-0.396667	
-0.395081	
-0.395447	
-0.395874	
-0.395752	
-0.396729	
-0.397461	
-0.397339	
-0.396667	
-0.397522	
-0.397217	
-0.397705	
-0.397949	
-0.398438	
-0.398621	
-0.397217	
-0.398682	
-0.398376	
-0.398987	
-0.398621	
-0.399536	
-0.398804	
-0.397766	
-0.397827	
-0.3974	
-0.397949	
-0.397827	
-0.397949	
-0.396973	
-0.396423	
-0.3974	
-0.396851	
-0.39801	
-0.397522	
-0.397949	
-0.397217	
-0.395996	
-0.396423	
-0.39563	
-0.395935	
-0.395935	
-0.39679	
-0.396118	
-0.396057	
-0.396851	
-0.397095	
-0.397888	
-0.397278	
-0.397583	
-0.39679	
-0.395569	
-0.396851	
-0.396851	
-0.397095	
-0.397217	
-0.398499	
-0.397278	
-0.396729	
-0.3974	
-0.396729	
-0.398254	
-0.397522	
-0.397827	
-0.397034	
-0.396423	
-0.396729	
-0.397278	
-0.397644	
-0.396973	
-0.398071	
-0.397095	
-0.397522	
-0.397095	
-0.396484	
-0.397705	
-0.397095	
-0.397156	
-0.396912	
-0.395691	
-0.396362	
-0.397156	
-0.397644	
-0.397217	
-0.398071	
-0.39679	
-0.397156	
-0.396606	
-0.396545	
-0.397644	
-0.397461	
-0.397339	
-0.396912	
-0.395264	
-0.396179	
-0.396545	
-0.397217	
-0.397339	
-0.397522	
-0.396545	
-0.396423	
-0.39624	
-0.395203	
-0.39679	
-0.397278	
-0.396667	
-0.395569	
-0.394897	
-0.394958	
-0.395752	
-0.395813	
-0.396423	
-0.395996	
-0.39563	
-0.395569	
-0.39563	
-0.395325	
-0.39624	
-0.396667	
-0.396484	
-0.395813	
-0.395691	
-0.395264	
-0.396545	
-0.396973	
-0.397217	
-0.397644	
-0.396851	
-0.397644	
-0.397461	
-0.397644	
-0.397461	
-0.398499	
-0.397644	
-0.3974	
-0.396912	
-0.396362	
-0.398865	
-0.397766	
-0.398438	
-0.398315	
-0.397827	
-0.398315	
-0.398254	
-0.39917	
-0.39917	
-0.399536	
-0.398254	
-0.398254	
-0.397949	
-0.397705	
-0.399536	
-0.399048	
-0.399841	
-0.398621	
-0.397644	
-0.398743	
-0.398682	
-0.399475	
-0.399414	
-0.399902	
-0.399231	
-0.399292	
-0.399414	
-0.398865	
-0.40033	
-0.39978	
-0.399414	
-0.399231	
-0.398315	
-0.399231	
-0.399536	
-0.400269	
-0.400757	
-0.40155	
-0.399963	
-0.400452	
-0.400391	
-0.39856	
-0.400513	
-0.400024	
-0.400269	
-0.399902	
-0.399048	
-0.39978	
-0.399658	
-0.401062	
-0.400757	
-0.401306	
-0.400024	
-0.40033	
-0.394287	
-0.387939	
-0.388733	
-0.387512	
-0.388489	
-0.386658	
-0.392944	
-0.398132	
-0.398987	
-0.399597	
-0.399414	
-0.398987	
-0.398499	
-0.397583	
-0.398071	
-0.397461	
-0.391968	
-0.386169	
-0.386047	
-0.384827	
-0.385254	
-0.385559	
-0.391357	
-0.398071	
-0.39917	
-0.399536	
-0.398132	
-0.397766	
-0.398071	
-0.399597	
-0.398987	
-0.399231	
-0.39917	
-0.39917	
-0.399414	
-0.399902	
-0.398987	
-0.400146	
-0.401367	
-0.400085	
-0.400208	
-0.398804	
-0.399719	
-0.401245	
-0.400574	
-0.400513	
-0.401428	
-0.401062	
-0.401855	
-0.40155	
-0.401672	
-0.402527	
-0.404053	
-0.403564	
-0.404053	
-0.404541	
-0.404907	
-0.408875	
-0.409912	
-0.41217	
-0.414612	
-0.416321	
-0.419861	
-0.422791	
-0.427246	
-0.43158	
-0.435181	
-0.441101	
-0.44574	
-0.452515	
-0.461121	
-0.467834	
-0.474426	
-0.480896	
-0.485291	
-0.491455	
-0.497498	
-0.50238	
-0.506714	
-0.509949	
-0.512634	
-0.514832	
-0.51825	
-0.520264	
-0.523254	
-0.523926	
-0.525452	
-0.52533	
-0.52533	
-0.524414	
-0.523193	
-0.522766	
-0.521973	
-0.518677	
-0.517761	
-0.516724	
-0.516052	
-0.519836	
-0.521545	
-0.524353	
-0.529175	
-0.532227	
-0.536987	
-0.540527	
-0.544312	
-0.548706	
-0.55188	
-0.553284	
-0.553467	
-0.554993	
-0.554749	
-0.556152	
-0.554321	
-0.551697	
-0.548401	
-0.544189	
-0.540466	
-0.535461	
-0.529663	
-0.524109	
-0.516296	
-0.509888	
-0.501892	
-0.494568	
-0.488586	
-0.48175	
-0.47467	
-0.46814	
-0.460022	
-0.453552	
-0.44751	
-0.441406	
-0.43457	
-0.429016	
-0.421692	
-0.414795	
-0.40741	
-0.399414	
-0.394409	
-0.386719	
-0.379761	
-0.371948	
-0.363647	
-0.355591	
-0.348206	
-0.340271	
-0.333435	
-0.326538	
-0.318604	
-0.310791	
-0.304016	
-0.296814	
-0.29187	
-0.286011	
-0.281372	
-0.277771	
-0.272644	
-0.269897	
-0.267334	
-0.266174	
-0.265381	
-0.263306	
-0.262085	
-0.261658	
-0.262695	
-0.265076	
-0.267334	
-0.26947	
-0.272461	
-0.275574	
-0.279602	
-0.284668	
-0.290344	
-0.296265	
-0.300537	
-0.305481	
-0.309204	
-0.31427	
-0.320923	
-0.325073	
-0.328918	
-0.333008	
-0.335266	
-0.33783	
-0.339539	
-0.341675	
-0.343933	
-0.34436	
-0.345032	
-0.344971	
-0.345764	
-0.348389	
-0.349609	
-0.35022	
-0.35199	
-0.3526	
-0.354065	
-0.356323	
-0.357544	
-0.360046	
-0.360046	
-0.361694	
-0.361755	
-0.364014	
-0.365723	
-0.366333	
-0.367554	
-0.368896	
-0.368713	
-0.369568	
-0.370667	
-0.371521	
-0.372925	
-0.372375	
-0.372253	
-0.372131	
-0.373596	
-0.375305	
-0.375549	
-0.375549	
-0.376648	
-0.375366	
-0.376038	
-0.375732	
-0.375854	
-0.377441	
-0.376465	
-0.377136	
-0.375732	
-0.375549	
-0.377136	
-0.377502	
-0.377991	
-0.377991	
-0.378296	
-0.378296	
-0.37915	
-0.379456	
-0.380188	
-0.380127	
-0.380066	
-0.379456	
-0.379456	
-0.381104	
-0.381958	
-0.381531	
-0.382263	
-0.381958	
-0.381287	
-0.382324	
-0.382813	
-0.382874	
-0.38385	
-0.383118	
-0.382874	
-0.383057	
-0.382935	
-0.384216	
-0.383911	
-0.384094	
-0.385193	
-0.384399	
-0.38385	
-0.384399	
-0.384644	
-0.385193	
-0.384033	
-0.383301	
-0.381958	
-0.381836	
-0.38324	
-0.383362	
-0.382996	
-0.38385	
-0.383179	
-0.383606	
-0.383179	
-0.382935	
-0.384338	
-0.38446	
-0.383362	
-0.38208	
-0.382324	
-0.384155	
-0.38501	
-0.38446	
-0.38446	
-0.383972	
-0.383972	
-0.383667	
-0.384644	
-0.385254	
-0.384949	
-0.383606	
-0.383423	
-0.382324	
-0.384033	
-0.384644	
-0.384705	
-0.384277	
-0.38385	
-0.383911	
-0.382874	
-0.38446	
-0.383911	
-0.383545	
-0.383545	
-0.383667	
-0.382446	
-0.383423	
-0.383728	
-0.383972	
-0.383118	
-0.383301	
-0.383362	
-0.383423	
-0.383545	
-0.383911	
-0.384094	
-0.383057	
-0.383545	
-0.382385	
-0.383057	
-0.384277	
-0.383423	
-0.383667	
-0.38446	
-0.383667	
-0.38385	
-0.383911	
-0.384705	
-0.384277	
-0.383606	
-0.382813	
-0.382324	
-0.383606	
-0.384705	
-0.385376	
-0.38501	
-0.38562	
-0.385437	
-0.386292	
-0.387146	
-0.38678	
-0.386536	
-0.386902	
-0.385803	
-0.386414	
-0.386536	
-0.386597	
-0.38739	
-0.386902	
-0.386658	
-0.385986	
-0.386414	
-0.387329	
-0.387817	
-0.387451	
-0.386841	
-0.386841	
-0.387024	
-0.386658	
-0.387329	
-0.387329	
-0.387756	
-0.387085	
-0.387268	
-0.386353	
-0.386353	
-0.387573	
-0.387573	
-0.386719	
-0.387146	
-0.385864	
-0.386475	
-0.386475	
-0.386963	
-0.386963	
-0.386841	
-0.386658	
-0.386353	
-0.386841	
-0.387085	
-0.387878	
-0.387817	
-0.387329	
-0.387024	
-0.386536	
-0.385681	
-0.388062	
-0.386719	
-0.38739	
-0.386658	
-0.385925	
-0.386841	
-0.386841	
-0.388062	
-0.388245	
-0.387817	
-0.388245	
-0.386658	
-0.388	
-0.388977	
-0.388306	
-0.38916	
-0.388367	
-0.388794	
-0.388184	
-0.389038	
-0.39032	
-0.389587	
-0.389771	
-0.390259	
-0.389832	
-0.389465	
-0.389648	
-0.389282	
-0.390015	
-0.390137	
-0.388977	
-0.389648	
-0.389771	
-0.390259	
-0.390625	
-0.390564	
-0.39032	
-0.390747	
-0.389648	
-0.390198	
-0.389954	
-0.389526	
-0.390259	
-0.390198	
-0.390015	
-0.389648	
-0.390076	
-0.390198	
-0.39093	
-0.390381	
-0.390381	
-0.389282	
-0.388306	
-0.388611	
-0.387512	
-0.388611	
-0.388	
-0.38916	
-0.389038	
-0.389282	
-0.390686	
-0.391541	
-0.391113	
-0.391968	
-0.390198	
-0.390808	
-0.392517	
-0.391541	
-0.391907	
-0.391724	
-0.390747	
-0.392395	
-0.392029	
-0.393188	
-0.392273	
-0.392639	
-0.392761	
-0.392151	
-0.3927	
-0.393066	
-0.392578	
-0.392761	
-0.393555	
-0.392761	
-0.392822	
-0.393066	
-0.392334	
-0.393433	
-0.393616	
-0.393372	
-0.393982	
-0.393433	
-0.393005	
-0.394409	
-0.393372	
-0.394592	
-0.394836	
-0.393616	
-0.394348	
-0.395081	
-0.396118	
-0.396179	
-0.395569	
-0.395508	
-0.395325	
-0.395874	
-0.396729	
-0.395935	
-0.39563	
-0.396301	
-0.395752	
-0.394531	
-0.395569	
-0.395203	
-0.395142	
-0.395813	
-0.394836	
-0.395142	
-0.395447	
-0.393799	
-0.395203	
-0.394226	
-0.394592	
-0.395508	
-0.39386	
-0.394165	
-0.39447	
-0.393677	
-0.39386	
-0.394104	
-0.394348	
-0.393311	
-0.394165	
-0.394287	
-0.395447	
-0.39447	
-0.394897	
-0.394592	
-0.393982	
-0.394958	
-0.395142	
-0.394653	
-0.395508	
-0.394958	
-0.395386	
-0.394531	
-0.394165	
-0.394958	
-0.39502	
-0.395447	
-0.39563	
-0.394531	
-0.394409	
-0.395264	
-0.394592	
-0.39502	
-0.395142	
-0.395203	
-0.393982	
-0.394836	
-0.394409	
-0.394531	
-0.394348	
-0.395142	
-0.394409	
-0.394165	
-0.394897	
-0.395264	
-0.395203	
-0.396179	
-0.395142	
-0.395386	
-0.395447	
-0.394531	
-0.395325	
-0.395081	
-0.395569	
-0.39563	
-0.394531	
-0.394958	
-0.395142	
-0.394409	
-0.39502	
-0.394775	
-0.395447	
-0.394226	
-0.394531	
-0.394836	
-0.394531	
-0.394531	
-0.39447	
-0.394653	
-0.394104	
-0.394287	
-0.394958	
-0.394348	
-0.395081	
-0.394836	
-0.393738	
-0.394043	
-0.393433	
-0.39447	
-0.395081	
-0.393982	
-0.394592	
-0.394287	
-0.39386	
-0.39447	
-0.393433	
-0.395386	
-0.396179	
-0.396118	
-0.395447	
-0.395813	
-0.39563	
-0.396118	
-0.396973	
-0.396606	
-0.396057	
-0.396057	
-0.396484	
-0.396973	
-0.395874	
-0.396851	
-0.396179	
-0.396118	
-0.396423	
-0.396484	
-0.397156	
-0.398071	
-0.3974	
-0.398621	
-0.396912	
-0.396667	
-0.397644	
-0.398071	
-0.397461	
-0.398193	
-0.398193	
-0.396667	
-0.397583	
-0.396179	
-0.396667	
-0.397583	
-0.397949	
-0.397827	
-0.396667	
-0.397217	
-0.397217	
-0.397522	
-0.39801	
-0.398499	
-0.398621	
-0.398865	
-0.398438	
-0.398315	
-0.398071	
-0.398499	
-0.399048	
-0.398499	
-0.397217	
-0.398438	
-0.398865	
-0.39917	
-0.399536	
-0.399658	
-0.398682	
-0.399231	
-0.398987	
-0.398682	
-0.399048	
-0.399109	
-0.399597	
-0.399048	
-0.399048	
-0.398804	
-0.398865	
-0.399719	
-0.400208	
-0.399658	
-0.397705	
-0.397888	
-0.397034	
-0.397949	
-0.3974	
-0.397156	
-0.397461	
-0.396362	
-0.39679	
-0.397034	
-0.39624	
-0.39679	
-0.396545	
-0.39563	
-0.396057	
-0.395691	
-0.395569	
-0.396667	
-0.396118	
-0.396423	
-0.395569	
-0.395081	
-0.39624	
-0.395874	
-0.395996	
-0.396973	
-0.397095	
-0.396545	
-0.39624	
-0.395752	
-0.395874	
-0.396973	
-0.397034	
-0.397827	
-0.396912	
-0.397034	
-0.397827	
-0.39679	
-0.397949	
-0.398254	
-0.397583	
-0.397705	
-0.397705	
-0.396545	
-0.398315	
-0.398071	
-0.398193	
-0.398132	
-0.397583	
-0.398621	
-0.399048	
-0.398193	
-0.398804	
-0.398438	
-0.397217	
-0.398499	
-0.39801	
-0.397949	
-0.398926	
-0.398621	
-0.398621	
-0.398193	
-0.397217	
-0.398804	
-0.398315	
-0.398499	
-0.398804	
-0.398193	
-0.398071	
-0.397278	
-0.396851	
-0.396973	
-0.397217	
-0.397522	
-0.397766	
-0.396973	
-0.396667	
-0.3974	
-0.396851	
-0.396606	
-0.397278	
-0.395508	
-0.396179	
-0.396301	
-0.396362	
-0.397278	
-0.396606	
-0.396973	
-0.397339	
-0.396362	
-0.396973	
-0.396729	
-0.395996	
-0.397583	
-0.397583	
-0.396729	
-0.396362	
-0.395447	
-0.395508	
-0.397217	
-0.397095	
-0.397644	
-0.398621	
-0.397888	
-0.398926	
-0.397949	
-0.397766	
-0.399414	
-0.399048	
-0.399109	
-0.39917	
-0.398743	
-0.398682	
-0.398315	
-0.397705	
-0.397339	
-0.396423	
-0.396606	
-0.397766	
-0.396057	
-0.396606	
-0.396667	
-0.395325	
-0.396057	
-0.394592	
-0.394653	
-0.396423	
-0.39563	
-0.395264	
-0.396118	
-0.39447	
-0.395691	
-0.396057	
-0.395142	
-0.396057	
-0.395264	
-0.394043	
-0.395264	
-0.394348	
-0.395081	
-0.395325	
-0.395142	
-0.395447	
-0.395813	
-0.395142	
-0.395203	
-0.394897	
-0.394104	
-0.395386	
-0.394104	
-0.393799	
-0.393677	
-0.393494	
-0.394043	
-0.393738	
-0.393433	
-0.393188	
-0.392578	
-0.393066	
-0.393677	
-0.3927	
-0.394287	
-0.394043	
-0.393433	
-0.393555	
-0.393494	
-0.393921	
-0.395203	
-0.394409	
-0.395142	
-0.395386	
-0.394287	
-0.395081	
-0.396362	
-0.39447	
-0.396973	
-0.395874	
-0.395264	
-0.395386	
-0.394592	
-0.396545	
-0.396362	
-0.396057	
-0.396423	
-0.395935	
-0.395569	
-0.395752	
-0.396179	
-0.395813	
-0.396057	
-0.395264	
-0.394287	
-0.394897	
-0.394531	
-0.396484	
-0.395569	
-0.395447	
-0.395508	
-0.39447	
-0.395325	
-0.395447	
-0.394409	
-0.396423	
-0.39624	
-0.395264	
-0.394958	
-0.394958	
-0.395447	
-0.396118	
-0.396118	
-0.395935	
-0.395386	
-0.395203	
-0.395569	
-0.395996	
-0.396179	
-0.396729	
-0.397339	
-0.395996	
-0.39624	
-0.394836	
-0.395752	
-0.395996	
-0.39624	
-0.396912	
-0.395203	
-0.395752	
-0.395813	
-0.395691	
-0.395874	
-0.395935	
-0.395935	
-0.394775	
-0.395142	
-0.395569	
-0.39624	
-0.396057	
-0.39624	
-0.395874	
-0.394409	
-0.395874	
-0.395874	
-0.396667	
-0.397156	
-0.396545	
-0.396179	
-0.39563	
-0.396179	
-0.396912	
-0.39679	
-0.397034	
-0.397949	
-0.396973	
-0.396912	
-0.39679	
-0.396301	
-0.397156	
-0.398315	
-0.397522	
-0.397156	
-0.39679	
-0.396362	
-0.397156	
-0.396423	
-0.396057	
-0.39624	
-0.394836	
-0.395508	
-0.395203	
-0.395813	
-0.39563	
-0.395752	
-0.396484	
-0.394897	
-0.395325	
-0.39563	
-0.395569	
-0.395996	
-0.396057	
-0.395386	
-0.394775	
-0.395935	
-0.395813	
-0.396545	
-0.397217	
-0.395813	
-0.395935	
-0.394226	
-0.394226	
-0.395264	
-0.394165	
-0.395142	
-0.395935	
-0.39502	
-0.395203	
-0.394775	
-0.393982	
-0.39502	
-0.395142	
-0.394897	
-0.39447	
-0.394348	
-0.392456	
-0.394348	
-0.394348	
-0.394409	
-0.393799	
-0.393616	
-0.39386	
-0.393677	
-0.395264	
-0.394287	
-0.393799	
-0.394165	
-0.393005	
-0.39325	
-0.39325	
-0.393616	
-0.393799	
-0.394653	
-0.393433	
-0.392456	
-0.393494	
-0.392883	
-0.395081	
-0.394653	
-0.393677	
-0.394348	
-0.392273	
-0.392151	
-0.39325	
-0.392212	
-0.393311	
-0.394226	
-0.393677	
-0.39325	
-0.394165	
-0.394958	
-0.395996	
-0.395752	
-0.395508	
-0.395935	
-0.395325	
-0.394836	
-0.395935	
-0.395386	
-0.39624	
-0.395569	
-0.395874	
-0.395996	
-0.396057	
-0.396912	
-0.39624	
-0.396362	
-0.396179	
-0.395508	
-0.395874	
-0.395996	
-0.396484	
-0.395813	
-0.396057	
-0.395325	
-0.39447	
-0.395508	
-0.39447	
-0.396545	
-0.395935	
-0.395386	
-0.395996	
-0.393921	
-0.39386	
-0.394714	
-0.393372	
-0.394836	
-0.394409	
-0.393921	
-0.394287	
-0.394104	
-0.394592	
-0.394531	
-0.394897	
-0.394348	
-0.39447	
-0.392578	
-0.392944	
-0.394409	
-0.393311	
-0.39447	
-0.393494	
-0.39325	
-0.39447	
-0.393311	
-0.394104	
-0.393738	
-0.394226	
-0.394531	
-0.394104	
-0.393982	
-0.394226	
-0.394958	
-0.39502	
-0.394836	
-0.394592	
-0.393555	
-0.394531	
-0.395264	
-0.395752	
-0.395569	
-0.395935	
-0.396423	
-0.395447	
-0.39502	
-0.395874	
-0.395447	
-0.39563	
-0.39563	
-0.395386	
-0.394653	
-0.395325	
-0.395813	
-0.397034	
-0.396301	
-0.395691	
-0.396179	
-0.394104	
-0.394104	
-0.395569	
-0.394836	
-0.396484	
-0.395813	
-0.395813	
-0.394897	
-0.393738	
-0.395203	
-0.396179	
-0.395325	
-0.395386	
-0.394714	
-0.394226	
-0.393982	
-0.394775	
-0.393738	
-0.393799	
-0.393005	
-0.392639	
-0.39386	
-0.394531	
-0.395264	
-0.396545	
-0.396179	
-0.396912	
-0.39563	
-0.395935	
-0.396423	
-0.395996	
-0.396973	
-0.39624	
-0.39624	
-0.396057	
-0.396118	
-0.397278	
-0.397644	
-0.397644	
-0.397156	
-0.397583	
-0.395813	
-0.395874	
-0.397278	
-0.396423	
-0.397156	
-0.396851	
-0.396606	
-0.396973	
-0.396606	
-0.397156	
-0.397705	
-0.39801	
-0.397522	
-0.397644	
-0.395935	
-0.397156	
-0.398438	
-0.3974	
-0.397766	
-0.397888	
-0.397583	
-0.39856	
-0.398804	
-0.399658	
-0.400024	
-0.399597	
-0.399597	
-0.399414	
-0.398621	
-0.399658	
-0.399841	
-0.399719	
-0.399475	
-0.398438	
-0.397766	
-0.398865	
-0.399048	
-0.399719	
-0.399231	
-0.398193	
-0.398315	
-0.397949	
-0.397278	
-0.397949	
-0.39801	
-0.398865	
-0.397583	
-0.396301	
-0.396057	
-0.396362	
-0.397156	
-0.398071	
-0.397095	
-0.397766	
-0.397766	
-0.395813	
-0.397278	
-0.397278	
-0.396545	
-0.397766	
-0.397827	
-0.397034	
-0.396912	
-0.397461	
-0.397644	
-0.398132	
-0.397583	
-0.397461	
-0.397278	
-0.39679	
-0.397827	
-0.397766	
-0.398071	
-0.397339	
-0.397583	
-0.397522	
-0.397095	
-0.397095	
-0.397888	
-0.39801	
-0.397095	
-0.397034	
-0.396667	
-0.395996	
-0.396545	
-0.397583	
-0.397644	
-0.396606	
-0.397034	
-0.39679	
-0.395874	
-0.397522	
-0.398193	
-0.397888	
-0.397156	
-0.398071	
-0.396057	
-0.396118	
-0.396851	
-0.397217	
-0.396973	
-0.396606	
-0.39679	
-0.395874	
-0.396973	
-0.396729	
-0.397522	
-0.397156	
-0.39679	
-0.396729	
-0.394836	
-0.396057	
-0.396667	
-0.395508	
-0.396423	
-0.39624	
-0.395569	
-0.39563	
-0.395752	
-0.396301	
-0.39624	
-0.395691	
-0.395935	
-0.395996	
-0.394592	
-0.39563	
-0.396057	
-0.395508	
-0.39563	
-0.395508	
-0.395325	
-0.39502	
-0.396301	
-0.397339	
-0.397278	
-0.396912	
-0.397095	
-0.397278	
-0.396851	
-0.3974	
-0.397827	
-0.397583	
-0.3974	
-0.39624	
-0.395569	
-0.395874	
-0.397217	
-0.398132	
-0.397705	
-0.397644	
-0.398132	
-0.397339	
-0.397583	
-0.398682	
-0.39801	
-0.397827	
-0.397583	
-0.397522	
-0.397522	
-0.397949	
-0.39856	
-0.399048	
-0.397888	
-0.398071	
-0.398071	
-0.396729	
-0.398315	
-0.398315	
-0.39801	
-0.398499	
-0.398804	
-0.397705	
-0.397705	
-0.398438	
-0.398865	
-0.398865	
-0.398621	
-0.398621	
-0.398743	
-0.398804	
-0.399048	
-0.399536	
-0.399048	
-0.398438	
-0.398987	
-0.397766	
-0.397888	
-0.398926	
-0.398865	
-0.399048	
-0.39856	
-0.398987	
-0.398804	
-0.398804	
-0.399109	
-0.399048	
-0.399353	
-0.39917	
-0.399292	
-0.399048	
-0.39917	
-0.399109	
-0.400452	
-0.40033	
-0.398682	
-0.398621	
-0.396606	
-0.396301	
-0.397644	
-0.396851	
-0.396851	
-0.396729	
-0.396179	
-0.396484	
-0.396484	
-0.396423	
-0.396851	
-0.396423	
-0.396545	
-0.395813	
-0.395691	
-0.39624	
-0.396606	
-0.39679	
-0.396301	
-0.396057	
-0.395691	
-0.395569	
-0.396667	
-0.397217	
-0.396973	
-0.396423	
-0.397644	
-0.396729	
-0.396606	
-0.396973	
-0.397766	
-0.397949	
-0.397766	
-0.3974	
-0.396362	
-0.396484	
-0.398254	
-0.398987	
-0.398621	
-0.397949	
-0.398804	
-0.396912	
-0.397095	
-0.398132	
-0.397705	
-0.39856	
-0.398499	
-0.397949	
-0.397949	
-0.398254	
-0.39856	
-0.399231	
-0.398804	
-0.39856	
-0.398682	
-0.39801	
-0.397522	
-0.398438	
-0.398071	
-0.398315	
-0.398987	
-0.398376	
-0.396912	
-0.398193	
-0.39856	
-0.398254	
-0.397827	
-0.397461	
-0.397522	
-0.397339	
-0.397278	
-0.396851	
-0.397705	
-0.396973	
-0.397156	
-0.39679	
-0.395996	
-0.396301	
-0.397339	
-0.3974	
-0.396729	
-0.397095	
-0.396301	
-0.396606	
-0.397034	
-0.397278	
-0.397339	
-0.396851	
-0.397034	
-0.396423	
-0.395813	
-0.396973	
-0.397888	
-0.397705	
-0.397278	
-0.397766	
-0.395935	
-0.396118	
-0.397461	
-0.39801	
-0.398682	
-0.398682	
-0.398621	
-0.3974	
-0.399109	
-0.399353	
-0.400024	
-0.398987	
-0.39856	
-0.397583	
-0.396667	
-0.396545	
-0.397278	
-0.395874	
-0.395996	
-0.396301	
-0.395935	
-0.395752	
-0.396301	
-0.396179	
-0.396179	
-0.39563	
-0.395752	
-0.395203	
-0.394592	
-0.395081	
-0.395203	
-0.396057	
-0.395447	
-0.39502	
-0.394836	
-0.394226	
-0.395447	
-0.396484	
-0.395935	
-0.39502	
-0.39563	
-0.394287	
-0.394104	
-0.394775	
-0.395935	
-0.395325	
-0.394714	
-0.394348	
-0.393372	
-0.393738	
-0.394226	
-0.394348	
-0.394287	
-0.393555	
-0.393677	
-0.391968	
-0.392029	
-0.392639	
-0.392395	
-0.392822	
-0.393127	
-0.392761	
-0.392517	
-0.393677	
-0.394531	
-0.39447	
-0.394104	
-0.394104	
-0.394775	
-0.394592	
-0.394836	
-0.395264	
-0.394714	
-0.394958	
-0.395203	
-0.395142	
-0.395081	
-0.395752	
-0.396179	
-0.395996	
-0.395386	
-0.395447	
-0.395386	
-0.395569	
-0.395935	
-0.396179	
-0.395569	
-0.394897	
-0.395386	
-0.394897	
-0.393738	
-0.394775	
-0.395935	
-0.395691	
-0.394958	
-0.395203	
-0.393738	
-0.394226	
-0.394897	
-0.395752	
-0.395386	
-0.394775	
-0.395569	
-0.393738	
-0.393799	
-0.394653	
-0.395203	
-0.395813	
-0.394897	
-0.39563	
-0.394348	
-0.394348	
-0.395142	
-0.395142	
-0.395569	
-0.395569	
-0.395691	
-0.395752	
-0.396179	
-0.396912	
-0.395996	
-0.396118	
-0.395935	
-0.395386	
-0.394958	
-0.395447	
-0.395386	
-0.39447	
-0.395386	
-0.395081	
-0.394653	
-0.394775	
-0.395447	
-0.395447	
-0.395386	
-0.395325	
-0.395325	
-0.394714	
-0.394714	
-0.395447	
-0.396179	
-0.39502	
-0.39563	
-0.395142	
-0.394836	
-0.395935	
-0.396057	
-0.396606	
-0.396606	
-0.396118	
-0.396301	
-0.395569	
-0.395325	
-0.396606	
-0.396973	
-0.396118	
-0.396606	
-0.396179	
-0.39563	
-0.39624	
-0.396423	
-0.396362	
-0.396606	
-0.395691	
-0.395386	
-0.395081	
-0.393982	
-0.394592	
-0.394592	
-0.395386	
-0.394531	
-0.393921	
-0.393433	
-0.394592	
-0.396179	
-0.395142	
-0.394775	
-0.394775	
-0.39502	
-0.395081	
-0.395386	
-0.395691	
-0.395081	
-0.395996	
-0.395081	
-0.39502	
-0.394714	
-0.394836	
-0.395508	
-0.394958	
-0.394287	
-0.394287	
-0.393555	
-0.393799	
-0.394592	
-0.39502	
-0.392944	
-0.394653	
-0.393921	
-0.393677	
-0.393494	
-0.393555	
-0.394287	
-0.394714	
-0.393921	
-0.393616	
-0.393066	
-0.392334	
-0.393311	
-0.393311	
-0.391479	
-0.393494	
-0.392822	
-0.392517	
-0.393372	
-0.392822	
-0.393311	
-0.39386	
-0.393311	
-0.392761	
-0.392334	
-0.391846	
-0.393311	
-0.392639	
-0.391602	
-0.393433	
-0.392334	
-0.392456	
-0.392456	
-0.391968	
-0.392456	
-0.393127	
-0.392212	
-0.393005	
-0.392944	
-0.393433	
-0.394653	
-0.394653	
-0.394775	
-0.39502	
-0.393616	
-0.394836	
-0.395264	
-0.394592	
-0.395203	
-0.395386	
-0.395081	
-0.395569	
-0.394836	
-0.395447	
-0.396362	
-0.395142	
-0.395691	
-0.395996	
-0.394043	
-0.395142	
-0.395386	
-0.395081	
-0.39563	
-0.39502	
-0.395386	
-0.395325	
-0.394409	
-0.395264	
-0.394775	
-0.393921	
-0.394775	
-0.39447	
-0.39386	
-0.394287	
-0.394104	
-0.394165	
-0.394592	
-0.393433	
-0.394043	
-0.392944	
-0.393066	
-0.394043	
-0.392761	
-0.392944	
-0.393799	
-0.393555	
-0.3927	
-0.3927	
-0.393127	
-0.39325	
-0.393372	
-0.392578	
-0.392517	
-0.393311	
-0.392151	
-0.393555	
-0.392517	
-0.392639	
-0.394104	
-0.392639	
-0.393738	
-0.393494	
-0.393677	
-0.39386	
-0.393616	
-0.393372	
-0.394226	
-0.394043	
-0.394409	
-0.394958	
-0.394287	
-0.394226	
-0.394653	
-0.393799	
-0.39447	
-0.394409	
-0.394958	
-0.395508	
-0.394348	
-0.395081	
-0.395142	
-0.394287	
-0.394592	
-0.395264	
-0.394775	
-0.39502	
-0.394409	
-0.394592	
-0.394653	
-0.394348	
-0.395325	
-0.394958	
-0.393982	
-0.394653	
-0.394531	
-0.393677	
-0.395081	
-0.394714	
-0.394348	
-0.394653	
-0.394226	
-0.393494	
-0.393921	
-0.392639	
-0.393005	
-0.393066	
-0.392761	
-0.392395	
-0.392212	
-0.392761	
-0.394531	
-0.393982	
-0.393372	
-0.395447	
-0.394287	
-0.395081	
-0.395447	
-0.395447	
-0.395569	
-0.395508	
-0.395325	
-0.395508	
-0.395691	
-0.395386	
-0.396667	
-0.395935	
-0.395874	
-0.396851	
-0.395447	
-0.395874	
-0.395996	
	
