E:\DOCUMENTS AND SETTINGS\JPOTAS\MEUS DOCUMENTOS\UFRJ\RSCI-BM 12 WK SERIES\070731-RSCI-BM-12\RSCI-BM-12-LEMG\070731-RSCI-BM-12-LEMG-0011.ACQ
0.025000 msec/sample
1 channel
Analog input
Volts
CH1	
2000	
-0.394958	
-0.394531	
-0.394592	
-0.393799	
-0.394775	
-0.394958	
-0.395203	
-0.394348	
-0.394348	
-0.394592	
-0.393799	
-0.394287	
-0.393982	
-0.392639	
-0.39325	
-0.391968	
-0.391846	
-0.392761	
-0.392639	
-0.393799	
-0.393188	
-0.392944	
-0.393677	
-0.391479	
-0.39325	
-0.393494	
-0.392395	
-0.393066	
-0.392456	
-0.39209	
-0.392395	
-0.392456	
-0.393127	
-0.393494	
-0.392517	
-0.392456	
-0.39093	
-0.390442	
-0.393005	
-0.39209	
-0.391968	
-0.391968	
-0.392273	
-0.39209	
-0.392395	
-0.392517	
-0.392822	
-0.392578	
-0.392822	
-0.393188	
-0.392212	
-0.39325	
-0.39386	
-0.392212	
-0.393433	
-0.391724	
-0.393616	
-0.39386	
-0.393494	
-0.393494	
-0.393738	
-0.393433	
-0.393738	
-0.393127	
-0.393616	
-0.393738	
-0.392761	
-0.393372	
-0.392029	
-0.391968	
-0.393127	
-0.393188	
-0.393311	
-0.394104	
-0.392517	
-0.392639	
-0.392334	
-0.391968	
-0.392578	
-0.392151	
-0.392334	
-0.391663	
-0.391602	
-0.391479	
-0.391357	
-0.391724	
-0.391357	
-0.390808	
-0.391052	
-0.390686	
-0.391724	
-0.392273	
-0.393311	
-0.392517	
-0.392944	
-0.39325	
-0.392883	
-0.393555	
-0.393921	
-0.393799	
-0.394043	
-0.393921	
-0.394043	
-0.393311	
-0.394958	
-0.394409	
-0.392883	
-0.393372	
-0.392334	
-0.393372	
-0.393921	
-0.394348	
-0.393921	
-0.395142	
-0.393738	
-0.393982	
-0.393372	
-0.39386	
-0.394165	
-0.393921	
-0.393921	
-0.393616	
-0.393616	
-0.39386	
-0.394409	
-0.394653	
-0.395081	
-0.394653	
-0.395081	
-0.395081	
-0.395386	
-0.395386	
-0.396179	
-0.395691	
-0.395935	
-0.395935	
-0.395508	
-0.396301	
-0.396729	
-0.39624	
-0.395813	
-0.395752	
-0.395935	
-0.39563	
-0.395752	
-0.394958	
-0.394409	
-0.394714	
-0.39447	
-0.394653	
-0.394836	
-0.395752	
-0.394653	
-0.394958	
-0.394165	
-0.394226	
-0.393677	
-0.393799	
-0.394226	
-0.392944	
-0.392761	
-0.392578	
-0.393799	
-0.392517	
-0.394104	
-0.39447	
-0.394287	
-0.394165	
-0.394348	
-0.39325	
-0.394348	
-0.393677	
-0.393921	
-0.393433	
-0.393005	
-0.394043	
-0.393982	
-0.394226	
-0.394104	
-0.393982	
-0.394592	
-0.393738	
-0.394714	
-0.394226	
-0.39386	
-0.394165	
-0.393555	
-0.393372	
-0.393311	
-0.393677	
-0.393921	
-0.394165	
-0.393616	
-0.393921	
-0.393066	
-0.3927	
-0.393372	
-0.387024	
-0.383545	
-0.383057	
-0.38269	
-0.382874	
-0.38324	
-0.389465	
-0.394653	
-0.395569	
-0.395142	
-0.394775	
-0.394043	
-0.394531	
-0.394897	
-0.394165	
-0.394287	
-0.393799	
-0.392639	
-0.393921	
-0.393311	
-0.393921	
-0.393372	
-0.393555	
-0.393921	
-0.393005	
-0.393555	
-0.393127	
-0.392395	
-0.393005	
-0.392212	
-0.391968	
-0.392883	
-0.392883	
-0.393433	
-0.392822	
-0.393066	
-0.393494	
-0.392761	
-0.393494	
-0.392944	
-0.392029	
-0.393677	
-0.393433	
-0.393616	
-0.393738	
-0.393738	
-0.394958	
-0.395935	
-0.396118	
-0.396423	
-0.39624	
-0.39679	
-0.397949	
-0.397583	
-0.398438	
-0.399414	
-0.400391	
-0.401672	
-0.403442	
-0.405273	
-0.409668	
-0.412476	
-0.415955	
-0.417908	
-0.422424	
-0.428101	
-0.434143	
-0.439758	
-0.446045	
-0.453369	
-0.460754	
-0.468872	
-0.477112	
-0.484619	
-0.491638	
-0.499207	
-0.504761	
-0.510681	
-0.515503	
-0.52002	
-0.518616	
-0.516663	
-0.519104	
-0.522156	
-0.524292	
-0.526672	
-0.534119	
-0.539368	
-0.540527	
-0.538757	
-0.538452	
-0.536194	
-0.533142	
-0.531799	
-0.530212	
-0.529175	
-0.529968	
-0.530457	
-0.532593	
-0.535217	
-0.537598	
-0.541504	
-0.544128	
-0.548096	
-0.551086	
-0.552551	
-0.555725	
-0.556946	
-0.558105	
-0.559509	
-0.558899	
-0.557983	
-0.55603	
-0.553955	
-0.552124	
-0.547058	
-0.543091	
-0.537781	
-0.530029	
-0.525146	
-0.517761	
-0.51001	
-0.503113	
-0.496521	
-0.489685	
-0.482788	
-0.475098	
-0.468994	
-0.461731	
-0.454468	
-0.448242	
-0.439697	
-0.434753	
-0.427429	
-0.420166	
-0.413025	
-0.406128	
-0.398926	
-0.393005	
-0.38385	
-0.376892	
-0.369446	
-0.361755	
-0.355469	
-0.347229	
-0.340332	
-0.335388	
-0.328369	
-0.323792	
-0.31897	
-0.313416	
-0.311768	
-0.30896	
-0.306946	
-0.30481	
-0.303467	
-0.30365	
-0.303589	
-0.303711	
-0.304993	
-0.304321	
-0.307495	
-0.309875	
-0.313599	
-0.318298	
-0.32196	
-0.327026	
-0.332703	
-0.337891	
-0.345764	
-0.351807	
-0.360229	
-0.367371	
-0.374817	
-0.382568	
-0.388489	
-0.397156	
-0.403381	
-0.408325	
-0.412781	
-0.41626	
-0.4198	
-0.420898	
-0.42157	
-0.423645	
-0.422913	
-0.424744	
-0.42511	
-0.424683	
-0.426331	
-0.427246	
-0.428284	
-0.429993	
-0.430664	
-0.433777	
-0.43573	
-0.437195	
-0.440186	
-0.440918	
-0.444092	
-0.445923	
-0.447937	
-0.451233	
-0.452759	
-0.455566	
-0.458374	
-0.459778	
-0.462891	
-0.463806	
-0.465576	
-0.466553	
-0.466553	
-0.467651	
-0.468079	
-0.468506	
-0.468933	
-0.468506	
-0.468506	
-0.468811	
-0.46759	
-0.468628	
-0.46582	
-0.465149	
-0.462585	
-0.460632	
-0.45813	
-0.454346	
-0.450073	
-0.447021	
-0.442383	
-0.4375	
-0.432739	
-0.427917	
-0.423523	
-0.416626	
-0.410889	
-0.404541	
-0.395996	
-0.389587	
-0.382813	
-0.374573	
-0.367493	
-0.36084	
-0.353516	
-0.346313	
-0.339966	
-0.333191	
-0.329163	
-0.323364	
-0.319214	
-0.313354	
-0.309937	
-0.307922	
-0.304932	
-0.304138	
-0.303162	
-0.301697	
-0.301331	
-0.300903	
-0.30072	
-0.302063	
-0.301636	
-0.303284	
-0.302429	
-0.302551	
-0.304199	
-0.305969	
-0.307068	
-0.30835	
-0.308838	
-0.31012	
-0.312073	
-0.312866	
-0.313721	
-0.315979	
-0.317749	
-0.319458	
-0.321594	
-0.323608	
-0.325806	
-0.328674	
-0.330383	
-0.332214	
-0.333862	
-0.335754	
-0.338562	
-0.338867	
-0.341553	
-0.342041	
-0.343872	
-0.345154	
-0.345398	
-0.34729	
-0.348938	
-0.349548	
-0.350403	
-0.352234	
-0.353027	
-0.352112	
-0.354858	
-0.355713	
-0.356995	
-0.358765	
-0.359253	
-0.360962	
-0.362427	
-0.364136	
-0.36499	
-0.36676	
-0.366394	
-0.36908	
-0.369568	
-0.36969	
-0.371216	
-0.37207	
-0.372986	
-0.373413	
-0.374023	
-0.375366	
-0.376343	
-0.375854	
-0.377197	
-0.375916	
-0.377441	
-0.37793	
-0.379578	
-0.378296	
-0.379028	
-0.379333	
-0.379333	
-0.380432	
-0.380859	
-0.380554	
-0.381287	
-0.380371	
-0.380432	
-0.380249	
-0.380127	
-0.381042	
-0.380493	
-0.381531	
-0.381409	
-0.380615	
-0.382141	
-0.382385	
-0.382202	
-0.383362	
-0.382141	
-0.383423	
-0.383057	
-0.382996	
-0.383484	
-0.382874	
-0.38446	
-0.384338	
-0.384521	
-0.385864	
-0.38562	
-0.385681	
-0.386169	
-0.384888	
-0.385498	
-0.38623	
-0.387024	
-0.387817	
-0.386169	
-0.387573	
-0.387634	
-0.388062	
-0.389465	
-0.389099	
-0.388733	
-0.389526	
-0.388	
-0.388245	
-0.388855	
-0.389282	
-0.389648	
-0.388672	
-0.388489	
-0.38855	
-0.388733	
-0.388855	
-0.388733	
-0.388794	
-0.388	
-0.388977	
-0.388977	
-0.388489	
-0.390137	
-0.388794	
-0.389771	
-0.390015	
-0.389404	
-0.391724	
-0.391113	
-0.391235	
-0.390869	
-0.391052	
-0.389771	
-0.390381	
-0.39093	
-0.390991	
-0.390991	
-0.390808	
-0.389954	
-0.39093	
-0.390381	
-0.39093	
-0.391541	
-0.391296	
-0.391968	
-0.390747	
-0.390076	
-0.390808	
-0.390625	
-0.39093	
-0.390991	
-0.391113	
-0.39093	
-0.391785	
-0.390381	
-0.390259	
-0.390259	
-0.389465	
-0.38916	
-0.390137	
-0.388916	
-0.389282	
-0.389404	
-0.389343	
-0.389404	
-0.38916	
-0.389099	
-0.388855	
-0.38855	
-0.388489	
-0.387146	
-0.387512	
-0.388245	
-0.387756	
-0.387207	
-0.386963	
-0.387207	
-0.38678	
-0.38739	
-0.386475	
-0.386841	
-0.386475	
-0.386719	
-0.387207	
-0.38855	
-0.388672	
-0.389099	
-0.389282	
-0.389954	
-0.390381	
-0.390381	
-0.391174	
-0.390503	
-0.390747	
-0.39032	
-0.390503	
-0.390564	
-0.390442	
-0.390625	
-0.390137	
-0.390381	
-0.390869	
-0.390625	
-0.390564	
-0.390686	
-0.390198	
-0.391235	
-0.390808	
-0.390503	
-0.389709	
-0.389343	
-0.390869	
-0.389648	
-0.389954	
-0.389526	
-0.389832	
-0.389709	
-0.389893	
-0.388855	
-0.389404	
-0.38855	
-0.389343	
-0.388794	
-0.387756	
-0.388489	
-0.387573	
-0.388855	
-0.388672	
-0.388489	
-0.388489	
-0.388733	
-0.388245	
-0.388855	
-0.38739	
-0.387634	
-0.387695	
-0.387085	
-0.38739	
-0.386658	
-0.387085	
-0.387573	
-0.386963	
-0.386963	
-0.387573	
-0.38739	
-0.388733	
-0.388306	
-0.388428	
-0.387695	
-0.388123	
-0.388489	
-0.387451	
-0.38855	
-0.388489	
-0.388489	
-0.389282	
-0.389893	
-0.389038	
-0.389526	
-0.389832	
-0.388611	
-0.38916	
-0.389709	
-0.389099	
-0.389587	
-0.389648	
-0.38916	
-0.389893	
-0.390076	
-0.390442	
-0.389282	
-0.389526	
-0.389465	
-0.38916	
-0.388794	
-0.389709	
-0.388794	
-0.389099	
-0.389282	
-0.389893	
-0.389587	
-0.389832	
-0.389465	
-0.388855	
-0.388855	
-0.389038	
-0.388062	
-0.387207	
-0.387695	
-0.385803	
-0.387573	
-0.38739	
-0.388428	
-0.388855	
-0.389038	
-0.389282	
-0.389832	
-0.390076	
-0.39032	
-0.389954	
-0.390625	
-0.390869	
-0.389954	
-0.391113	
-0.390503	
-0.39093	
-0.390503	
-0.391113	
-0.390686	
-0.391296	
-0.391296	
-0.391602	
-0.390503	
-0.391052	
-0.391479	
-0.390686	
-0.391602	
-0.391357	
-0.391846	
-0.391602	
-0.39209	
-0.391479	
-0.391663	
-0.391541	
-0.392395	
-0.391541	
-0.392273	
-0.392944	
-0.39093	
-0.39209	
-0.392578	
-0.392395	
-0.3927	
-0.393738	
-0.394348	
-0.393372	
-0.393738	
-0.39447	
-0.393677	
-0.39447	
-0.394714	
-0.393066	
-0.393921	
-0.394165	
-0.394165	
-0.39386	
-0.393616	
-0.393799	
-0.393005	
-0.393433	
-0.393433	
-0.391785	
-0.392517	
-0.392517	
-0.391602	
-0.393127	
-0.392395	
-0.392334	
-0.391968	
-0.392456	
-0.392944	
-0.390503	
-0.391907	
-0.392395	
-0.390808	
-0.391968	
-0.392273	
-0.390991	
-0.391663	
-0.391968	
-0.392944	
-0.391907	
-0.391907	
-0.393311	
-0.391418	
-0.391785	
-0.3927	
-0.391235	
-0.391785	
-0.39209	
-0.391174	
-0.391602	
-0.391602	
-0.392944	
-0.39209	
-0.391907	
-0.392883	
-0.391296	
-0.392639	
-0.392883	
-0.391418	
-0.391846	
-0.391418	
-0.391785	
-0.391846	
-0.391724	
-0.391907	
-0.391235	
-0.391296	
-0.39209	
-0.39093	
-0.392273	
-0.392761	
-0.392639	
-0.392822	
-0.392334	
-0.392944	
-0.393127	
-0.392517	
-0.392639	
-0.391724	
-0.392273	
-0.392761	
-0.391724	
-0.392273	
-0.391663	
-0.391479	
-0.392212	
-0.391907	
-0.391724	
-0.391541	
-0.392029	
-0.392273	
-0.390259	
-0.391052	
-0.391968	
-0.39093	
-0.390625	
-0.391357	
-0.390381	
-0.390259	
-0.390869	
-0.391174	
-0.390625	
-0.390869	
-0.391663	
-0.389771	
-0.390503	
-0.39093	
-0.390869	
-0.390808	
-0.391785	
-0.389954	
-0.389893	
-0.391418	
-0.391785	
-0.39209	
-0.392029	
-0.392822	
-0.391663	
-0.392761	
-0.39325	
-0.391602	
-0.391968	
-0.392761	
-0.391907	
-0.392212	
-0.392212	
-0.391418	
-0.392517	
-0.393066	
-0.393372	
-0.392334	
-0.393372	
-0.39386	
-0.39325	
-0.393738	
-0.394104	
-0.393616	
-0.393738	
-0.393616	
-0.393127	
-0.394287	
-0.394226	
-0.394531	
-0.394409	
-0.39447	
-0.39447	
-0.393738	
-0.394653	
-0.394714	
-0.393738	
-0.393494	
-0.393372	
-0.394104	
-0.394897	
-0.394348	
-0.394958	
-0.394714	
-0.394897	
-0.395447	
-0.395325	
-0.39502	
-0.395325	
-0.395386	
-0.394409	
-0.39447	
-0.394592	
-0.396362	
-0.394836	
-0.395447	
-0.395325	
-0.395325	
-0.396179	
-0.395325	
-0.39502	
-0.395081	
-0.395447	
-0.395386	
-0.394592	
-0.39563	
-0.397095	
-0.39624	
-0.39679	
-0.396912	
-0.395447	
-0.39679	
-0.395264	
-0.394897	
-0.394897	
-0.394043	
-0.394165	
-0.393005	
-0.393188	
-0.394409	
-0.39325	
-0.393372	
-0.394165	
-0.392883	
-0.39325	
-0.393372	
-0.393738	
-0.393738	
-0.392029	
-0.392944	
-0.392639	
-0.393311	
-0.394165	
-0.393799	
-0.393494	
-0.394165	
-0.394165	
-0.395508	
-0.394226	
-0.394226	
-0.394531	
-0.393311	
-0.394958	
-0.394531	
-0.394714	
-0.395264	
-0.395569	
-0.395508	
-0.395752	
-0.395752	
-0.396301	
-0.395813	
-0.396118	
-0.395447	
-0.394958	
-0.395569	
-0.395691	
-0.39563	
-0.396057	
-0.395935	
-0.395752	
-0.396179	
-0.397339	
-0.39679	
-0.396179	
-0.396423	
-0.39679	
-0.39624	
-0.39624	
-0.396729	
-0.396912	
-0.397095	
-0.396729	
-0.396851	
-0.397095	
-0.39801	
-0.397217	
-0.396851	
-0.39624	
-0.396423	
-0.396057	
-0.396179	
-0.395813	
-0.395935	
-0.395935	
-0.396118	
-0.395264	
-0.394958	
-0.395325	
-0.394653	
-0.395508	
-0.395508	
-0.395874	
-0.395935	
-0.395142	
-0.395508	
-0.394836	
-0.394287	
-0.396179	
-0.395569	
-0.395569	
-0.395996	
-0.394714	
-0.396057	
-0.395935	
-0.396362	
-0.396362	
-0.395447	
-0.396179	
-0.394958	
-0.395203	
-0.397034	
-0.396423	
-0.396973	
-0.3974	
-0.39679	
-0.398438	
-0.398376	
-0.398743	
-0.399048	
-0.397278	
-0.397461	
-0.395813	
-0.395691	
-0.396362	
-0.39563	
-0.395264	
-0.395142	
-0.395264	
-0.39624	
-0.395142	
-0.39563	
-0.395752	
-0.394104	
-0.394043	
-0.393311	
-0.39325	
-0.395142	
-0.394775	
-0.39447	
-0.39447	
-0.395325	
-0.395752	
-0.394287	
-0.394714	
-0.394348	
-0.393677	
-0.394531	
-0.393677	
-0.394409	
-0.394775	
-0.394653	
-0.39447	
-0.394226	
-0.395264	
-0.395203	
-0.394104	
-0.394409	
-0.392761	
-0.393311	
-0.393433	
-0.3927	
-0.392822	
-0.39325	
-0.392822	
-0.392578	
-0.392151	
-0.392578	
-0.393188	
-0.392456	
-0.392334	
-0.39209	
-0.393066	
-0.393127	
-0.393372	
-0.393677	
-0.393555	
-0.39386	
-0.394348	
-0.394165	
-0.394592	
-0.395325	
-0.394531	
-0.394592	
-0.395142	
-0.395813	
-0.395386	
-0.394775	
-0.394836	
-0.394897	
-0.396179	
-0.395874	
-0.394653	
-0.394714	
-0.394897	
-0.394897	
-0.394714	
-0.395691	
-0.394714	
-0.394531	
-0.394775	
-0.39447	
-0.394348	
-0.394836	
-0.394653	
-0.394653	
-0.394348	
-0.395508	
-0.395386	
-0.394775	
-0.395386	
-0.393555	
-0.393921	
-0.394287	
-0.393433	
-0.394348	
-0.394409	
-0.394043	
-0.394775	
-0.394775	
-0.395752	
-0.395508	
-0.394836	
-0.395325	
-0.393982	
-0.394348	
-0.395325	
-0.394226	
-0.39447	
-0.395691	
-0.39447	
-0.393982	
-0.394165	
-0.394531	
-0.394592	
-0.394287	
-0.394897	
-0.393494	
-0.394653	
-0.394165	
-0.393311	
-0.394348	
-0.395142	
-0.394531	
-0.394653	
-0.394165	
-0.393921	
-0.394836	
-0.394958	
-0.395203	
-0.394043	
-0.395508	
-0.39502	
-0.394592	
-0.394897	
-0.394775	
-0.394958	
-0.39502	
-0.395325	
-0.394348	
-0.395386	
-0.395996	
-0.395935	
-0.395264	
-0.395691	
-0.395813	
-0.395508	
-0.395874	
-0.395203	
-0.39563	
-0.395813	
-0.395447	
-0.394592	
-0.394958	
-0.39502	
-0.394287	
-0.394043	
-0.394226	
-0.392822	
-0.392944	
-0.393677	
-0.393921	
-0.394287	
-0.394043	
-0.393555	
-0.393616	
-0.394714	
-0.394653	
-0.394287	
-0.394104	
-0.393311	
-0.392944	
-0.39386	
-0.393616	
-0.393738	
-0.39386	
-0.392822	
-0.392761	
-0.393005	
-0.393921	
-0.393127	
-0.392944	
-0.392944	
-0.392212	
-0.392883	
-0.392151	
-0.392212	
-0.392395	
-0.390808	
-0.392883	
-0.392822	
-0.392395	
-0.392395	
-0.392151	
-0.392517	
-0.391907	
-0.390503	
-0.392212	
-0.391418	
-0.391235	
-0.391602	
-0.390381	
-0.391602	
-0.391785	
-0.391357	
-0.391846	
-0.391052	
-0.391907	
-0.392029	
-0.390442	
-0.391541	
-0.389648	
-0.39093	
-0.391174	
-0.390625	
-0.391052	
-0.390991	
-0.390869	
-0.391479	
-0.391296	
-0.390869	
-0.390564	
-0.390076	
-0.390991	
-0.390503	
-0.390076	
-0.391663	
-0.392273	
-0.392212	
-0.392822	
-0.392578	
-0.39386	
-0.392761	
-0.39325	
-0.394165	
-0.392883	
-0.393066	
-0.393738	
-0.39209	
-0.393005	
-0.393066	
-0.393005	
-0.393616	
-0.393066	
-0.393555	
-0.393127	
-0.392944	
-0.393799	
-0.392822	
-0.392273	
-0.393127	
-0.390198	
-0.3927	
-0.392456	
-0.391174	
-0.391907	
-0.391479	
-0.391907	
-0.391968	
-0.391663	
-0.391968	
-0.390808	
-0.390991	
-0.391296	
-0.389648	
-0.390747	
-0.391174	
-0.390503	
-0.390442	
-0.390625	
-0.391174	
-0.391968	
-0.390686	
-0.391052	
-0.390686	
-0.389832	
-0.390442	
-0.390381	
-0.390808	
-0.391113	
-0.390015	
-0.39032	
-0.390503	
-0.390198	
-0.391174	
-0.390259	
-0.39093	
-0.391052	
-0.388977	
-0.390686	
-0.39093	
-0.389648	
-0.391296	
-0.390747	
-0.390198	
-0.39032	
-0.390076	
-0.391846	
-0.391174	
-0.391663	
-0.392944	
-0.390381	
-0.391418	
-0.392334	
-0.39032	
-0.392334	
-0.391174	
-0.390503	
-0.391418	
-0.390381	
-0.391724	
-0.391907	
-0.391113	
-0.391968	
-0.390381	
-0.391296	
-0.391235	
-0.389465	
-0.392212	
-0.390869	
-0.389954	
-0.39093	
-0.390686	
-0.391357	
-0.390808	
-0.39032	
-0.390869	
-0.390137	
-0.389771	
-0.389526	
-0.388062	
-0.388916	
-0.388733	
-0.388367	
-0.389771	
-0.388855	
-0.390381	
-0.391113	
-0.39093	
-0.392029	
-0.392029	
-0.391724	
-0.392273	
-0.39093	
-0.390869	
-0.391846	
-0.390808	
-0.392273	
-0.392151	
-0.392456	
-0.391968	
-0.392517	
-0.392578	
-0.392456	
-0.391724	
-0.392761	
-0.391052	
-0.392151	
-0.393311	
-0.391663	
-0.392151	
-0.39209	
-0.391846	
-0.392822	
-0.392151	
-0.392517	
-0.392578	
-0.392456	
-0.392578	
-0.391846	
-0.392273	
-0.392883	
-0.392944	
-0.393311	
-0.393372	
-0.393188	
-0.39447	
-0.394043	
-0.394348	
-0.394409	
-0.394348	
-0.394775	
-0.394165	
-0.39447	
-0.393616	
-0.39447	
-0.394287	
-0.394043	
-0.393616	
-0.394226	
-0.393372	
-0.394226	
-0.393372	
-0.393127	
-0.393188	
-0.39325	
-0.392822	
-0.392761	
-0.393188	
-0.3927	
-0.392822	
-0.391785	
-0.391296	
-0.392334	
-0.392273	
-0.392334	
-0.392273	
-0.392639	
-0.392395	
-0.391479	
-0.391907	
-0.392761	
-0.391968	
-0.392273	
-0.392578	
-0.391602	
-0.392334	
-0.392395	
-0.392578	
-0.392151	
-0.392822	
-0.392578	
-0.390381	
-0.392029	
-0.392761	
-0.392273	
-0.392212	
-0.392456	
-0.392273	
-0.392822	
-0.392578	
-0.393311	
-0.39209	
-0.392517	
-0.392944	
-0.390808	
-0.391724	
-0.391846	
-0.392151	
-0.391724	
-0.392273	
-0.392029	
-0.392517	
-0.393188	
-0.393738	
-0.393066	
-0.39386	
-0.394592	
-0.393005	
-0.393066	
-0.391785	
-0.392456	
-0.392761	
-0.392456	
-0.392334	
-0.391724	
-0.392212	
-0.392334	
-0.392578	
-0.392212	
-0.392212	
-0.391785	
-0.391479	
-0.391052	
-0.391174	
-0.391724	
-0.391479	
-0.391602	
-0.391418	
-0.391785	
-0.391174	
-0.392395	
-0.390625	
-0.391602	
-0.391113	
-0.390259	
-0.390991	
-0.390747	
-0.391296	
-0.391235	
-0.391174	
-0.391113	
-0.391113	
-0.391724	
-0.391968	
-0.390686	
-0.392273	
-0.392517	
-0.391846	
-0.392334	
-0.393005	
-0.393799	
-0.393188	
-0.393311	
-0.393127	
-0.393005	
-0.393066	
-0.393494	
-0.3927	
-0.394043	
-0.393494	
-0.393311	
-0.393738	
-0.393066	
-0.394592	
-0.393921	
-0.394653	
-0.394531	
-0.393005	
-0.394348	
-0.394897	
-0.39502	
-0.395386	
-0.394592	
-0.394836	
-0.394897	
-0.394043	
-0.394958	
-0.394409	
-0.394714	
-0.394409	
-0.394653	
-0.394897	
-0.39502	
-0.395813	
-0.395935	
-0.395508	
-0.39502	
-0.393921	
-0.393982	
-0.395569	
-0.395508	
-0.395752	
-0.395813	
-0.396057	
-0.395691	
-0.395569	
-0.395874	
-0.395691	
-0.396912	
-0.396118	
-0.395752	
-0.395264	
-0.395691	
-0.396606	
-0.39624	
-0.395935	
-0.396362	
-0.395752	
-0.39679	
-0.396606	
-0.397644	
-0.397705	
-0.396729	
-0.396912	
-0.397217	
-0.396484	
-0.397888	
-0.396606	
-0.396301	
-0.396179	
-0.394287	
-0.395081	
-0.395386	
-0.395386	
-0.395508	
-0.394348	
-0.394348	
-0.393127	
-0.393188	
-0.39502	
-0.394104	
-0.394226	
-0.39447	
-0.39386	
-0.394226	
-0.394226	
-0.394592	
-0.395142	
-0.394104	
-0.394531	
-0.394104	
-0.393311	
-0.395569	
-0.395203	
-0.394897	
-0.395081	
-0.395752	
-0.39563	
-0.396118	
-0.395874	
-0.396057	
-0.396118	
-0.396362	
-0.39624	
-0.396057	
-0.397278	
-0.396729	
-0.396729	
-0.397095	
-0.397217	
-0.396729	
-0.396729	
-0.396851	
-0.3974	
-0.397461	
-0.397095	
-0.396729	
-0.396973	
-0.397339	
-0.397461	
-0.397583	
-0.397583	
-0.397461	
-0.397705	
-0.398071	
-0.398315	
-0.398743	
-0.398621	
-0.39801	
-0.397522	
-0.397278	
-0.397522	
-0.398132	
-0.397705	
-0.397705	
-0.397461	
-0.397278	
-0.397095	
-0.397827	
-0.398071	
-0.397888	
-0.396667	
-0.396057	
-0.394958	
-0.39624	
-0.397583	
-0.396484	
-0.39624	
-0.396606	
-0.397827	
-0.396667	
-0.396118	
-0.397156	
-0.396484	
-0.396423	
-0.396667	
-0.396179	
-0.395569	
-0.398132	
-0.397156	
-0.396729	
-0.397278	
-0.396606	
-0.397522	
-0.397461	
-0.397644	
-0.397522	
-0.398315	
-0.397827	
-0.39801	
-0.398438	
-0.398438	
-0.399414	
-0.399597	
-0.399414	
-0.398743	
-0.399841	
-0.398804	
-0.399048	
-0.398743	
-0.397949	
-0.397278	
-0.396729	
-0.395508	
-0.396362	
-0.396667	
-0.396423	
-0.396179	
-0.396118	
-0.397034	
-0.396179	
-0.396118	
-0.397095	
-0.39502	
-0.395752	
-0.39563	
-0.395081	
-0.395935	
-0.396179	
-0.396057	
-0.396057	
-0.395752	
-0.396667	
-0.395569	
-0.395935	
-0.397217	
-0.395935	
-0.396545	
-0.395874	
-0.395386	
-0.395264	
-0.396729	
-0.395752	
-0.395569	
-0.395203	
-0.395142	
-0.394775	
-0.395081	
-0.395142	
-0.395203	
-0.394592	
-0.393982	
-0.393677	
-0.3927	
-0.39325	
-0.393799	
-0.394348	
-0.39386	
-0.393616	
-0.394714	
-0.394836	
-0.395203	
-0.396423	
-0.396118	
-0.395569	
-0.395447	
-0.39502	
-0.396179	
-0.395813	
-0.396484	
-0.397095	
-0.395691	
-0.396362	
-0.396667	
-0.396851	
-0.398071	
-0.397217	
-0.396912	
-0.396362	
-0.395874	
-0.397339	
-0.396667	
-0.396484	
-0.396118	
-0.395386	
-0.396667	
-0.395874	
-0.396118	
-0.396606	
-0.397461	
-0.397034	
-0.396179	
-0.395996	
-0.396301	
-0.395691	
-0.395874	
-0.395813	
-0.39563	
-0.396606	
-0.395935	
-0.395752	
-0.395569	
-0.396606	
-0.396729	
-0.396362	
-0.396484	
-0.395813	
-0.396301	
-0.396301	
-0.396851	
-0.39679	
-0.397339	
-0.39679	
-0.396973	
-0.396667	
-0.396545	
-0.395935	
-0.395874	
-0.395569	
-0.395569	
-0.395691	
-0.395691	
-0.396423	
-0.396118	
-0.397034	
-0.395813	
-0.395874	
-0.396301	
-0.396423	
-0.3974	
-0.39679	
-0.395569	
-0.395569	
-0.396179	
-0.395386	
-0.396423	
-0.396667	
-0.397034	
-0.396667	
-0.397034	
-0.396729	
-0.397156	
-0.397766	
-0.397949	
-0.396545	
-0.39624	
-0.396912	
-0.39624	
-0.396912	
-0.397217	
-0.397339	
-0.397583	
-0.397095	
-0.397217	
-0.397522	
-0.397522	
-0.397278	
-0.397034	
-0.395996	
-0.395874	
-0.395691	
-0.395874	
-0.395752	
-0.394531	
-0.395691	
-0.39502	
-0.395508	
-0.395752	
-0.394714	
-0.395691	
-0.395691	
-0.395386	
-0.395325	
-0.394714	
-0.394409	
-0.395508	
-0.395569	
-0.396667	
-0.395264	
-0.395264	
-0.39502	
-0.394165	
-0.395142	
-0.395264	
-0.394531	
-0.394897	
-0.394592	
-0.393311	
-0.393799	
-0.394043	
-0.395081	
-0.394958	
-0.394592	
-0.39447	
-0.394348	
-0.395264	
-0.393982	
-0.393127	
-0.392517	
-0.39325	
-0.39325	
-0.393188	
-0.393066	
-0.39325	
-0.39386	
-0.393188	
-0.39325	
-0.39386	
-0.393677	
-0.393677	
-0.393799	
-0.391235	
-0.392639	
-0.392212	
-0.392395	
-0.392334	
-0.392273	
-0.393433	
-0.393127	
-0.393311	
-0.393555	
-0.393188	
-0.392822	
-0.393738	
-0.391113	
-0.392517	
-0.391724	
-0.390686	
-0.391785	
-0.391541	
-0.393616	
-0.393372	
-0.393677	
-0.394531	
-0.394104	
-0.394775	
-0.394714	
-0.394348	
-0.39502	
-0.394836	
-0.394958	
-0.394897	
-0.39447	
-0.395996	
-0.394897	
-0.394653	
-0.395325	
-0.394226	
-0.395813	
-0.395386	
	
