E:\DOCUMENTS AND SETTINGS\JPOTAS\MEUS DOCUMENTOS\UFRJ\RSCI-BM 12 WK SERIES\070731-RSCI-BM-12\RSCI-BM-12-LEMG\070731-RSCI-BM-12-LEMG-0013.ACQ
0.025000 msec/sample
1 channel
Analog input
Volts
CH1	
2000	
-0.396729	
-0.396912	
-0.396118	
-0.397339	
-0.398132	
-0.396606	
-0.397705	
-0.397339	
-0.396301	
-0.397522	
-0.397278	
-0.397949	
-0.398254	
-0.397949	
-0.398132	
-0.398071	
-0.398499	
-0.399292	
-0.398621	
-0.398132	
-0.398499	
-0.398193	
-0.399475	
-0.398499	
-0.398987	
-0.39917	
-0.398254	
-0.39801	
-0.397766	
-0.397644	
-0.398499	
-0.399719	
-0.397644	
-0.397644	
-0.39679	
-0.396912	
-0.396973	
-0.396973	
-0.398254	
-0.395386	
-0.39624	
-0.39624	
-0.395325	
-0.396729	
-0.397705	
-0.396545	
-0.396545	
-0.396301	
-0.394897	
-0.39624	
-0.396545	
-0.397461	
-0.395142	
-0.395996	
-0.395508	
-0.394409	
-0.396057	
-0.39624	
-0.395264	
-0.395142	
-0.395203	
-0.393738	
-0.394043	
-0.39386	
-0.395081	
-0.393982	
-0.393311	
-0.393066	
-0.3927	
-0.394104	
-0.39386	
-0.393799	
-0.392944	
-0.392639	
-0.392212	
-0.392883	
-0.392212	
-0.392517	
-0.392761	
-0.392029	
-0.391846	
-0.392273	
-0.391479	
-0.393066	
-0.39386	
-0.392639	
-0.392578	
-0.391846	
-0.392395	
-0.392212	
-0.392578	
-0.393005	
-0.391113	
-0.392578	
-0.3927	
-0.39209	
-0.393127	
-0.39447	
-0.393433	
-0.393188	
-0.393311	
-0.391785	
-0.393982	
-0.394348	
-0.395386	
-0.393616	
-0.394043	
-0.394287	
-0.394104	
-0.395081	
-0.395996	
-0.394714	
-0.395081	
-0.394958	
-0.394043	
-0.395447	
-0.395447	
-0.396179	
-0.395264	
-0.395447	
-0.395935	
-0.396118	
-0.396912	
-0.398376	
-0.397644	
-0.39801	
-0.398376	
-0.397522	
-0.398254	
-0.397278	
-0.398315	
-0.397705	
-0.397705	
-0.397583	
-0.396423	
-0.398315	
-0.399231	
-0.39856	
-0.398499	
-0.39856	
-0.398132	
-0.39917	
-0.398254	
-0.399292	
-0.39917	
-0.397583	
-0.398254	
-0.397827	
-0.39801	
-0.398865	
-0.399231	
-0.398254	
-0.398132	
-0.3974	
-0.3974	
-0.398499	
-0.39856	
-0.399048	
-0.397888	
-0.39801	
-0.397827	
-0.397461	
-0.399048	
-0.399109	
-0.397827	
-0.398193	
-0.397034	
-0.396851	
-0.397583	
-0.397095	
-0.397705	
-0.396606	
-0.395996	
-0.39624	
-0.395447	
-0.396484	
-0.396362	
-0.395813	
-0.395874	
-0.395691	
-0.395447	
-0.396729	
-0.39624	
-0.397034	
-0.396545	
-0.395325	
-0.395569	
-0.394409	
-0.396301	
-0.396667	
-0.395752	
-0.395081	
-0.395386	
-0.395081	
-0.395813	
-0.394897	
-0.395081	
-0.387695	
-0.382629	
-0.381714	
-0.380798	
-0.38208	
-0.382935	
-0.389954	
-0.392944	
-0.393982	
-0.392517	
-0.392395	
-0.393433	
-0.393799	
-0.392883	
-0.392334	
-0.392212	
-0.392029	
-0.392273	
-0.392639	
-0.392395	
-0.392273	
-0.392151	
-0.390808	
-0.391235	
-0.3927	
-0.392883	
-0.392761	
-0.392029	
-0.391357	
-0.391846	
-0.392395	
-0.392822	
-0.392578	
-0.392395	
-0.392822	
-0.392761	
-0.392639	
-0.394348	
-0.393738	
-0.395386	
-0.393616	
-0.392822	
-0.394104	
-0.392822	
-0.395081	
-0.395447	
-0.395508	
-0.395691	
-0.39624	
-0.396484	
-0.398193	
-0.397583	
-0.399109	
-0.397888	
-0.398621	
-0.400024	
-0.399353	
-0.402649	
-0.405579	
-0.407837	
-0.409729	
-0.41217	
-0.415955	
-0.420044	
-0.423523	
-0.429443	
-0.43335	
-0.438049	
-0.445068	
-0.450806	
-0.459839	
-0.467896	
-0.475525	
-0.482849	
-0.490173	
-0.497437	
-0.50592	
-0.511597	
-0.51825	
-0.522278	
-0.52655	
-0.530396	
-0.53363	
-0.538269	
-0.540955	
-0.542114	
-0.542786	
-0.54364	
-0.543335	
-0.544434	
-0.543091	
-0.540955	
-0.537964	
-0.536072	
-0.533936	
-0.532593	
-0.532837	
-0.533447	
-0.533813	
-0.53479	
-0.536926	
-0.538879	
-0.544128	
-0.547424	
-0.549561	
-0.551514	
-0.553772	
-0.554138	
-0.556458	
-0.557068	
-0.5578	
-0.555786	
-0.554504	
-0.552673	
-0.549744	
-0.547546	
-0.544983	
-0.539368	
-0.533813	
-0.527405	
-0.513977	
-0.502869	
-0.494629	
-0.488098	
-0.480042	
-0.472473	
-0.472473	
-0.469849	
-0.46521	
-0.458313	
-0.451416	
-0.444092	
-0.436401	
-0.429749	
-0.42395	
-0.417114	
-0.410156	
-0.401917	
-0.394775	
-0.387268	
-0.379089	
-0.372437	
-0.363892	
-0.357056	
-0.347534	
-0.340271	
-0.332581	
-0.323486	
-0.318848	
-0.3125	
-0.30603	
-0.299194	
-0.292542	
-0.28894	
-0.284973	
-0.281128	
-0.279053	
-0.274292	
-0.272217	
-0.270386	
-0.268555	
-0.268188	
-0.268372	
-0.268677	
-0.269104	
-0.269958	
-0.271545	
-0.274536	
-0.277466	
-0.281189	
-0.284851	
-0.28772	
-0.292664	
-0.298889	
-0.303894	
-0.309937	
-0.313843	
-0.318604	
-0.323975	
-0.329773	
-0.335388	
-0.340332	
-0.34436	
-0.348877	
-0.352783	
-0.35791	
-0.362244	
-0.367798	
-0.372314	
-0.37738	
-0.383606	
-0.389343	
-0.396057	
-0.402405	
-0.407288	
-0.413269	
-0.420166	
-0.426392	
-0.434326	
-0.440491	
-0.446106	
-0.451599	
-0.456909	
-0.46167	
-0.467285	
-0.470703	
-0.474548	
-0.476624	
-0.478638	
-0.479797	
-0.481995	
-0.481445	
-0.481384	
-0.47937	
-0.477539	
-0.476929	
-0.475708	
-0.476074	
-0.475525	
-0.474976	
-0.475464	
-0.475647	
-0.477051	
-0.480103	
-0.481018	
-0.483337	
-0.484253	
-0.486206	
-0.48761	
-0.490295	
-0.493408	
-0.4953	
-0.495728	
-0.496704	
-0.496521	
-0.496582	
-0.497803	
-0.497803	
-0.496094	
-0.494019	
-0.492065	
-0.489014	
-0.486145	
-0.483521	
-0.479858	
-0.474121	
-0.469727	
-0.46405	
-0.458313	
-0.453552	
-0.448853	
-0.442444	
-0.435974	
-0.430481	
-0.423706	
-0.417786	
-0.411621	
-0.405151	
-0.396179	
-0.387878	
-0.378296	
-0.369629	
-0.361389	
-0.353149	
-0.344543	
-0.335938	
-0.327942	
-0.320251	
-0.314026	
-0.308105	
-0.301941	
-0.295715	
-0.292053	
-0.287964	
-0.2854	
-0.28363	
-0.281921	
-0.280518	
-0.278809	
-0.279053	
-0.27832	
-0.278992	
-0.280273	
-0.281067	
-0.281128	
-0.282532	
-0.283081	
-0.28595	
-0.288391	
-0.291199	
-0.292358	
-0.293579	
-0.297546	
-0.300659	
-0.303589	
-0.307312	
-0.309631	
-0.311829	
-0.314209	
-0.316772	
-0.320068	
-0.323364	
-0.325806	
-0.327881	
-0.331177	
-0.332825	
-0.335022	
-0.33783	
-0.338867	
-0.340088	
-0.341125	
-0.341858	
-0.344116	
-0.34613	
-0.347778	
-0.348694	
-0.34967	
-0.351929	
-0.353333	
-0.354736	
-0.357056	
-0.358215	
-0.358398	
-0.358948	
-0.359985	
-0.360535	
-0.362305	
-0.363464	
-0.364319	
-0.365295	
-0.366272	
-0.367737	
-0.369812	
-0.369873	
-0.370117	
-0.370667	
-0.371399	
-0.372559	
-0.37384	
-0.373535	
-0.373596	
-0.373718	
-0.373901	
-0.375977	
-0.377258	
-0.378174	
-0.378845	
-0.378418	
-0.377258	
-0.377747	
-0.380127	
-0.379761	
-0.379822	
-0.379333	
-0.37915	
-0.380981	
-0.381226	
-0.382568	
-0.381287	
-0.38147	
-0.382141	
-0.381897	
-0.383179	
-0.382813	
-0.383118	
-0.382751	
-0.381287	
-0.383362	
-0.383545	
-0.383301	
-0.384155	
-0.384155	
-0.383301	
-0.382935	
-0.382996	
-0.383484	
-0.383728	
-0.382996	
-0.382874	
-0.382446	
-0.383789	
-0.38324	
-0.384216	
-0.38385	
-0.383667	
-0.383606	
-0.382751	
-0.383179	
-0.384216	
-0.383789	
-0.383972	
-0.383179	
-0.383423	
-0.38324	
-0.383545	
-0.38324	
-0.383606	
-0.382446	
-0.381531	
-0.382263	
-0.382202	
-0.383057	
-0.382996	
-0.383423	
-0.382446	
-0.383118	
-0.383423	
-0.383728	
-0.384216	
-0.383484	
-0.383301	
-0.383423	
-0.383423	
-0.383423	
-0.383301	
-0.382874	
-0.38324	
-0.383728	
-0.384033	
-0.384583	
-0.384766	
-0.384094	
-0.383911	
-0.384949	
-0.385376	
-0.38562	
-0.384766	
-0.384888	
-0.384033	
-0.385193	
-0.385498	
-0.385376	
-0.385925	
-0.386597	
-0.385376	
-0.386047	
-0.38623	
-0.387634	
-0.386902	
-0.387085	
-0.387085	
-0.387634	
-0.388184	
-0.388855	
-0.388733	
-0.390137	
-0.389343	
-0.390015	
-0.389221	
-0.39032	
-0.39032	
-0.390442	
-0.390808	
-0.388977	
-0.391235	
-0.392395	
-0.391968	
-0.392578	
-0.39209	
-0.391296	
-0.391968	
-0.391541	
-0.393372	
-0.392029	
-0.391479	
-0.391724	
-0.391785	
-0.391541	
-0.392151	
-0.391968	
-0.393127	
-0.391174	
-0.391174	
-0.391296	
-0.390991	
-0.392151	
-0.392334	
-0.391907	
-0.391602	
-0.392395	
-0.392944	
-0.392822	
-0.3927	
-0.393738	
-0.393066	
-0.393066	
-0.393066	
-0.393616	
-0.393127	
-0.393066	
-0.392944	
-0.392639	
-0.393311	
-0.393555	
-0.39386	
-0.393799	
-0.394287	
-0.393188	
-0.393494	
-0.39325	
-0.392822	
-0.393616	
-0.392944	
-0.392578	
-0.391785	
-0.3927	
-0.392212	
-0.391724	
-0.392212	
-0.393127	
-0.391357	
-0.391357	
-0.390686	
-0.391418	
-0.392151	
-0.391663	
-0.391602	
-0.390198	
-0.391174	
-0.391968	
-0.391357	
-0.392212	
-0.391907	
-0.391479	
-0.391663	
-0.390564	
-0.392456	
-0.391785	
-0.390808	
-0.390625	
-0.390015	
-0.390747	
-0.391479	
-0.390259	
-0.391357	
-0.389465	
-0.388428	
-0.389465	
-0.389648	
-0.390137	
-0.389526	
-0.389648	
-0.388916	
-0.38916	
-0.389343	
-0.389526	
-0.388794	
-0.388916	
-0.388367	
-0.388489	
-0.387817	
-0.389954	
-0.389648	
-0.388733	
-0.388733	
-0.388672	
-0.388062	
-0.388916	
-0.388855	
-0.390747	
-0.388916	
-0.388245	
-0.388855	
-0.387573	
-0.389465	
-0.389954	
-0.389954	
-0.388977	
-0.389893	
-0.390137	
-0.39093	
-0.390869	
-0.391846	
-0.390442	
-0.389832	
-0.390808	
-0.39209	
-0.391724	
-0.391663	
-0.391235	
-0.390747	
-0.391418	
-0.391907	
-0.392273	
-0.392273	
-0.392578	
-0.39209	
-0.392212	
-0.392212	
-0.393188	
-0.393738	
-0.393311	
-0.392883	
-0.394226	
-0.394348	
-0.395447	
-0.395081	
-0.395142	
-0.395203	
-0.394226	
-0.394348	
-0.394226	
-0.394714	
-0.395935	
-0.39502	
-0.39447	
-0.39563	
-0.395203	
-0.395447	
-0.396118	
-0.396484	
-0.396301	
-0.395508	
-0.39563	
-0.396301	
-0.395691	
-0.396179	
-0.395447	
-0.394958	
-0.395325	
-0.395264	
-0.395508	
-0.396179	
-0.396118	
-0.396667	
-0.395325	
-0.394958	
-0.395691	
-0.395325	
-0.396057	
-0.39563	
-0.394592	
-0.395813	
-0.396057	
-0.396057	
-0.396423	
-0.395569	
-0.395447	
-0.394653	
-0.39447	
-0.394165	
-0.393188	
-0.394409	
-0.39447	
-0.394531	
-0.393982	
-0.393616	
-0.394043	
-0.394958	
-0.394043	
-0.394592	
-0.394165	
-0.393372	
-0.393311	
-0.393127	
-0.394043	
-0.394165	
-0.394714	
-0.394348	
-0.393616	
-0.393616	
-0.394104	
-0.393921	
-0.394348	
-0.39325	
-0.392639	
-0.391785	
-0.391235	
-0.392456	
-0.391113	
-0.391968	
-0.392273	
-0.391663	
-0.391907	
-0.391785	
-0.391418	
-0.391418	
-0.390808	
-0.390625	
-0.388855	
-0.389954	
-0.389832	
-0.389954	
-0.390137	
-0.389709	
-0.390015	
-0.390259	
-0.390808	
-0.391296	
-0.390076	
-0.390503	
-0.390198	
-0.388855	
-0.389404	
-0.389404	
-0.390015	
-0.390442	
-0.390381	
-0.390198	
-0.390503	
-0.390259	
-0.391541	
-0.390991	
-0.391113	
-0.391235	
-0.390442	
-0.391296	
-0.391663	
-0.391907	
-0.391663	
-0.391846	
-0.391174	
-0.392334	
-0.392517	
-0.393921	
-0.393127	
-0.393311	
-0.393311	
-0.391907	
-0.392944	
-0.394043	
-0.393372	
-0.393555	
-0.393494	
-0.3927	
-0.394836	
-0.394897	
-0.395569	
-0.395569	
-0.395203	
-0.395508	
-0.395508	
-0.395203	
-0.395752	
-0.395386	
-0.395569	
-0.395264	
-0.39447	
-0.395996	
-0.396606	
-0.396606	
-0.396179	
-0.395813	
-0.395935	
-0.39563	
-0.395386	
-0.396606	
-0.396667	
-0.396729	
-0.396545	
-0.39624	
-0.396851	
-0.39679	
-0.397583	
-0.397461	
-0.396057	
-0.396057	
-0.396362	
-0.395813	
-0.396912	
-0.396973	
-0.396729	
-0.396545	
-0.396484	
-0.396729	
-0.397156	
-0.397156	
-0.397583	
-0.396606	
-0.396362	
-0.395569	
-0.394775	
-0.396057	
-0.395752	
-0.394836	
-0.39447	
-0.39447	
-0.395081	
-0.394775	
-0.394409	
-0.395813	
-0.393616	
-0.393311	
-0.393127	
-0.391479	
-0.393494	
-0.393127	
-0.393005	
-0.392578	
-0.391357	
-0.391724	
-0.391846	
-0.391052	
-0.39325	
-0.390747	
-0.390503	
-0.39032	
-0.389404	
-0.391907	
-0.391296	
-0.391602	
-0.391296	
-0.390686	
-0.391235	
-0.391846	
-0.391296	
-0.393005	
-0.390686	
-0.390564	
-0.390259	
-0.389099	
-0.390808	
-0.390564	
-0.390442	
-0.39032	
-0.389709	
-0.390381	
-0.390686	
-0.389954	
-0.390686	
-0.389343	
-0.389709	
-0.389038	
-0.387939	
-0.389832	
-0.389771	
-0.389526	
-0.389648	
-0.388733	
-0.389709	
-0.390564	
-0.390503	
-0.391052	
-0.389648	
-0.389221	
-0.388977	
-0.38855	
-0.391113	
-0.391418	
-0.391113	
-0.391296	
-0.390137	
-0.391724	
-0.392517	
-0.393066	
-0.393494	
-0.392273	
-0.390747	
-0.391235	
-0.391602	
-0.393555	
-0.392456	
-0.392456	
-0.391785	
-0.391174	
-0.392639	
-0.393921	
-0.39386	
-0.394592	
-0.393311	
-0.392151	
-0.393066	
-0.392456	
-0.394958	
-0.394348	
-0.394409	
-0.394104	
-0.393738	
-0.394653	
-0.395264	
-0.394409	
-0.395996	
-0.394592	
-0.394653	
-0.394958	
-0.39386	
-0.396179	
-0.395386	
-0.39624	
-0.395996	
-0.394592	
-0.395813	
-0.396423	
-0.396057	
-0.396912	
-0.395142	
-0.395386	
-0.395264	
-0.394409	
-0.396423	
-0.396057	
-0.395813	
-0.395691	
-0.39563	
-0.39563	
-0.395996	
-0.396301	
-0.397095	
-0.395142	
-0.394714	
-0.394836	
-0.394043	
-0.395264	
-0.394653	
-0.394592	
-0.394531	
-0.39386	
-0.394409	
-0.394409	
-0.394653	
-0.394592	
-0.394287	
-0.393738	
-0.39386	
-0.392212	
-0.39447	
-0.393311	
-0.393188	
-0.393555	
-0.393005	
-0.393188	
-0.39325	
-0.394592	
-0.394165	
-0.392639	
-0.391968	
-0.392029	
-0.389282	
-0.391541	
-0.391113	
-0.391724	
-0.391052	
-0.390625	
-0.390625	
-0.391052	
-0.391724	
-0.391418	
-0.389648	
-0.389526	
-0.389954	
-0.389038	
-0.390747	
-0.389771	
-0.389709	
-0.389954	
-0.388916	
-0.389465	
-0.390137	
-0.391113	
-0.391541	
-0.389893	
-0.389771	
-0.38916	
-0.389526	
-0.391052	
-0.390381	
-0.390137	
-0.389954	
-0.389221	
-0.390503	
-0.390015	
-0.391174	
-0.391602	
-0.390198	
-0.389404	
-0.388611	
-0.388916	
-0.390747	
-0.390198	
-0.390991	
-0.391357	
-0.390442	
-0.391846	
-0.392273	
-0.393066	
-0.393921	
-0.392273	
-0.391907	
-0.391296	
-0.391235	
-0.393311	
-0.392456	
-0.392639	
-0.392578	
-0.392151	
-0.392883	
-0.393311	
-0.394409	
-0.394775	
-0.393372	
-0.392639	
-0.392212	
-0.391907	
-0.394348	
-0.393311	
-0.393494	
-0.393616	
-0.393188	
-0.394775	
-0.395325	
-0.394653	
-0.39563	
-0.394714	
-0.394531	
-0.393738	
-0.394287	
-0.395691	
-0.395081	
-0.395142	
-0.395203	
-0.394836	
-0.396057	
-0.39679	
-0.396973	
-0.398254	
-0.396729	
-0.396301	
-0.395691	
-0.396118	
-0.397156	
-0.396484	
-0.396362	
-0.396545	
-0.395447	
-0.396484	
-0.397156	
-0.397461	
-0.398193	
-0.396362	
-0.395996	
-0.39563	
-0.395264	
-0.396729	
-0.396179	
-0.395874	
-0.395813	
-0.395447	
-0.395874	
-0.39563	
-0.39563	
-0.396362	
-0.39447	
-0.394287	
-0.393921	
-0.391968	
-0.39447	
-0.394043	
-0.393616	
-0.393311	
-0.393555	
-0.393433	
-0.393921	
-0.393738	
-0.395081	
-0.393188	
-0.39325	
-0.392944	
-0.390442	
-0.393188	
-0.393127	
-0.392883	
-0.391846	
-0.391296	
-0.39093	
-0.391296	
-0.391174	
-0.393494	
-0.390991	
-0.390869	
-0.391052	
-0.388916	
-0.391479	
-0.391052	
-0.390198	
-0.390442	
-0.390198	
-0.390015	
-0.39093	
-0.390381	
-0.392639	
-0.389587	
-0.388794	
-0.388977	
-0.38678	
-0.389709	
-0.390564	
-0.389282	
-0.389465	
-0.389221	
-0.389099	
-0.390381	
-0.390015	
-0.391541	
-0.389954	
-0.389587	
-0.389099	
-0.386597	
-0.389587	
-0.390747	
-0.389771	
-0.390381	
-0.390137	
-0.389221	
-0.391174	
-0.391113	
-0.393188	
-0.391296	
-0.39093	
-0.391724	
-0.388977	
-0.391907	
-0.393066	
-0.392456	
-0.392517	
-0.392639	
-0.392395	
-0.39386	
-0.393738	
-0.395996	
-0.39386	
-0.393372	
-0.394592	
-0.393799	
-0.395996	
-0.395935	
-0.395691	
-0.395386	
-0.395874	
-0.395386	
-0.396606	
-0.395813	
-0.397278	
-0.394165	
-0.393738	
-0.394531	
-0.393738	
-0.394775	
-0.395142	
-0.395386	
-0.395142	
-0.39502	
-0.395142	
-0.396118	
-0.395081	
-0.396667	
-0.394958	
-0.394653	
-0.39563	
-0.393921	
-0.396057	
-0.396606	
-0.397278	
-0.39679	
-0.396057	
-0.396179	
-0.397095	
-0.396729	
-0.398376	
-0.396362	
-0.395264	
-0.396118	
-0.394775	
-0.396301	
-0.396484	
-0.397156	
-0.396851	
-0.396362	
-0.39624	
-0.396545	
-0.395874	
-0.397156	
-0.395447	
-0.393311	
-0.39447	
-0.392639	
-0.394714	
-0.39447	
-0.395081	
-0.39386	
-0.39447	
-0.39447	
-0.394409	
-0.393982	
-0.395569	
-0.394836	
-0.393372	
-0.393799	
-0.391846	
-0.393677	
-0.393433	
-0.394897	
-0.394165	
-0.39386	
-0.393494	
-0.392761	
-0.392761	
-0.393555	
-0.393005	
-0.392212	
-0.392151	
-0.391174	
-0.391541	
-0.391968	
-0.392761	
-0.391907	
-0.391418	
-0.391418	
-0.391296	
-0.391785	
-0.392761	
-0.390442	
-0.390137	
-0.390686	
-0.389648	
-0.390015	
-0.390198	
-0.390869	
-0.390625	
-0.390381	
-0.390625	
-0.391479	
-0.390625	
-0.391357	
-0.391052	
-0.389282	
-0.390564	
-0.389221	
-0.390991	
-0.390625	
-0.391541	
-0.390991	
-0.391052	
-0.391052	
-0.391724	
-0.391357	
-0.392517	
-0.392334	
-0.390625	
-0.392029	
-0.390503	
-0.391907	
-0.392456	
-0.393433	
-0.392273	
-0.392456	
-0.392517	
-0.393494	
-0.393005	
-0.394348	
-0.393982	
-0.392273	
-0.393433	
-0.392517	
-0.392822	
-0.39386	
-0.394165	
-0.394226	
-0.394653	
-0.394775	
-0.395752	
-0.396362	
-0.396484	
-0.396729	
-0.394897	
-0.395752	
-0.395081	
-0.395203	
-0.396301	
-0.396118	
-0.396484	
-0.396484	
-0.396423	
-0.3974	
-0.395996	
-0.396973	
-0.397644	
-0.395813	
-0.396545	
-0.39679	
-0.396729	
-0.396912	
-0.396851	
-0.397522	
-0.396484	
-0.396545	
-0.396973	
-0.39679	
-0.396912	
-0.397705	
-0.395935	
-0.396606	
-0.395874	
-0.39624	
-0.396484	
-0.397522	
-0.397766	
-0.396729	
-0.397278	
-0.397156	
-0.395752	
-0.397217	
-0.398071	
-0.395447	
-0.395325	
-0.395325	
-0.394531	
-0.395081	
-0.395081	
-0.395386	
-0.394531	
-0.39502	
-0.394836	
-0.394409	
-0.394775	
-0.396118	
-0.394836	
-0.394287	
-0.393921	
-0.392029	
-0.39447	
-0.394775	
-0.39502	
-0.394104	
-0.394409	
-0.394836	
-0.39325	
-0.394836	
-0.396423	
-0.394958	
-0.393799	
-0.393127	
-0.391541	
-0.392944	
-0.39325	
-0.393555	
-0.392456	
-0.3927	
-0.392822	
-0.391541	
-0.392456	
-0.393066	
-0.392883	
-0.391724	
-0.391357	
-0.390381	
-0.390076	
-0.390686	
-0.390808	
-0.390442	
-0.390991	
-0.390503	
-0.389893	
-0.390564	
-0.39093	
-0.39093	
-0.390442	
-0.390198	
-0.390503	
-0.389709	
-0.39093	
-0.391052	
-0.390503	
-0.391113	
-0.39032	
-0.390198	
-0.39032	
-0.39093	
-0.391724	
-0.39093	
-0.391052	
-0.391235	
-0.391541	
-0.392029	
-0.392334	
-0.392883	
-0.393066	
-0.392639	
-0.392883	
-0.393127	
-0.393188	
-0.394592	
-0.393311	
-0.393188	
-0.393188	
-0.393372	
-0.394043	
-0.394409	
-0.394043	
-0.394348	
-0.393677	
-0.394226	
-0.394897	
-0.394409	
-0.3974	
-0.396057	
-0.396118	
-0.396362	
-0.39563	
-0.395996	
-0.396667	
-0.396545	
-0.396912	
-0.395935	
-0.395569	
-0.396301	
-0.395569	
-0.398926	
-0.396973	
-0.396912	
-0.396667	
-0.39624	
-0.396667	
-0.397217	
-0.39801	
-0.398315	
-0.397461	
-0.3974	
-0.397766	
-0.397461	
-0.399475	
-0.398193	
-0.397278	
-0.397034	
-0.396484	
-0.3974	
-0.397705	
-0.398193	
-0.398315	
-0.397522	
-0.397461	
-0.397644	
-0.396973	
-0.398499	
-0.398254	
-0.397766	
-0.397522	
-0.395752	
-0.395996	
-0.396667	
-0.396667	
-0.396545	
-0.396179	
-0.395447	
-0.395569	
-0.394409	
-0.395813	
-0.395874	
-0.394897	
-0.39502	
-0.39325	
-0.393188	
-0.394592	
-0.395203	
-0.394775	
-0.393738	
-0.393188	
-0.3927	
-0.392151	
-0.394104	
-0.393555	
-0.392151	
-0.39209	
-0.390991	
-0.391296	
-0.392639	
-0.392761	
-0.393372	
-0.392212	
-0.392456	
-0.392517	
-0.391907	
-0.392883	
-0.393311	
-0.3927	
-0.39209	
-0.391602	
-0.391724	
-0.392761	
-0.391724	
-0.391846	
-0.391663	
-0.391907	
-0.391357	
-0.390259	
-0.391479	
-0.392151	
-0.391602	
-0.391174	
-0.390869	
-0.389954	
-0.391296	
-0.391357	
-0.391663	
-0.390991	
-0.390564	
-0.391235	
-0.390076	
-0.391052	
-0.392822	
-0.392395	
-0.391113	
-0.391174	
-0.390198	
-0.392212	
-0.392944	
-0.393005	
-0.392578	
-0.392334	
-0.3927	
-0.392395	
-0.39386	
-0.395142	
-0.394287	
-0.393738	
-0.393921	
-0.391602	
-0.393555	
-0.394348	
-0.394226	
-0.393311	
-0.393433	
-0.394287	
-0.392944	
-0.393799	
-0.395935	
-0.395691	
-0.394104	
-0.394409	
-0.393433	
-0.394104	
-0.396179	
-0.396118	
-0.395508	
-0.395691	
-0.395874	
-0.395264	
-0.39563	
-0.39679	
-0.396912	
-0.396667	
-0.395691	
-0.394531	
-0.395813	
-0.398193	
-0.398254	
-0.397156	
-0.397156	
-0.397522	
-0.396423	
-0.397583	
-0.398132	
-0.398193	
-0.397095	
-0.397156	
-0.396362	
-0.397156	
-0.397705	
-0.398132	
-0.397339	
-0.39679	
-0.39624	
-0.397278	
-0.397339	
-0.397461	
-0.398743	
-0.396545	
-0.396301	
-0.396057	
-0.396545	
-0.396973	
-0.396606	
-0.396057	
-0.396057	
-0.394836	
-0.394226	
-0.39563	
-0.395752	
-0.397217	
-0.395203	
-0.395386	
-0.394653	
-0.393799	
-0.395813	
-0.395752	
-0.395142	
-0.394714	
-0.393616	
-0.394287	
-0.394226	
-0.395264	
-0.396973	
-0.394287	
-0.393982	
-0.393494	
-0.390747	
-0.39325	
-0.392578	
-0.392944	
-0.392273	
-0.390991	
-0.391907	
-0.392944	
-0.3927	
-0.393127	
-0.391968	
-0.392212	
-0.391479	
-0.389404	
-0.392395	
-0.391296	
-0.391174	
-0.391113	
-0.390442	
-0.391174	
-0.391296	
-0.391724	
-0.392761	
-0.391907	
-0.391785	
-0.391846	
-0.391418	
-0.392273	
-0.39209	
-0.392212	
-0.391907	
-0.391479	
-0.391602	
-0.39209	
-0.39209	
-0.392578	
-0.392456	
-0.391663	
-0.391541	
-0.391357	
-0.392456	
-0.393005	
-0.393433	
-0.392883	
-0.392639	
-0.392395	
-0.393738	
-0.393677	
-0.394287	
-0.394531	
-0.394104	
-0.394348	
-0.393982	
-0.394165	
-0.395081	
-0.395386	
-0.39386	
-0.393921	
-0.394775	
-0.394287	
-0.394836	
-0.395691	
-0.395142	
-0.394287	
-0.39447	
-0.394775	
-0.394897	
-0.395142	
-0.396667	
-0.395691	
-0.39563	
-0.395691	
-0.395081	
-0.396545	
-0.397644	
-0.398071	
-0.396729	
-0.39624	
-0.395935	
-0.396118	
-0.397339	
-0.398132	
-0.397339	
-0.397522	
-0.397888	
-0.396973	
-0.398804	
-0.399109	
-0.400452	
-0.39856	
-0.398682	
-0.397888	
-0.396851	
-0.398315	
-0.398865	
-0.398193	
-0.397644	
-0.398193	
-0.397644	
-0.398682	
-0.39856	
-0.400452	
-0.398438	
-0.398315	
-0.397827	
-0.397339	
-0.398438	
-0.39856	
-0.397949	
-0.397522	
-0.39679	
-0.396179	
-0.396851	
-0.396973	
-0.399109	
-0.395935	
-0.395996	
-0.395508	
-0.39386	
-0.395874	
-0.395935	
-0.395752	
-0.395081	
-0.395386	
-0.394714	
-0.395142	
-0.395752	
-0.397461	
-0.395386	
-0.394775	
-0.394409	
-0.392639	
-0.394836	
-0.394409	
-0.393555	
-0.392578	
-0.392822	
-0.393127	
-0.392944	
-0.3927	
-0.394714	
-0.393127	
-0.393311	
-0.392578	
-0.391296	
-0.393127	
-0.392334	
-0.391968	
-0.391785	
-0.392029	
-0.391785	
-0.391907	
-0.391907	
-0.393372	
-0.391846	
-0.391235	
-0.390991	
-0.389954	
-0.391968	
-0.391968	
-0.391663	
-0.392151	
-0.390686	
-0.391418	
-0.391602	
-0.392029	
-0.393494	
-0.391907	
-0.391235	
-0.390991	
-0.389648	
-0.391663	
-0.391663	
-0.391357	
-0.391235	
-0.391479	
-0.391724	
-0.392517	
-0.393066	
-0.394531	
-0.394531	
-0.393433	
-0.393555	
-0.392456	
-0.393799	
-0.394714	
-0.394653	
-0.394165	
-0.394653	
-0.39447	
-0.394958	
-0.395386	
-0.39679	
-0.397034	
-0.396729	
-0.396667	
-0.395569	
-0.396301	
-0.397766	
-0.397644	
-0.397522	
-0.397583	
-0.396851	
-0.397034	
-0.396912	
-0.398071	
-0.397156	
-0.396362	
-0.396729	
	
