E:\DOCUMENTS AND SETTINGS\JPOTAS\MEUS DOCUMENTOS\UFRJ\RSCI-BM 12 WK SERIES\070731-RSCI-BM-12\RSCI-BM-12-LEMG\070731-RSCI-BM-12-LEMG-0019.ACQ
0.025000 msec/sample
1 channel
Analog input
Volts
CH1	
2000	
-0.394592	
-0.39502	
-0.394165	
-0.393677	
-0.393799	
-0.392822	
-0.39325	
-0.393921	
-0.392883	
-0.392883	
-0.392151	
-0.391113	
-0.392944	
-0.392761	
-0.393433	
-0.392822	
-0.392456	
-0.393127	
-0.393005	
-0.39447	
-0.395813	
-0.394714	
-0.394775	
-0.394531	
-0.394531	
-0.395874	
-0.396118	
-0.396729	
-0.395935	
-0.39502	
-0.395447	
-0.394714	
-0.395386	
-0.395325	
-0.395142	
-0.394592	
-0.393616	
-0.393921	
-0.39447	
-0.393921	
-0.393738	
-0.393372	
-0.39209	
-0.392517	
-0.392456	
-0.392456	
-0.392761	
-0.392395	
-0.392273	
-0.391541	
-0.391296	
-0.392029	
-0.392334	
-0.392395	
-0.391907	
-0.391174	
-0.391418	
-0.391846	
-0.391663	
-0.392517	
-0.392395	
-0.393066	
-0.392944	
-0.393005	
-0.393616	
-0.393372	
-0.39447	
-0.394104	
-0.392456	
-0.392639	
-0.392761	
-0.3927	
-0.393677	
-0.392761	
-0.392456	
-0.392639	
-0.393066	
-0.394043	
-0.39447	
-0.394714	
-0.394714	
-0.393677	
-0.393982	
-0.394043	
-0.393616	
-0.394348	
-0.39386	
-0.394043	
-0.393982	
-0.39386	
-0.394897	
-0.395142	
-0.395752	
-0.395508	
-0.394348	
-0.394226	
-0.394043	
-0.393982	
-0.393799	
-0.393738	
-0.393982	
-0.392334	
-0.39325	
-0.3927	
-0.392761	
-0.392761	
-0.3927	
-0.391052	
-0.390503	
-0.390808	
-0.391357	
-0.391296	
-0.391174	
-0.389954	
-0.388916	
-0.389404	
-0.389954	
-0.390381	
-0.390686	
-0.390015	
-0.389771	
-0.389832	
-0.389709	
-0.390747	
-0.390686	
-0.390991	
-0.390198	
-0.389343	
-0.390686	
-0.391174	
-0.391357	
-0.391479	
-0.391785	
-0.391541	
-0.391785	
-0.392029	
-0.393005	
-0.392151	
-0.392639	
-0.392029	
-0.391174	
-0.391357	
-0.391724	
-0.392456	
-0.391968	
-0.391235	
-0.390442	
-0.39032	
-0.389954	
-0.391357	
-0.390747	
-0.390381	
-0.390015	
-0.389771	
-0.389893	
-0.390259	
-0.390747	
-0.390991	
-0.390686	
-0.389771	
-0.389587	
-0.389771	
-0.390991	
-0.390625	
-0.391296	
-0.390564	
-0.391174	
-0.391235	
-0.391846	
-0.392273	
-0.392639	
-0.392151	
-0.39209	
-0.391785	
-0.391541	
-0.393433	
-0.393066	
-0.393372	
-0.392395	
-0.391907	
-0.391541	
-0.392517	
-0.392578	
-0.392456	
-0.391113	
-0.391052	
-0.390381	
-0.39093	
-0.3927	
-0.3927	
-0.393433	
-0.393372	
-0.393677	
-0.393616	
-0.394348	
-0.394958	
-0.394775	
-0.387817	
-0.383606	
-0.381775	
-0.382324	
-0.384277	
-0.384277	
-0.391174	
-0.394714	
-0.395752	
-0.396118	
-0.395935	
-0.396545	
-0.396423	
-0.395508	
-0.395508	
-0.394226	
-0.394409	
-0.395508	
-0.394714	
-0.394714	
-0.393921	
-0.393494	
-0.393311	
-0.39325	
-0.394348	
-0.393616	
-0.392761	
-0.392029	
-0.391357	
-0.390991	
-0.392151	
-0.391663	
-0.392761	
-0.391785	
-0.391785	
-0.391785	
-0.392151	
-0.392273	
-0.392639	
-0.391907	
-0.391785	
-0.39093	
-0.391479	
-0.391785	
-0.391968	
-0.392456	
-0.392151	
-0.392517	
-0.392273	
-0.393188	
-0.393433	
-0.393433	
-0.394043	
-0.394043	
-0.394592	
-0.396667	
-0.398193	
-0.400269	
-0.401978	
-0.403992	
-0.407349	
-0.410889	
-0.415344	
-0.419434	
-0.422791	
-0.427917	
-0.434265	
-0.440918	
-0.44928	
-0.45636	
-0.465088	
-0.472778	
-0.480957	
-0.488647	
-0.496887	
-0.504822	
-0.511292	
-0.516602	
-0.521057	
-0.525696	
-0.531372	
-0.535217	
-0.538513	
-0.540833	
-0.542664	
-0.544861	
-0.545715	
-0.546509	
-0.546143	
-0.543274	
-0.541626	
-0.538696	
-0.536194	
-0.536072	
-0.533691	
-0.533508	
-0.532715	
-0.532654	
-0.534973	
-0.537109	
-0.540955	
-0.544739	
-0.546509	
-0.548889	
-0.551697	
-0.554504	
-0.556335	
-0.557007	
-0.558838	
-0.557678	
-0.557251	
-0.556396	
-0.554565	
-0.552673	
-0.548645	
-0.544373	
-0.538452	
-0.53302	
-0.52832	
-0.521606	
-0.514893	
-0.508301	
-0.500305	
-0.493713	
-0.486938	
-0.480469	
-0.473572	
-0.465576	
-0.45874	
-0.450562	
-0.444519	
-0.438843	
-0.431458	
-0.424622	
-0.418274	
-0.410095	
-0.40271	
-0.395447	
-0.388428	
-0.380676	
-0.372009	
-0.363953	
-0.354858	
-0.347107	
-0.340454	
-0.332581	
-0.325562	
-0.319336	
-0.311218	
-0.305176	
-0.299011	
-0.294067	
-0.290161	
-0.284546	
-0.279968	
-0.275635	
-0.27179	
-0.271545	
-0.269409	
-0.268738	
-0.268372	
-0.267822	
-0.270325	
-0.271667	
-0.273987	
-0.276123	
-0.27887	
-0.282471	
-0.28656	
-0.291077	
-0.296265	
-0.30072	
-0.306396	
-0.309631	
-0.315002	
-0.319641	
-0.324707	
-0.328186	
-0.330688	
-0.333191	
-0.3349	
-0.338562	
-0.340393	
-0.341797	
-0.343323	
-0.344177	
-0.346436	
-0.3479	
-0.34967	
-0.35199	
-0.351624	
-0.353027	
-0.354919	
-0.356567	
-0.357971	
-0.359253	
-0.360962	
-0.360596	
-0.361816	
-0.362244	
-0.364685	
-0.36554	
-0.365051	
-0.36554	
-0.366455	
-0.366272	
-0.368347	
-0.36908	
-0.370361	
-0.370422	
-0.371643	
-0.371704	
-0.37262	
-0.372986	
-0.372925	
-0.373169	
-0.372009	
-0.371826	
-0.374512	
-0.374146	
-0.374329	
-0.374939	
-0.374878	
-0.374634	
-0.374878	
-0.376099	
-0.376465	
-0.375793	
-0.375244	
-0.376099	
-0.377197	
-0.37738	
-0.377625	
-0.378113	
-0.377563	
-0.378296	
-0.378723	
-0.378357	
-0.381287	
-0.380676	
-0.381104	
-0.380615	
-0.379883	
-0.383118	
-0.382507	
-0.382507	
-0.382568	
-0.383179	
-0.383606	
-0.384338	
-0.384705	
-0.38562	
-0.38501	
-0.384644	
-0.384827	
-0.385437	
-0.385864	
-0.386108	
-0.386414	
-0.385803	
-0.385742	
-0.385864	
-0.386902	
-0.386353	
-0.385986	
-0.385681	
-0.385132	
-0.383972	
-0.38562	
-0.384644	
-0.38446	
-0.385193	
-0.38501	
-0.38501	
-0.385315	
-0.384827	
-0.385742	
-0.38501	
-0.384399	
-0.384949	
-0.386597	
-0.386169	
-0.386597	
-0.386841	
-0.386536	
-0.386902	
-0.387573	
-0.386719	
-0.388306	
-0.386963	
-0.387085	
-0.387512	
-0.387817	
-0.387634	
-0.388123	
-0.388428	
-0.387817	
-0.38855	
-0.388489	
-0.387573	
-0.389221	
-0.388123	
-0.388062	
-0.387512	
-0.388	
-0.387756	
-0.387573	
-0.387451	
-0.387634	
-0.386841	
-0.387207	
-0.386902	
-0.387817	
-0.387573	
-0.387268	
-0.38739	
-0.387573	
-0.387695	
-0.388062	
-0.388	
-0.38916	
-0.388977	
-0.389465	
-0.388855	
-0.388306	
-0.388611	
-0.387024	
-0.387146	
-0.387146	
-0.38623	
-0.386414	
-0.386597	
-0.386047	
-0.386536	
-0.387146	
-0.386414	
-0.386108	
-0.387268	
-0.386108	
-0.386353	
-0.386292	
-0.385193	
-0.386353	
-0.38562	
-0.385986	
-0.386841	
-0.386536	
-0.386902	
-0.386536	
-0.386047	
-0.387939	
-0.386597	
-0.387939	
-0.388123	
-0.387634	
-0.388855	
-0.388855	
-0.388184	
-0.390381	
-0.389709	
-0.390564	
-0.389526	
-0.389465	
-0.390747	
-0.389954	
-0.390381	
-0.390991	
-0.389832	
-0.390991	
-0.391113	
-0.390442	
-0.391174	
-0.391052	
-0.391418	
-0.391113	
-0.391541	
-0.392029	
-0.391541	
-0.391785	
-0.391846	
-0.391968	
-0.392029	
-0.392029	
-0.392456	
-0.39209	
-0.392456	
-0.391785	
-0.391541	
-0.393066	
-0.391785	
-0.391479	
-0.391968	
-0.389954	
-0.391296	
-0.390991	
-0.390381	
-0.392029	
-0.390625	
-0.390686	
-0.389954	
-0.389954	
-0.391174	
-0.388733	
-0.389526	
-0.389587	
-0.389038	
-0.389648	
-0.389282	
-0.389954	
-0.389954	
-0.39032	
-0.390808	
-0.389954	
-0.390808	
-0.390381	
-0.389954	
-0.390686	
-0.389404	
-0.389832	
-0.390076	
-0.390503	
-0.391663	
-0.391357	
-0.391479	
-0.391052	
-0.391968	
-0.392883	
-0.391296	
-0.392151	
-0.391663	
-0.392212	
-0.392944	
-0.391907	
-0.3927	
-0.391724	
-0.391846	
-0.392395	
-0.390137	
-0.391968	
-0.391113	
-0.391113	
-0.391357	
-0.390015	
-0.390686	
-0.390564	
-0.390808	
-0.391052	
-0.390442	
-0.390747	
-0.390808	
-0.391174	
-0.39032	
-0.390381	
-0.390808	
-0.389954	
-0.390381	
-0.390076	
-0.39032	
-0.391174	
-0.390625	
-0.39093	
-0.391907	
-0.389832	
-0.392029	
-0.39093	
-0.390442	
-0.391418	
-0.389282	
-0.390625	
-0.391052	
-0.389404	
-0.391479	
-0.390381	
-0.390991	
-0.390381	
-0.39032	
-0.390503	
-0.389465	
-0.389404	
-0.389099	
-0.389221	
-0.389099	
-0.389343	
-0.389709	
-0.389343	
-0.389526	
-0.389954	
-0.390198	
-0.391357	
-0.391785	
-0.391541	
-0.391907	
-0.391235	
-0.392761	
-0.392639	
-0.392395	
-0.39325	
-0.392761	
-0.392639	
-0.392883	
-0.392395	
-0.393555	
-0.392151	
-0.39209	
-0.391968	
-0.391174	
-0.391724	
-0.391235	
-0.390381	
-0.391296	
-0.389832	
-0.390015	
-0.390381	
-0.389587	
-0.390076	
-0.389587	
-0.388977	
-0.388916	
-0.389038	
-0.388977	
-0.389099	
-0.388123	
-0.390076	
-0.389771	
-0.389038	
-0.389343	
-0.389648	
-0.388733	
-0.388855	
-0.389099	
-0.389587	
-0.390198	
-0.390747	
-0.391052	
-0.390137	
-0.391296	
-0.39093	
-0.391174	
-0.391113	
-0.391724	
-0.390564	
-0.390259	
-0.390503	
-0.390808	
-0.391296	
-0.391174	
-0.390686	
-0.391479	
-0.391357	
-0.391357	
-0.391724	
-0.392761	
-0.391846	
-0.391907	
-0.390747	
-0.391052	
-0.391968	
-0.391541	
-0.391418	
-0.391479	
-0.392883	
-0.391968	
-0.391907	
-0.393433	
-0.392273	
-0.392334	
-0.391663	
-0.390137	
-0.391785	
-0.391296	
-0.391235	
-0.391235	
-0.390198	
-0.390503	
-0.389587	
-0.389954	
-0.390503	
-0.38855	
-0.388916	
-0.388489	
-0.387451	
-0.388428	
-0.388245	
-0.387756	
-0.387756	
-0.388	
-0.388733	
-0.38739	
-0.388245	
-0.388733	
-0.387329	
-0.38739	
-0.386292	
-0.388306	
-0.388611	
-0.388184	
-0.388	
-0.387085	
-0.389038	
-0.389954	
-0.38916	
-0.390991	
-0.390381	
-0.390076	
-0.389465	
-0.387939	
-0.390625	
-0.39032	
-0.390198	
-0.389832	
-0.389343	
-0.390076	
-0.389587	
-0.389465	
-0.390747	
-0.388611	
-0.388611	
-0.388672	
-0.388367	
-0.388794	
-0.388489	
-0.388428	
-0.388062	
-0.388367	
-0.388367	
-0.388184	
-0.38855	
-0.389282	
-0.387756	
-0.388	
-0.387756	
-0.387329	
-0.388794	
-0.388672	
-0.388733	
-0.388916	
-0.389282	
-0.389587	
-0.389526	
-0.390991	
-0.390137	
-0.389404	
-0.390381	
-0.38916	
-0.391357	
-0.390686	
-0.390747	
-0.390625	
-0.389099	
-0.390198	
-0.390686	
-0.390564	
-0.391479	
-0.389648	
-0.388611	
-0.389221	
-0.387878	
-0.391113	
-0.390808	
-0.390869	
-0.391357	
-0.391052	
-0.391785	
-0.392639	
-0.392517	
-0.394226	
-0.392517	
-0.391418	
-0.391785	
-0.391418	
-0.393433	
-0.392761	
-0.392944	
-0.392883	
-0.393433	
-0.393555	
-0.393738	
-0.394165	
-0.394165	
-0.393616	
-0.393738	
-0.392639	
-0.393311	
-0.39325	
-0.392822	
-0.392578	
-0.39209	
-0.391968	
-0.391968	
-0.391663	
-0.392883	
-0.390747	
-0.390625	
-0.390442	
-0.388855	
-0.390991	
-0.390015	
-0.390198	
-0.390015	
-0.389404	
-0.390137	
-0.390442	
-0.390015	
-0.392334	
-0.390015	
-0.389038	
-0.389282	
-0.388489	
-0.390747	
-0.389343	
-0.389343	
-0.388977	
-0.387939	
-0.389648	
-0.390747	
-0.390259	
-0.390564	
-0.389771	
-0.389038	
-0.389221	
-0.388977	
-0.390808	
-0.390686	
-0.390015	
-0.391052	
-0.389526	
-0.390747	
-0.391663	
-0.392578	
-0.391785	
-0.391296	
-0.391235	
-0.391174	
-0.392456	
-0.393616	
-0.392395	
-0.3927	
-0.392944	
-0.392212	
-0.393311	
-0.394043	
-0.395203	
-0.393677	
-0.393127	
-0.392822	
-0.391907	
-0.393494	
-0.394104	
-0.393372	
-0.393494	
-0.393372	
-0.393555	
-0.393616	
-0.393433	
-0.394043	
-0.392395	
-0.391968	
-0.391174	
-0.390808	
-0.391907	
-0.391663	
-0.391479	
-0.391174	
-0.391357	
-0.391479	
-0.391907	
-0.392822	
-0.392883	
-0.391785	
-0.391357	
-0.390991	
-0.392273	
-0.393311	
-0.392395	
-0.392761	
-0.392944	
-0.392944	
-0.393372	
-0.393921	
-0.394775	
-0.393738	
-0.393188	
-0.39209	
-0.391418	
-0.393921	
-0.393982	
-0.393127	
-0.39386	
-0.393677	
-0.393311	
-0.394043	
-0.395264	
-0.395508	
-0.393372	
-0.393799	
-0.392639	
-0.391663	
-0.393494	
-0.394165	
-0.394348	
-0.393921	
-0.39386	
-0.393311	
-0.394714	
-0.395813	
-0.39624	
-0.394531	
-0.39447	
-0.393494	
-0.393799	
-0.395447	
-0.39624	
-0.395752	
-0.395691	
-0.39624	
-0.395081	
-0.395935	
-0.396545	
-0.396606	
-0.395203	
-0.394531	
-0.393555	
-0.39386	
-0.393616	
-0.394531	
-0.392883	
-0.392517	
-0.392761	
-0.391724	
-0.3927	
-0.393433	
-0.393066	
-0.39209	
-0.391907	
-0.391785	
-0.39325	
-0.393433	
-0.394226	
-0.393616	
-0.393921	
-0.393677	
-0.394287	
-0.395203	
-0.396179	
-0.394897	
-0.394836	
-0.393799	
-0.394104	
-0.395813	
-0.395691	
-0.396301	
-0.396179	
-0.395996	
-0.395752	
-0.396057	
-0.396606	
-0.397461	
-0.396423	
-0.395935	
-0.394714	
-0.394836	
-0.396118	
-0.396057	
-0.396057	
-0.395752	
-0.394897	
-0.394897	
-0.395081	
-0.395264	
-0.395874	
-0.394653	
-0.394287	
-0.394531	
-0.392944	
-0.394104	
-0.394897	
-0.394592	
-0.394897	
-0.394592	
-0.394104	
-0.394714	
-0.395386	
-0.396606	
-0.394531	
-0.393677	
-0.393433	
-0.391846	
-0.393799	
-0.395325	
-0.394165	
-0.394043	
-0.394165	
-0.393127	
-0.395142	
-0.395264	
-0.396179	
-0.394348	
-0.392883	
-0.393005	
-0.392822	
-0.394592	
-0.395386	
-0.394714	
-0.39447	
-0.394958	
-0.395203	
-0.396606	
-0.396545	
-0.397888	
-0.396484	
-0.396973	
-0.396667	
-0.396057	
-0.397278	
-0.398743	
-0.397827	
-0.39801	
-0.397705	
-0.398132	
-0.39856	
-0.399353	
-0.39917	
-0.397644	
-0.398682	
-0.398743	
-0.398682	
-0.398315	
-0.399231	
-0.398315	
-0.398254	
-0.397766	
-0.398499	
-0.397888	
-0.398071	
-0.396851	
-0.395996	
-0.396423	
-0.395752	
-0.396362	
-0.39679	
-0.397339	
-0.395996	
-0.396301	
-0.396851	
-0.397583	
-0.397583	
-0.397949	
-0.397156	
-0.39679	
-0.396301	
-0.396057	
-0.397766	
-0.397888	
-0.398132	
-0.397949	
-0.397888	
-0.398254	
-0.399231	
-0.399719	
-0.39978	
-0.397888	
-0.398132	
-0.397278	
-0.397339	
-0.397766	
-0.39801	
-0.398193	
-0.397217	
-0.397583	
-0.397461	
-0.397461	
-0.398315	
-0.398438	
-0.396667	
-0.396423	
-0.395691	
-0.39502	
-0.396179	
-0.39624	
-0.39624	
-0.396118	
-0.396362	
-0.396545	
-0.396973	
-0.398315	
-0.397644	
-0.396423	
-0.397278	
-0.395813	
-0.396301	
-0.396912	
-0.39679	
-0.395813	
-0.395569	
-0.395203	
-0.39502	
-0.394775	
-0.396484	
-0.39563	
-0.39325	
-0.393677	
-0.393066	
-0.393677	
-0.393555	
-0.393982	
-0.393677	
-0.393616	
-0.393555	
-0.393127	
-0.393616	
-0.395142	
-0.393921	
-0.392151	
-0.392456	
-0.392578	
-0.393494	
-0.393982	
-0.394836	
-0.394348	
-0.394531	
-0.39502	
-0.39502	
-0.39563	
-0.396301	
-0.39563	
-0.394592	
-0.39502	
-0.39563	
-0.396301	
-0.395874	
-0.396729	
-0.396118	
-0.39624	
-0.396301	
-0.396973	
-0.397583	
-0.39679	
-0.396301	
-0.395752	
-0.395691	
-0.396545	
-0.397034	
-0.396973	
-0.397522	
-0.397278	
-0.39679	
-0.396912	
-0.397949	
-0.398376	
-0.398621	
-0.396912	
-0.396973	
-0.395813	
-0.395935	
-0.396912	
-0.39679	
-0.396851	
-0.39624	
-0.396606	
-0.395935	
-0.396606	
-0.396667	
-0.396423	
-0.395386	
-0.395142	
-0.392578	
-0.393127	
-0.394226	
-0.394287	
-0.393921	
-0.393738	
-0.393677	
-0.393311	
-0.393677	
-0.394775	
-0.394714	
-0.3927	
-0.393555	
-0.391602	
-0.393738	
-0.393433	
-0.393982	
-0.393677	
-0.393982	
-0.393677	
-0.393982	
-0.394287	
-0.39563	
-0.394958	
-0.393616	
-0.394409	
-0.39386	
-0.395203	
-0.395081	
-0.395935	
-0.39502	
-0.395447	
-0.395386	
-0.395142	
-0.395203	
-0.396057	
-0.395081	
-0.394592	
-0.39386	
-0.393372	
-0.394104	
-0.394714	
-0.394409	
-0.393372	
-0.393616	
-0.393921	
-0.393921	
-0.39386	
-0.394592	
-0.393005	
-0.393677	
-0.392395	
-0.393494	
-0.393005	
-0.393372	
-0.393433	
-0.393005	
-0.3927	
-0.393005	
-0.392761	
-0.39386	
-0.39325	
-0.392761	
-0.392822	
-0.392517	
-0.3927	
-0.393127	
-0.393555	
-0.393616	
-0.393005	
-0.39325	
-0.3927	
-0.392517	
-0.393127	
-0.392822	
-0.391663	
-0.391663	
-0.39032	
-0.390564	
-0.391724	
-0.391968	
-0.391113	
-0.391052	
-0.39093	
-0.390625	
-0.391602	
-0.392578	
-0.39209	
-0.391541	
-0.392273	
-0.390625	
-0.392029	
-0.393555	
-0.394653	
-0.394165	
-0.393738	
-0.393921	
-0.394775	
-0.394104	
-0.395996	
-0.395569	
-0.392639	
-0.393677	
-0.391235	
-0.392761	
-0.393677	
-0.393494	
-0.393005	
-0.393066	
-0.392212	
-0.393433	
-0.392273	
-0.39325	
-0.391846	
-0.390259	
-0.390869	
-0.389465	
-0.390564	
-0.390991	
-0.390747	
-0.390747	
-0.390381	
-0.39032	
-0.391479	
-0.390686	
-0.391357	
-0.390198	
-0.389832	
-0.389648	
-0.390015	
-0.390137	
-0.390991	
-0.391113	
-0.391296	
-0.391724	
-0.391846	
-0.393066	
-0.392578	
-0.393066	
-0.391846	
-0.391968	
-0.390564	
-0.39093	
-0.391296	
-0.392029	
-0.391541	
-0.391602	
-0.391907	
-0.391602	
-0.392639	
-0.392578	
-0.393677	
-0.392273	
-0.392456	
-0.391846	
-0.39093	
-0.392822	
-0.39386	
-0.393066	
-0.392883	
-0.392883	
-0.392578	
-0.393188	
-0.393066	
-0.394043	
-0.392578	
-0.3927	
-0.392395	
-0.391113	
-0.392761	
-0.393311	
-0.3927	
-0.391846	
-0.391296	
-0.391113	
-0.391113	
-0.390686	
-0.390747	
-0.389221	
-0.389771	
-0.389526	
-0.389832	
-0.389404	
-0.389404	
-0.388855	
-0.388489	
-0.388245	
-0.388916	
-0.389099	
-0.388794	
-0.388916	
-0.387573	
-0.387268	
-0.388	
-0.388977	
-0.389404	
-0.389221	
-0.388672	
-0.38855	
-0.389099	
-0.390381	
-0.390381	
-0.390259	
-0.390076	
-0.389404	
-0.389832	
-0.389709	
-0.390747	
-0.391785	
-0.390747	
-0.390442	
-0.39093	
-0.389648	
-0.391235	
-0.390564	
-0.390747	
-0.389648	
-0.388184	
-0.389221	
-0.388794	
-0.38916	
-0.389709	
-0.388855	
-0.38916	
-0.38855	
-0.388123	
-0.389648	
-0.388794	
-0.389893	
-0.388245	
-0.387756	
-0.388733	
-0.386902	
-0.389404	
-0.389709	
-0.389099	
-0.389282	
-0.389526	
-0.390015	
-0.390869	
-0.390564	
-0.391724	
-0.390259	
-0.389832	
-0.390686	
-0.390198	
-0.391113	
-0.392029	
-0.39093	
-0.39032	
-0.390564	
-0.391052	
-0.391541	
-0.390564	
-0.390747	
-0.389587	
-0.388611	
-0.389832	
-0.390381	
-0.391113	
-0.392212	
-0.391724	
-0.39209	
-0.392517	
-0.3927	
-0.394165	
-0.393311	
-0.393188	
-0.392273	
-0.391602	
-0.392273	
-0.393799	
-0.39325	
-0.393433	
-0.393372	
-0.393616	
-0.393616	
-0.394043	
-0.394409	
-0.395081	
-0.39386	
-0.393494	
-0.393433	
-0.393005	
-0.393494	
-0.393311	
-0.393066	
-0.3927	
-0.392273	
-0.391968	
-0.392639	
-0.392334	
-0.393433	
-0.39093	
-0.390869	
-0.39093	
-0.389648	
-0.39093	
-0.390625	
-0.390564	
-0.390015	
-0.390137	
-0.389893	
-0.390503	
-0.390442	
-0.391602	
-0.390381	
-0.38916	
-0.389771	
-0.390015	
-0.390198	
-0.390442	
-0.389648	
-0.390015	
-0.389771	
-0.38916	
-0.390869	
-0.390076	
-0.390808	
-0.39032	
-0.387695	
-0.390137	
-0.39032	
-0.390869	
-0.391052	
-0.390381	
-0.390869	
-0.391052	
-0.391174	
-0.392334	
-0.392029	
-0.392212	
-0.391907	
-0.390686	
-0.392334	
-0.392822	
-0.392883	
-0.393127	
-0.393433	
-0.392944	
-0.394043	
-0.393677	
-0.394775	
-0.394592	
-0.393616	
-0.392822	
-0.392883	
-0.393372	
-0.394531	
-0.394043	
-0.393616	
-0.39325	
-0.393677	
-0.39386	
-0.393311	
-0.393982	
-0.394287	
-0.392578	
-0.391785	
-0.391296	
-0.390564	
-0.392822	
-0.391846	
-0.392578	
-0.392151	
-0.391907	
-0.391907	
-0.391846	
-0.3927	
-0.393982	
-0.392334	
-0.391724	
-0.391724	
-0.391296	
-0.393066	
-0.393433	
-0.393982	
-0.393372	
-0.393677	
-0.393616	
-0.394043	
-0.394775	
-0.39502	
-0.393799	
-0.3927	
-0.39325	
-0.393982	
-0.394043	
-0.394104	
-0.39447	
-0.39447	
-0.394226	
-0.394226	
-0.394226	
-0.395325	
-0.395081	
-0.39386	
-0.393616	
-0.393433	
-0.393921	
-0.394226	
-0.394348	
-0.394348	
-0.394348	
-0.394348	
-0.395142	
-0.39447	
-0.395813	
-0.395203	
-0.394958	
-0.394958	
-0.39447	
-0.395569	
-0.395874	
-0.395996	
-0.39624	
-0.39624	
-0.395691	
-0.395874	
-0.395447	
-0.396912	
-0.395325	
-0.394531	
-0.393799	
-0.392822	
-0.39386	
-0.393188	
-0.39325	
-0.394165	
-0.392883	
-0.392822	
-0.393066	
-0.392883	
-0.394226	
-0.39325	
-0.392517	
-0.392456	
-0.391663	
-0.393555	
-0.393799	
-0.394226	
-0.394714	
-0.394287	
-0.394226	
-0.394958	
-0.39624	
-0.396179	
-0.394958	
-0.39502	
-0.394348	
-0.394714	
-0.395813	
-0.395996	
-0.396484	
-0.396545	
-0.396423	
-0.39624	
-0.396973	
-0.397888	
-0.397766	
-0.396118	
-0.395813	
-0.395691	
-0.395691	
-0.396057	
-0.395996	
-0.395447	
-0.395203	
-0.394958	
-0.394592	
-0.395325	
-0.395569	
-0.395325	
-0.394531	
-0.393433	
-0.394043	
-0.394409	
-0.394958	
-0.394958	
-0.395203	
-0.395874	
-0.394409	
-0.39502	
-0.39563	
-0.39563	
-0.395691	
-0.394775	
-0.393066	
-0.392822	
-0.392944	
-0.394226	
-0.395081	
-0.39502	
-0.394592	
-0.394409	
-0.394409	
-0.395447	
-0.39502	
-0.395081	
-0.393799	
-0.392578	
-0.393677	
-0.393433	
-0.394653	
-0.394958	
-0.395569	
-0.395508	
-0.395935	
-0.396179	
-0.397339	
-0.397217	
-0.397461	
-0.396606	
-0.396057	
-0.397156	
-0.397522	
-0.398071	
-0.398193	
-0.398621	
-0.398132	
-0.39856	
-0.398132	
-0.399597	
-0.398926	
-0.39978	
-0.39856	
-0.397278	
-0.398376	
-0.39856	
-0.398682	
-0.399109	
-0.398865	
-0.398132	
-0.397644	
-0.397949	
-0.397583	
-0.397156	
-0.397705	
-0.396057	
-0.395142	
-0.395813	
-0.395874	
-0.396118	
-0.396301	
-0.397034	
-0.396851	
-0.397217	
-0.397217	
-0.397644	
-0.39801	
-0.397827	
-0.396729	
-0.396545	
-0.397888	
-0.397156	
-0.397827	
-0.39801	
-0.39917	
-0.398438	
-0.398499	
-0.398743	
-0.398438	
-0.39856	
-0.39856	
-0.397339	
-0.396667	
-0.397644	
-0.39801	
-0.397827	
-0.397522	
-0.398315	
-0.397339	
-0.3974	
-0.3974	
-0.396912	
-0.396912	
-0.396057	
-0.395081	
-0.395569	
-0.395691	
-0.395874	
-0.395935	
-0.396362	
-0.396851	
-0.396301	
-0.396729	
-0.397888	
-0.397522	
-0.397583	
-0.396973	
-0.395569	
-0.395996	
-0.396484	
-0.396362	
-0.395203	
-0.395325	
-0.395142	
-0.394775	
-0.394592	
-0.394958	
-0.39563	
-0.394653	
-0.39386	
-0.393372	
-0.393005	
-0.392883	
-0.393677	
-0.393372	
-0.393982	
-0.393127	
-0.393433	
-0.393555	
-0.393921	
-0.393982	
-0.393494	
-0.392822	
-0.392761	
-0.392334	
-0.393127	
-0.39386	
-0.394714	
-0.395081	
-0.394958	
-0.394653	
-0.395447	
-0.395935	
-0.396545	
-0.396118	
-0.39502	
-0.394775	
-0.395325	
-0.395508	
-0.396301	
-0.396179	
-0.396973	
-0.396851	
-0.396423	
-0.396729	
-0.396362	
-0.397278	
-0.396851	
-0.396179	
-0.395569	
-0.396301	
-0.395996	
-0.397034	
-0.397339	
-0.398071	
-0.397034	
-0.397156	
-0.3974	
-0.397034	
-0.397888	
-0.397827	
-0.396667	
-0.396851	
-0.396484	
-0.395264	
-0.396545	
-0.396667	
-0.3974	
-0.395935	
-0.396484	
-0.396057	
-0.395386	
-0.395569	
-0.395447	
-0.393677	
-0.394043	
-0.393738	
-0.392456	
-0.393372	
-0.39386	
-0.394165	
-0.393555	
-0.393738	
-0.39447	
-0.395081	
-0.394775	
-0.394409	
-0.392639	
-0.393677	
-0.392578	
-0.393311	
-0.393555	
-0.393616	
-0.393677	
-0.393677	
-0.393982	
-0.395447	
-0.394836	
-0.395142	
-0.396118	
-0.393738	
-0.394897	
-0.39447	
-0.394531	
-0.395142	
-0.395569	
-0.395203	
-0.394897	
-0.395264	
-0.395874	
-0.39447	
-0.395264	
-0.395081	
-0.392517	
-0.393494	
-0.393555	
-0.392944	
-0.393433	
-0.393982	
-0.393982	
-0.393433	
-0.393555	
-0.393921	
-0.393494	
-0.394287	
-0.393311	
-0.391663	
-0.392639	
-0.392761	
-0.3927	
-0.393127	
-0.393677	
-0.392517	
-0.392761	
-0.392761	
-0.393066	
-0.393188	
-0.393677	
-0.3927	
-0.390808	
-0.392822	
-0.392456	
-0.392944	
-0.393005	
-0.39325	
	
