E:\DOCUMENTS AND SETTINGS\JPOTAS\MEUS DOCUMENTOS\UFRJ\RSCI-BM 12 WK SERIES\070731-RSCI-BM-12\RSCI-BM-12-LEMG\070731-RSCI-BM-12-LEMG-0001.ACQ
0.025000 msec/sample
1 channel
Analog input
Volts
CH1	
2000	
-0.394409	
-0.395874	
-0.395935	
-0.396545	
-0.397156	
-0.396301	
-0.396851	
-0.396423	
-0.395691	
-0.397095	
-0.397644	
-0.396606	
-0.396484	
-0.396545	
-0.395203	
-0.396057	
-0.395752	
-0.396301	
-0.397339	
-0.396301	
-0.395935	
-0.396057	
-0.395508	
-0.396118	
-0.396423	
-0.395081	
-0.394714	
-0.395264	
-0.394653	
-0.39386	
-0.394653	
-0.393555	
-0.395447	
-0.394226	
-0.393982	
-0.393616	
-0.393188	
-0.394165	
-0.394653	
-0.394226	
-0.393677	
-0.394775	
-0.393494	
-0.392334	
-0.393372	
-0.393677	
-0.394714	
-0.393921	
-0.393616	
-0.393311	
-0.391907	
-0.393799	
-0.394531	
-0.394287	
-0.39386	
-0.394104	
-0.393494	
-0.393616	
-0.394836	
-0.39447	
-0.395935	
-0.395569	
-0.395691	
-0.395325	
-0.394165	
-0.396301	
-0.396057	
-0.396179	
-0.395508	
-0.395691	
-0.395447	
-0.394714	
-0.395569	
-0.39563	
-0.395813	
-0.39563	
-0.395813	
-0.395081	
-0.394775	
-0.395508	
-0.396057	
-0.39624	
-0.395325	
-0.395386	
-0.396484	
-0.394104	
-0.395386	
-0.395325	
-0.395935	
-0.395813	
-0.395264	
-0.395142	
-0.394409	
-0.394775	
-0.395569	
-0.395935	
-0.395508	
-0.394897	
-0.395386	
-0.393433	
-0.393616	
-0.394226	
-0.394409	
-0.394165	
-0.393677	
-0.393616	
-0.391907	
-0.391174	
-0.392517	
-0.393616	
-0.393127	
-0.392029	
-0.392883	
-0.391846	
-0.392212	
-0.392639	
-0.393127	
-0.393311	
-0.392639	
-0.392578	
-0.392151	
-0.392395	
-0.392822	
-0.393311	
-0.393127	
-0.392639	
-0.393433	
-0.392273	
-0.3927	
-0.393799	
-0.394226	
-0.394226	
-0.392883	
-0.393616	
-0.393616	
-0.39325	
-0.394409	
-0.393799	
-0.395203	
-0.394043	
-0.393799	
-0.393311	
-0.393188	
-0.394104	
-0.394165	
-0.393127	
-0.393677	
-0.393433	
-0.393494	
-0.39325	
-0.393616	
-0.393982	
-0.394348	
-0.393677	
-0.392944	
-0.393555	
-0.391907	
-0.393188	
-0.393311	
-0.39209	
-0.393494	
-0.392883	
-0.392456	
-0.39209	
-0.390991	
-0.392029	
-0.392761	
-0.392151	
-0.391602	
-0.392456	
-0.391174	
-0.391846	
-0.393616	
-0.39325	
-0.39325	
-0.393616	
-0.393921	
-0.393188	
-0.392517	
-0.393982	
-0.39502	
-0.394775	
-0.39447	
-0.394958	
-0.393982	
-0.393372	
-0.394775	
-0.394653	
-0.394531	
-0.394653	
-0.394653	
-0.39386	
-0.394043	
-0.394714	
-0.395325	
-0.395691	
-0.395142	
-0.389038	
-0.389709	
-0.393555	
-0.395691	
-0.396667	
-0.395142	
-0.395569	
-0.395447	
-0.395264	
-0.395203	
-0.396545	
-0.397095	
-0.397644	
-0.397095	
-0.397217	
-0.396667	
-0.396057	
-0.397156	
-0.39801	
-0.396484	
-0.396423	
-0.397095	
-0.396118	
-0.395386	
-0.395935	
-0.396423	
-0.397644	
-0.396667	
-0.39624	
-0.396362	
-0.394226	
-0.39563	
-0.395996	
-0.395752	
-0.395752	
-0.395874	
-0.39563	
-0.395203	
-0.395508	
-0.395325	
-0.395813	
-0.394775	
-0.395508	
-0.395447	
-0.393555	
-0.394836	
-0.395691	
-0.395752	
-0.394592	
-0.395386	
-0.395386	
-0.394287	
-0.39502	
-0.394836	
-0.395996	
-0.396118	
-0.396545	
-0.398682	
-0.399414	
-0.401428	
-0.405579	
-0.409851	
-0.411987	
-0.416931	
-0.421143	
-0.42511	
-0.429688	
-0.433777	
-0.437866	
-0.440857	
-0.444946	
-0.450073	
-0.453125	
-0.460388	
-0.466309	
-0.470215	
-0.475952	
-0.480896	
-0.484131	
-0.489319	
-0.493652	
-0.497009	
-0.499329	
-0.500671	
-0.502014	
-0.501831	
-0.501831	
-0.503296	
-0.504089	
-0.501587	
-0.501831	
-0.499268	
-0.497131	
-0.497253	
-0.495422	
-0.495178	
-0.494507	
-0.494202	
-0.495239	
-0.496155	
-0.497375	
-0.500793	
-0.503723	
-0.505249	
-0.508728	
-0.512146	
-0.514893	
-0.519287	
-0.522217	
-0.525208	
-0.525879	
-0.527161	
-0.528259	
-0.527466	
-0.528137	
-0.527344	
-0.525879	
-0.522888	
-0.52002	
-0.516418	
-0.511902	
-0.507874	
-0.503296	
-0.498596	
-0.491882	
-0.485535	
-0.479736	
-0.473755	
-0.468689	
-0.463745	
-0.457947	
-0.450928	
-0.446167	
-0.440857	
-0.435059	
-0.42981	
-0.424988	
-0.419373	
-0.413086	
-0.407104	
-0.401306	
-0.395142	
-0.389465	
-0.384216	
-0.37793	
-0.371399	
-0.366577	
-0.360718	
-0.354675	
-0.348328	
-0.34436	
-0.339233	
-0.333191	
-0.326965	
-0.321472	
-0.316284	
-0.309937	
-0.306763	
-0.302307	
-0.296997	
-0.293701	
-0.290649	
-0.288757	
-0.285645	
-0.284058	
-0.281738	
-0.279724	
-0.278259	
-0.276428	
-0.276917	
-0.276367	
-0.277893	
-0.278931	
-0.278809	
-0.282471	
-0.284912	
-0.288635	
-0.293274	
-0.297974	
-0.302368	
-0.306091	
-0.309998	
-0.313965	
-0.317993	
-0.322632	
-0.326355	
-0.327576	
-0.331116	
-0.333191	
-0.335754	
-0.33905	
-0.340881	
-0.34137	
-0.341614	
-0.342163	
-0.342224	
-0.34259	
-0.344543	
-0.345459	
-0.34668	
-0.3479	
-0.348877	
-0.350891	
-0.353149	
-0.355591	
-0.356628	
-0.356934	
-0.358337	
-0.359253	
-0.361145	
-0.362915	
-0.36377	
-0.364746	
-0.36554	
-0.366638	
-0.367615	
-0.368591	
-0.370422	
-0.371033	
-0.371521	
-0.371643	
-0.37207	
-0.373718	
-0.373596	
-0.374084	
-0.374756	
-0.373657	
-0.37439	
-0.375366	
-0.374146	
-0.376282	
-0.376404	
-0.376587	
-0.376526	
-0.376953	
-0.377563	
-0.377991	
-0.379333	
-0.379944	
-0.379456	
-0.380127	
-0.379883	
-0.381775	
-0.382507	
-0.382507	
-0.383057	
-0.383179	
-0.38269	
-0.383484	
-0.383423	
-0.384033	
-0.384094	
-0.384949	
-0.383057	
-0.383667	
-0.384216	
-0.383911	
-0.384705	
-0.385864	
-0.384766	
-0.384583	
-0.384888	
-0.384827	
-0.385315	
-0.38501	
-0.384888	
-0.38501	
-0.383362	
-0.383606	
-0.383362	
-0.38324	
-0.384094	
-0.383728	
-0.383545	
-0.384155	
-0.384216	
-0.38501	
-0.385071	
-0.385071	
-0.38501	
-0.384338	
-0.384399	
-0.38385	
-0.385071	
-0.38501	
-0.38501	
-0.385315	
-0.384644	
-0.385315	
-0.386108	
-0.38678	
-0.386719	
-0.387024	
-0.386169	
-0.385864	
-0.38562	
-0.387024	
-0.386902	
-0.386841	
-0.387024	
-0.387085	
-0.388367	
-0.388611	
-0.389648	
-0.389648	
-0.389771	
-0.388916	
-0.387512	
-0.387634	
-0.388489	
-0.387695	
-0.387268	
-0.387024	
-0.386658	
-0.387451	
-0.387573	
-0.388123	
-0.387695	
-0.388123	
-0.387146	
-0.38678	
-0.387207	
-0.388672	
-0.387695	
-0.388306	
-0.38739	
-0.38678	
-0.387085	
-0.387329	
-0.388733	
-0.388062	
-0.388428	
-0.388672	
-0.387451	
-0.387756	
-0.38678	
-0.386658	
-0.388611	
-0.388123	
-0.387634	
-0.387756	
-0.387573	
-0.387695	
-0.387634	
-0.387634	
-0.388	
-0.387024	
-0.38678	
-0.387024	
-0.387695	
-0.386902	
-0.388428	
-0.387146	
-0.387085	
-0.387329	
-0.387756	
-0.389099	
-0.388367	
-0.38916	
-0.389221	
-0.388794	
-0.389343	
-0.389893	
-0.389526	
-0.389893	
-0.39032	
-0.389893	
-0.389099	
-0.390869	
-0.390808	
-0.391174	
-0.390869	
-0.392395	
-0.390869	
-0.390015	
-0.391113	
-0.39093	
-0.392273	
-0.391602	
-0.391174	
-0.391174	
-0.390259	
-0.390137	
-0.391418	
-0.39093	
-0.391235	
-0.392517	
-0.391113	
-0.390869	
-0.391174	
-0.390442	
-0.392334	
-0.391541	
-0.391724	
-0.392029	
-0.391785	
-0.392029	
-0.392029	
-0.391296	
-0.392456	
-0.392273	
-0.391541	
-0.392639	
-0.392578	
-0.393555	
-0.392822	
-0.393433	
-0.39386	
-0.392578	
-0.393372	
-0.394165	
-0.39325	
-0.393921	
-0.394775	
-0.394348	
-0.394409	
-0.39502	
-0.394226	
-0.395508	
-0.395447	
-0.395691	
-0.394897	
-0.393677	
-0.394226	
-0.395264	
-0.393127	
-0.395142	
-0.393616	
-0.392334	
-0.393799	
-0.393066	
-0.39447	
-0.393616	
-0.39386	
-0.394165	
-0.393616	
-0.393616	
-0.39447	
-0.393677	
-0.394409	
-0.394714	
-0.393982	
-0.394653	
-0.39447	
-0.394043	
-0.394409	
-0.394592	
-0.394958	
-0.395447	
-0.395447	
-0.395142	
-0.395813	
-0.395142	
-0.396362	
-0.39502	
-0.393799	
-0.39447	
-0.393005	
-0.39502	
-0.394043	
-0.393799	
-0.393494	
-0.393127	
-0.393555	
-0.394043	
-0.393066	
-0.3927	
-0.393921	
-0.393494	
-0.393127	
-0.393616	
-0.39325	
-0.393799	
-0.394226	
-0.394165	
-0.394348	
-0.394775	
-0.394775	
-0.394653	
-0.394348	
-0.395386	
-0.394592	
-0.394409	
-0.394775	
-0.393127	
-0.394592	
-0.394104	
-0.394287	
-0.394653	
-0.394531	
-0.394714	
-0.394836	
-0.395325	
-0.394592	
-0.394958	
-0.393066	
-0.393311	
-0.393433	
-0.391602	
-0.393433	
-0.393311	
-0.39325	
-0.392944	
-0.391785	
-0.391907	
-0.392395	
-0.392883	
-0.393005	
-0.393127	
-0.392578	
-0.3927	
-0.391907	
-0.392578	
-0.392456	
-0.392517	
-0.392578	
-0.392517	
-0.393127	
-0.391968	
-0.392639	
-0.393188	
-0.393555	
-0.392639	
-0.392883	
-0.391846	
-0.391846	
-0.393555	
-0.393005	
-0.393799	
-0.394592	
-0.394592	
-0.39624	
-0.394653	
-0.39502	
-0.395508	
-0.395813	
-0.395264	
-0.394653	
-0.394287	
-0.394653	
-0.395569	
-0.394714	
-0.394775	
-0.394897	
-0.394226	
-0.39624	
-0.394897	
-0.395142	
-0.396423	
-0.39447	
-0.394897	
-0.394531	
-0.393677	
-0.393799	
-0.395203	
-0.395081	
-0.39447	
-0.394348	
-0.395081	
-0.395508	
-0.394714	
-0.394592	
-0.395996	
-0.394714	
-0.394714	
-0.394226	
-0.392639	
-0.394592	
-0.394348	
-0.394531	
-0.394043	
-0.393616	
-0.394226	
-0.39325	
-0.392883	
-0.393188	
-0.39325	
-0.391907	
-0.392151	
-0.391724	
-0.39093	
-0.392761	
-0.391663	
-0.392456	
-0.391846	
-0.391052	
-0.392761	
-0.392456	
-0.393188	
-0.393677	
-0.393066	
-0.392029	
-0.392334	
-0.391541	
-0.391174	
-0.392639	
-0.392822	
-0.392761	
-0.392517	
-0.391785	
-0.394043	
-0.393982	
-0.394531	
-0.393799	
-0.393738	
-0.393677	
-0.393555	
-0.393372	
-0.392761	
-0.393555	
-0.393677	
-0.394409	
-0.393921	
-0.392944	
-0.394531	
-0.393555	
-0.394592	
-0.394714	
-0.393555	
-0.393677	
-0.393494	
-0.39325	
-0.392883	
-0.39386	
-0.393494	
-0.393555	
-0.393433	
-0.393555	
-0.394226	
-0.393677	
-0.393921	
-0.393494	
-0.391541	
-0.392456	
-0.390625	
-0.391235	
-0.391785	
-0.391479	
-0.391235	
-0.39209	
-0.392334	
-0.393311	
-0.393433	
-0.393494	
-0.393616	
-0.394348	
-0.39325	
-0.39386	
-0.393616	
-0.393738	
-0.394958	
-0.394653	
-0.39447	
-0.393799	
-0.394592	
-0.394836	
-0.395386	
-0.395081	
-0.395325	
-0.396545	
-0.393921	
-0.394653	
-0.394836	
-0.395203	
-0.396118	
-0.395508	
-0.394958	
-0.395264	
-0.394897	
-0.396057	
-0.39624	
-0.396423	
-0.395691	
-0.397827	
-0.395569	
-0.396057	
-0.395996	
-0.394897	
-0.397339	
-0.3974	
-0.397156	
-0.397278	
-0.397217	
-0.397827	
-0.397949	
-0.398376	
-0.397766	
-0.39856	
-0.396912	
-0.395935	
-0.396729	
-0.395569	
-0.39801	
-0.396729	
-0.396729	
-0.396851	
-0.396606	
-0.396851	
-0.396423	
-0.396545	
-0.396606	
-0.397278	
-0.396057	
-0.395386	
-0.396057	
-0.395264	
-0.396301	
-0.395752	
-0.39563	
-0.395325	
-0.39502	
-0.39563	
-0.395325	
-0.395752	
-0.396179	
-0.396179	
-0.395325	
-0.395935	
-0.395874	
-0.394775	
-0.396729	
-0.395813	
-0.395325	
-0.394836	
-0.395142	
-0.396606	
-0.396484	
-0.395935	
-0.396301	
-0.395752	
-0.395386	
-0.396362	
-0.395508	
-0.393616	
-0.395752	
-0.395325	
-0.395447	
-0.395508	
-0.394775	
-0.395752	
-0.395935	
-0.395569	
-0.395264	
-0.395142	
-0.394775	
-0.39447	
-0.394409	
-0.393005	
-0.394836	
-0.393677	
-0.393372	
-0.393311	
-0.393372	
-0.394104	
-0.394653	
-0.394409	
-0.394287	
-0.394043	
-0.393616	
-0.395081	
-0.395142	
-0.394897	
-0.395508	
-0.39502	
-0.395142	
-0.39563	
-0.394775	
-0.395264	
-0.395508	
-0.395447	
-0.395874	
-0.394409	
-0.394348	
-0.394897	
-0.395142	
-0.394592	
-0.395874	
-0.39502	
-0.395142	
-0.395142	
-0.394897	
-0.395447	
-0.395081	
-0.395264	
-0.395569	
-0.393982	
-0.394104	
-0.394897	
-0.39502	
-0.394897	
-0.396118	
-0.395447	
-0.396545	
-0.396606	
-0.397217	
-0.39801	
-0.39679	
-0.3974	
-0.397522	
-0.396484	
-0.396729	
-0.396606	
-0.396301	
-0.396423	
-0.397766	
-0.39679	
-0.396606	
-0.396667	
-0.397156	
-0.398071	
-0.396729	
-0.396912	
-0.397095	
-0.396484	
-0.397034	
-0.396912	
-0.397156	
-0.3974	
-0.398804	
-0.397217	
-0.39679	
-0.39679	
-0.396362	
-0.397583	
-0.396729	
-0.39679	
-0.397888	
-0.396423	
-0.397522	
-0.397644	
-0.397949	
-0.398071	
-0.399231	
-0.398193	
-0.398621	
-0.398071	
-0.398071	
-0.399963	
-0.398438	
-0.398438	
-0.399353	
-0.397644	
-0.398743	
-0.398865	
-0.398804	
-0.399353	
-0.400024	
-0.399414	
-0.398865	
-0.399048	
-0.398499	
-0.399048	
-0.398743	
-0.398682	
-0.399719	
-0.398804	
-0.399658	
-0.398987	
-0.39917	
-0.39856	
-0.399536	
-0.398193	
-0.397644	
-0.397461	
-0.396545	
-0.396912	
-0.397156	
-0.396912	
-0.397278	
-0.396606	
-0.3974	
-0.397034	
-0.396912	
-0.397644	
-0.397888	
-0.397522	
-0.396973	
-0.396729	
-0.39679	
-0.396973	
-0.397217	
-0.396912	
-0.397278	
-0.39679	
-0.397583	
-0.397217	
-0.396545	
-0.397034	
-0.398071	
-0.3974	
-0.3974	
-0.39679	
-0.397522	
-0.397278	
-0.397644	
-0.397766	
-0.397644	
-0.397461	
-0.397949	
-0.397949	
-0.397339	
-0.397156	
-0.398193	
-0.398254	
-0.398621	
-0.398315	
-0.398865	
-0.399292	
-0.400085	
-0.400146	
-0.400452	
-0.400452	
-0.400513	
-0.400757	
-0.400208	
-0.399719	
-0.400635	
-0.400635	
-0.400452	
-0.40033	
-0.400879	
-0.400391	
-0.400391	
-0.400635	
-0.401245	
-0.400146	
-0.400146	
-0.400208	
-0.400024	
-0.400391	
-0.399841	
-0.399902	
-0.399963	
-0.399353	
-0.400452	
-0.399048	
-0.398926	
-0.398865	
-0.398621	
-0.398682	
-0.398621	
-0.398743	
-0.398987	
-0.399597	
-0.398865	
-0.399292	
-0.399048	
-0.39917	
-0.400269	
-0.398376	
-0.398743	
-0.398926	
-0.399231	
-0.399475	
-0.398804	
-0.399048	
-0.399231	
-0.39978	
-0.399048	
-0.399353	
-0.399353	
-0.399658	
-0.401001	
-0.39917	
-0.400024	
-0.39978	
-0.400391	
-0.400574	
-0.400574	
-0.40094	
-0.401062	
-0.401611	
-0.401062	
-0.400574	
-0.400574	
-0.399902	
-0.401001	
-0.399475	
-0.399231	
-0.399109	
-0.399109	
-0.398743	
-0.398865	
-0.399048	
-0.398254	
-0.398682	
-0.398499	
-0.398315	
-0.397949	
-0.397949	
-0.399231	
-0.398621	
-0.398071	
-0.398315	
-0.397095	
-0.397583	
-0.397583	
-0.397156	
-0.397217	
-0.398132	
-0.397949	
-0.397461	
-0.397217	
-0.397461	
-0.399292	
-0.398315	
-0.397095	
-0.397095	
-0.396729	
-0.396301	
-0.396667	
-0.396484	
-0.396484	
-0.39624	
-0.396179	
-0.395813	
-0.395813	
-0.395386	
-0.396667	
-0.396545	
-0.396179	
-0.395874	
-0.395691	
-0.395691	
-0.396362	
-0.396362	
-0.396851	
-0.396973	
-0.397156	
-0.397461	
-0.397095	
-0.396729	
-0.398132	
-0.39856	
-0.397766	
-0.397705	
-0.397827	
-0.397766	
-0.397949	
-0.398071	
-0.397766	
-0.398132	
-0.398804	
-0.398743	
-0.398499	
-0.397461	
-0.397766	
-0.398315	
-0.397766	
-0.397461	
-0.398376	
-0.397949	
-0.397583	
-0.397583	
-0.397461	
-0.397217	
-0.397644	
-0.397278	
-0.397522	
-0.396973	
-0.398315	
-0.398499	
-0.398315	
-0.397888	
-0.398071	
-0.398071	
-0.398254	
-0.397766	
-0.397583	
-0.396851	
-0.397949	
-0.397827	
-0.398621	
-0.397766	
-0.397827	
-0.398743	
-0.398315	
-0.398743	
-0.39917	
-0.399231	
-0.398926	
-0.399292	
-0.399414	
-0.399231	
-0.400574	
-0.400574	
-0.399719	
-0.399902	
-0.39917	
-0.399475	
-0.398804	
-0.398438	
-0.398193	
-0.39917	
-0.397278	
-0.398193	
-0.398376	
-0.397339	
-0.397888	
-0.398132	
-0.398071	
-0.398193	
-0.397949	
-0.398254	
-0.398499	
-0.39801	
-0.398865	
-0.398743	
-0.39679	
-0.39856	
-0.398438	
-0.397583	
-0.398499	
-0.398315	
-0.398315	
-0.398071	
-0.398254	
-0.398804	
-0.399109	
-0.39801	
-0.398621	
-0.398865	
-0.397339	
-0.398193	
-0.397888	
-0.397888	
-0.396667	
-0.397095	
-0.396912	
-0.396484	
-0.396362	
-0.39624	
-0.397034	
-0.396362	
-0.397339	
-0.396729	
-0.395752	
-0.396667	
-0.396545	
-0.397339	
-0.395996	
-0.396912	
-0.396667	
-0.396912	
-0.396973	
-0.397339	
-0.397583	
-0.396851	
-0.397644	
-0.397156	
-0.396912	
-0.396729	
-0.396606	
-0.397156	
-0.39563	
-0.396912	
-0.397156	
-0.396667	
-0.396851	
-0.396667	
-0.396912	
-0.395386	
-0.395996	
-0.395752	
-0.39624	
-0.395203	
-0.394775	
-0.395935	
-0.394287	
-0.394531	
-0.394653	
-0.39502	
-0.394775	
-0.395142	
-0.395203	
-0.39386	
-0.395142	
-0.395325	
-0.394897	
-0.394287	
-0.394287	
-0.395203	
-0.393433	
-0.394287	
-0.394043	
-0.394775	
-0.39447	
-0.394287	
-0.394714	
-0.393738	
-0.395081	
-0.394714	
-0.39447	
-0.39447	
-0.394836	
-0.396362	
-0.395813	
-0.395874	
-0.395935	
-0.396301	
-0.396545	
-0.396667	
-0.397156	
-0.395935	
-0.396729	
-0.396301	
-0.396301	
-0.396118	
-0.396057	
-0.396912	
-0.395752	
-0.396667	
-0.396118	
-0.396301	
-0.39624	
-0.396484	
-0.396851	
-0.395569	
-0.396973	
-0.396057	
-0.396851	
-0.395813	
-0.395874	
-0.396973	
-0.395874	
-0.396851	
-0.396057	
-0.395935	
-0.395508	
-0.395935	
-0.396118	
-0.394775	
-0.396057	
-0.395691	
-0.395569	
-0.39563	
-0.394775	
-0.395813	
-0.394348	
-0.394409	
-0.394287	
-0.394043	
-0.393372	
-0.393433	
-0.393616	
-0.392395	
-0.392761	
-0.393066	
-0.393127	
-0.393188	
-0.393005	
-0.393311	
-0.392578	
-0.3927	
-0.394104	
-0.393188	
-0.393188	
-0.393555	
-0.394409	
-0.393921	
-0.393433	
-0.393616	
-0.393799	
-0.393921	
-0.39325	
-0.392944	
-0.393311	
-0.39325	
-0.394531	
-0.393616	
-0.394287	
-0.394348	
-0.394958	
-0.394897	
-0.394409	
-0.394775	
-0.394531	
-0.394775	
-0.394287	
-0.393677	
-0.394592	
-0.393738	
-0.394836	
-0.394165	
-0.393677	
-0.393738	
-0.394043	
-0.394043	
-0.394043	
-0.393921	
-0.393677	
-0.394043	
-0.394104	
-0.39386	
-0.394348	
-0.3927	
-0.394043	
-0.393433	
-0.393066	
-0.39325	
-0.392944	
-0.392395	
-0.392212	
-0.392151	
-0.391724	
-0.393372	
-0.3927	
-0.391479	
-0.392578	
-0.392578	
-0.394287	
-0.393982	
-0.394165	
-0.394409	
-0.394348	
-0.394653	
-0.394775	
-0.395081	
-0.394348	
-0.39502	
-0.394714	
-0.394226	
-0.394836	
-0.394653	
-0.395569	
-0.394775	
-0.394104	
-0.394958	
-0.395447	
-0.395203	
-0.395508	
-0.396179	
-0.395203	
-0.396423	
-0.395325	
-0.394714	
-0.396484	
-0.395508	
-0.396423	
-0.395813	
-0.39563	
-0.396179	
-0.396423	
-0.396484	
-0.397156	
-0.398193	
-0.396851	
-0.397217	
-0.3974	
-0.396606	
-0.398682	
-0.397644	
-0.398254	
-0.397644	
-0.396973	
-0.3974	
-0.397339	
-0.397583	
-0.396729	
-0.397278	
-0.39679	
-0.396667	
-0.396729	
-0.395996	
-0.396912	
-0.395935	
-0.396362	
-0.396179	
-0.395874	
-0.396484	
-0.396179	
-0.396423	
-0.396118	
-0.396057	
-0.394836	
-0.394165	
-0.395325	
-0.394958	
-0.396301	
-0.395081	
-0.395325	
-0.395508	
-0.395508	
-0.395874	
-0.395935	
-0.395752	
-0.39624	
-0.395447	
-0.395447	
-0.394287	
-0.395813	
-0.394592	
-0.395752	
-0.395325	
-0.396118	
-0.395325	
-0.395203	
-0.395325	
-0.395081	
-0.395386	
-0.395325	
-0.395996	
-0.395264	
-0.394714	
-0.395508	
-0.393799	
-0.394958	
-0.395874	
-0.394714	
-0.394592	
-0.394653	
-0.394165	
-0.394104	
-0.394592	
-0.393555	
-0.394226	
-0.393005	
-0.3927	
-0.393127	
-0.392029	
-0.393616	
-0.394165	
-0.393555	
-0.393921	
-0.394226	
-0.393311	
-0.39447	
-0.395081	
-0.394775	
-0.395447	
-0.394897	
-0.393921	
-0.395325	
-0.393982	
-0.395447	
-0.395874	
-0.394836	
-0.394531	
-0.394348	
-0.39386	
-0.393921	
-0.395691	
-0.394531	
-0.39563	
-0.394653	
-0.393921	
-0.395264	
-0.394165	
-0.39447	
-0.395325	
-0.394531	
-0.394531	
-0.394287	
-0.393311	
-0.393066	
-0.395447	
-0.394714	
-0.395447	
-0.395081	
-0.394836	
-0.396606	
-0.39563	
-0.396423	
-0.3974	
-0.396606	
-0.396973	
-0.396423	
-0.395569	
-0.395752	
-0.3974	
-0.396484	
-0.396606	
-0.396301	
-0.395935	
-0.397583	
-0.396362	
-0.396362	
-0.396973	
-0.396362	
-0.39679	
-0.396057	
-0.39563	
-0.395447	
-0.396912	
-0.397034	
-0.397034	
-0.396545	
-0.396484	
-0.397217	
-0.396118	
-0.395081	
-0.397461	
-0.396973	
-0.39679	
-0.396729	
-0.39624	
-0.396057	
-0.398071	
-0.398071	
-0.397949	
-0.397705	
-0.397522	
-0.398376	
-0.397644	
-0.396362	
-0.398438	
-0.39856	
-0.398193	
-0.398132	
-0.397583	
-0.397095	
-0.398682	
-0.398865	
-0.398682	
-0.398804	
-0.398376	
-0.397827	
-0.397827	
-0.397522	
-0.398499	
-0.398682	
-0.398438	
-0.398193	
-0.397522	
-0.397766	
-0.398682	
-0.398254	
-0.398132	
-0.397766	
-0.396729	
-0.396057	
-0.396362	
-0.395325	
-0.396179	
-0.396851	
-0.395752	
-0.396179	
-0.396057	
-0.39447	
-0.396362	
-0.396667	
-0.396545	
-0.397156	
-0.395508	
-0.39502	
-0.396362	
-0.395935	
-0.395996	
-0.396729	
-0.394714	
-0.395996	
-0.395935	
-0.394897	
-0.396179	
-0.397217	
-0.396729	
-0.396729	
-0.396301	
-0.395691	
-0.397156	
-0.39624	
-0.396851	
-0.397217	
-0.395386	
-0.396912	
-0.396606	
-0.396057	
-0.396301	
-0.397583	
-0.397156	
-0.397827	
-0.3974	
-0.396973	
-0.398743	
-0.39801	
-0.398499	
-0.39978	
-0.398132	
-0.399231	
-0.399292	
-0.39856	
-0.398254	
-0.400146	
-0.399292	
-0.399841	
-0.399353	
-0.397888	
-0.399902	
-0.399048	
-0.399292	
-0.400452	
-0.398926	
-0.399231	
-0.399414	
-0.398743	
-0.397888	
-0.399841	
-0.398926	
-0.399292	
-0.398926	
-0.397766	
-0.398743	
-0.397034	
-0.396484	
-0.399231	
-0.397644	
-0.397949	
-0.397583	
-0.397095	
-0.396362	
-0.398132	
-0.397705	
-0.397705	
-0.398376	
-0.397583	
-0.398254	
-0.39801	
-0.3974	
-0.39856	
-0.397766	
-0.397705	
-0.397949	
-0.397522	
-0.397217	
-0.398315	
-0.397705	
-0.397766	
-0.398865	
-0.398438	
-0.398743	
-0.398621	
-0.397339	
-0.399109	
-0.399475	
-0.398193	
-0.399231	
-0.399414	
-0.399719	
-0.400146	
-0.399536	
-0.399719	
-0.399963	
-0.39856	
-0.3974	
-0.397583	
-0.396667	
-0.398315	
-0.398315	
-0.395752	
-0.397339	
-0.397278	
-0.397095	
-0.397766	
-0.396973	
-0.397339	
-0.397827	
-0.396851	
-0.396423	
-0.3974	
-0.395569	
-0.396912	
-0.397522	
-0.395447	
-0.396057	
-0.396057	
-0.395508	
-0.39679	
-0.39679	
-0.396484	
-0.396912	
-0.395996	
-0.395264	
-0.39624	
-0.394348	
-0.39624	
-0.396362	
-0.394104	
-0.394592	
-0.394592	
-0.394348	
-0.394775	
-0.395081	
-0.394165	
-0.39502	
-0.394592	
-0.393799	
-0.394836	
-0.394287	
-0.394653	
-0.39563	
-0.393738	
-0.394775	
-0.394653	
-0.394226	
-0.395691	
-0.397156	
-0.395874	
-0.396851	
-0.396484	
-0.395996	
-0.396851	
-0.395813	
-0.396545	
-0.397583	
-0.395935	
-0.396423	
-0.395874	
-0.395264	
-0.396912	
-0.3974	
-0.396912	
-0.397217	
-0.396729	
-0.396118	
-0.3974	
-0.395569	
-0.396423	
-0.397278	
-0.395691	
-0.395752	
-0.394836	
-0.394714	
-0.395752	
-0.396118	
-0.395752	
-0.396301	
-0.396057	
-0.396301	
-0.396362	
-0.396484	
-0.395935	
-0.397583	
-0.396118	
-0.395996	
-0.39563	
-0.395691	
-0.395935	
-0.396545	
-0.396973	
-0.396423	
-0.396362	
-0.396545	
-0.396179	
-0.396973	
-0.396179	
-0.398438	
-0.396912	
-0.397095	
-0.397766	
-0.39624	
-0.39801	
-0.398315	
-0.399048	
-0.39801	
-0.398682	
-0.397095	
-0.39624	
-0.397766	
-0.396301	
-0.397766	
-0.396179	
-0.395447	
-0.396301	
-0.394714	
-0.396484	
-0.396301	
-0.397522	
-0.396851	
-0.396545	
-0.396301	
-0.396057	
-0.397095	
-0.395264	
-0.397095	
-0.396484	
-0.395996	
-0.396545	
-0.395203	
-0.396118	
-0.397034	
-0.397583	
-0.396667	
-0.397522	
-0.39679	
-0.396362	
-0.397705	
-0.396301	
-0.39856	
-0.396423	
-0.395874	
-0.395996	
-0.394653	
-0.395325	
-0.39502	
-0.39563	
-0.395142	
-0.395203	
-0.394226	
-0.394409	
-0.39502	
-0.394958	
-0.395874	
-0.394409	
	
