E:\DOCUMENTS AND SETTINGS\JPOTAS\MEUS DOCUMENTOS\UFRJ\RSCI-BM 12 WK SERIES\070731-RSCI-BM-12\RSCI-BM-12-LEMG\070731-RSCI-BM-12-LEMG-0003.ACQ
0.025000 msec/sample
1 channel
Analog input
Volts
CH1	
2000	
-0.39209	
-0.392212	
-0.39325	
-0.392639	
-0.393799	
-0.39209	
-0.391357	
-0.392273	
-0.39209	
-0.392517	
-0.393311	
-0.393494	
-0.392822	
-0.392639	
-0.392029	
-0.391968	
-0.393494	
-0.392822	
-0.393433	
-0.393127	
-0.392456	
-0.393799	
-0.392761	
-0.394592	
-0.395691	
-0.395386	
-0.394531	
-0.394287	
-0.394287	
-0.394348	
-0.395142	
-0.395142	
-0.395508	
-0.394592	
-0.393188	
-0.394775	
-0.394104	
-0.396057	
-0.397339	
-0.396729	
-0.395508	
-0.395996	
-0.395752	
-0.394958	
-0.395752	
-0.396301	
-0.396423	
-0.395935	
-0.394958	
-0.39563	
-0.395325	
-0.396179	
-0.397095	
-0.397217	
-0.396423	
-0.396606	
-0.397278	
-0.39679	
-0.397461	
-0.397278	
-0.398438	
-0.397461	
-0.39624	
-0.397522	
-0.396606	
-0.397583	
-0.398682	
-0.398621	
-0.397766	
-0.397522	
-0.397522	
-0.397156	
-0.398438	
-0.397522	
-0.397949	
-0.397461	
-0.395752	
-0.396729	
-0.395569	
-0.39624	
-0.397339	
-0.397217	
-0.395508	
-0.395447	
-0.395508	
-0.395325	
-0.395447	
-0.395508	
-0.395752	
-0.395447	
-0.394409	
-0.395142	
-0.393433	
-0.394653	
-0.395386	
-0.396179	
-0.39563	
-0.394836	
-0.395081	
-0.394531	
-0.395203	
-0.394958	
-0.395569	
-0.394958	
-0.394775	
-0.394531	
-0.393005	
-0.393799	
-0.394653	
-0.394775	
-0.393616	
-0.392822	
-0.392639	
-0.392822	
-0.392578	
-0.391968	
-0.39209	
-0.391113	
-0.391174	
-0.390991	
-0.389404	
-0.390137	
-0.390625	
-0.390747	
-0.390076	
-0.390076	
-0.389587	
-0.390564	
-0.390137	
-0.390076	
-0.390808	
-0.390015	
-0.390503	
-0.390503	
-0.389221	
-0.390137	
-0.390808	
-0.391113	
-0.390625	
-0.390564	
-0.390442	
-0.391235	
-0.390503	
-0.391418	
-0.391846	
-0.390259	
-0.391663	
-0.391296	
-0.390869	
-0.391785	
-0.393127	
-0.392334	
-0.392578	
-0.393311	
-0.393372	
-0.394043	
-0.393494	
-0.394531	
-0.396423	
-0.394958	
-0.396301	
-0.396057	
-0.395203	
-0.396545	
-0.3974	
-0.397217	
-0.397522	
-0.397461	
-0.397034	
-0.397339	
-0.396362	
-0.398315	
-0.399231	
-0.39679	
-0.397522	
-0.397583	
-0.396606	
-0.398315	
-0.397644	
-0.397888	
-0.397583	
-0.397522	
-0.397034	
-0.397095	
-0.396729	
-0.397583	
-0.398682	
-0.39624	
-0.397522	
-0.397278	
-0.395935	
-0.397583	
-0.39801	
-0.397644	
-0.398132	
-0.397461	
-0.397522	
-0.392151	
-0.385681	
-0.384949	
-0.386353	
-0.384399	
-0.38501	
-0.391602	
-0.394653	
-0.397827	
-0.398376	
-0.397949	
-0.397705	
-0.39093	
-0.385315	
-0.385437	
-0.384949	
-0.385742	
-0.387207	
-0.390442	
-0.39679	
-0.397583	
-0.396301	
-0.398254	
-0.397949	
-0.398193	
-0.397278	
-0.397095	
-0.396912	
-0.398193	
-0.396973	
-0.397034	
-0.39856	
-0.396484	
-0.3974	
-0.396912	
-0.396179	
-0.397949	
-0.399048	
-0.398926	
-0.397949	
-0.398743	
-0.398071	
-0.398682	
-0.39801	
-0.398376	
-0.399292	
-0.396851	
-0.397644	
-0.396545	
-0.396179	
-0.397583	
-0.398682	
-0.39856	
-0.397217	
-0.398376	
-0.399048	
-0.400208	
-0.401428	
-0.403503	
-0.405579	
-0.406372	
-0.409363	
-0.412231	
-0.413513	
-0.417969	
-0.422302	
-0.427429	
-0.43158	
-0.437927	
-0.444641	
-0.451538	
-0.458618	
-0.466125	
-0.470032	
-0.477905	
-0.483887	
-0.489197	
-0.49353	
-0.498169	
-0.501831	
-0.504517	
-0.506836	
-0.509338	
-0.51178	
-0.514526	
-0.516663	
-0.516724	
-0.516602	
-0.516663	
-0.516541	
-0.514587	
-0.514709	
-0.51355	
-0.512268	
-0.511475	
-0.511169	
-0.511292	
-0.512756	
-0.515869	
-0.519897	
-0.522095	
-0.527222	
-0.531921	
-0.535034	
-0.539856	
-0.544983	
-0.548401	
-0.549805	
-0.55188	
-0.552246	
-0.552795	
-0.552002	
-0.55127	
-0.549683	
-0.546997	
-0.543945	
-0.539795	
-0.533752	
-0.528992	
-0.523804	
-0.516968	
-0.509155	
-0.502441	
-0.495361	
-0.487122	
-0.480713	
-0.474243	
-0.467529	
-0.460388	
-0.453613	
-0.447021	
-0.441101	
-0.435669	
-0.430237	
-0.423401	
-0.416321	
-0.409241	
-0.402466	
-0.39447	
-0.388	
-0.380432	
-0.373413	
-0.365601	
-0.357788	
-0.349487	
-0.341431	
-0.335083	
-0.328613	
-0.321594	
-0.314392	
-0.307251	
-0.300903	
-0.294617	
-0.289917	
-0.285217	
-0.280457	
-0.27655	
-0.27356	
-0.27124	
-0.268921	
-0.267944	
-0.26709	
-0.266418	
-0.265869	
-0.266907	
-0.268616	
-0.269409	
-0.271729	
-0.274536	
-0.27655	
-0.281677	
-0.285522	
-0.290039	
-0.29425	
-0.300476	
-0.304199	
-0.309143	
-0.313416	
-0.318481	
-0.322693	
-0.32666	
-0.330872	
-0.332031	
-0.335266	
-0.336853	
-0.338928	
-0.341187	
-0.342957	
-0.343323	
-0.345093	
-0.345764	
-0.346802	
-0.347595	
-0.349548	
-0.350952	
-0.350586	
-0.352356	
-0.353638	
-0.354553	
-0.356567	
-0.358887	
-0.359314	
-0.360962	
-0.361267	
-0.362671	
-0.36438	
-0.365479	
-0.366882	
-0.366455	
-0.367615	
-0.36853	
-0.367432	
-0.370178	
-0.371521	
-0.371521	
-0.371521	
-0.37207	
-0.372498	
-0.373596	
-0.37439	
-0.375	
-0.374634	
-0.375366	
-0.375305	
-0.375244	
-0.375427	
-0.377625	
-0.376953	
-0.377197	
-0.37738	
-0.37677	
-0.378479	
-0.378845	
-0.380005	
-0.379761	
-0.379761	
-0.380127	
-0.380127	
-0.380737	
-0.381592	
-0.381287	
-0.38147	
-0.381348	
-0.381897	
-0.382751	
-0.382446	
-0.383789	
-0.384644	
-0.38446	
-0.385376	
-0.385193	
-0.383972	
-0.386292	
-0.386353	
-0.385986	
-0.385803	
-0.386292	
-0.386963	
-0.387634	
-0.387756	
-0.388672	
-0.388611	
-0.38855	
-0.388123	
-0.38855	
-0.388733	
-0.388489	
-0.387817	
-0.387939	
-0.387878	
-0.387939	
-0.388977	
-0.388489	
-0.388733	
-0.387939	
-0.387207	
-0.388245	
-0.388	
-0.387939	
-0.388611	
-0.38739	
-0.388306	
-0.387756	
-0.387512	
-0.388245	
-0.387329	
-0.387451	
-0.387512	
-0.385803	
-0.387573	
-0.38678	
-0.38623	
-0.387268	
-0.385681	
-0.385681	
-0.385437	
-0.384644	
-0.385254	
-0.384521	
-0.384155	
-0.384033	
-0.382813	
-0.383423	
-0.382996	
-0.384155	
-0.384766	
-0.384033	
-0.383484	
-0.384277	
-0.383606	
-0.384705	
-0.384277	
-0.384338	
-0.384399	
-0.383179	
-0.384216	
-0.384033	
-0.384644	
-0.385803	
-0.385498	
-0.385193	
-0.385071	
-0.385803	
-0.386169	
-0.385132	
-0.385925	
-0.385742	
-0.384644	
-0.385071	
-0.385864	
-0.386108	
-0.385803	
-0.385681	
-0.385681	
-0.38501	
-0.385803	
-0.385742	
-0.386108	
-0.386902	
-0.387268	
-0.386353	
-0.386597	
-0.386536	
-0.386047	
-0.38678	
-0.387085	
-0.386536	
-0.386353	
-0.385498	
-0.385925	
-0.387695	
-0.387512	
-0.387634	
-0.388367	
-0.386719	
-0.387817	
-0.388245	
-0.387878	
-0.389221	
-0.388611	
-0.388367	
-0.388245	
-0.388123	
-0.389587	
-0.388672	
-0.389221	
-0.389771	
-0.388489	
-0.388367	
-0.388306	
-0.386841	
-0.38855	
-0.389099	
-0.388489	
-0.388306	
-0.388245	
-0.388367	
-0.389465	
-0.389465	
-0.389404	
-0.390076	
-0.388977	
-0.390198	
-0.390198	
-0.389648	
-0.391907	
-0.392334	
-0.391907	
-0.391663	
-0.391357	
-0.391541	
-0.393005	
-0.393188	
-0.393555	
-0.393188	
-0.393372	
-0.393616	
-0.393799	
-0.394897	
-0.396301	
-0.395081	
-0.395447	
-0.395142	
-0.394226	
-0.395569	
-0.394653	
-0.395386	
-0.394592	
-0.392944	
-0.394348	
-0.393311	
-0.393921	
-0.394714	
-0.393982	
-0.393677	
-0.394043	
-0.393188	
-0.393127	
-0.393677	
-0.394592	
-0.39447	
-0.393311	
-0.393127	
-0.3927	
-0.392761	
-0.393799	
-0.393921	
-0.392273	
-0.392578	
-0.392273	
-0.391724	
-0.392639	
-0.392273	
-0.392578	
-0.391296	
-0.391296	
-0.39032	
-0.389465	
-0.390198	
-0.391663	
-0.389648	
-0.388611	
-0.388489	
-0.387268	
-0.389587	
-0.388184	
-0.388611	
-0.387634	
-0.386719	
-0.387634	
-0.387329	
-0.387878	
-0.388611	
-0.387939	
-0.388367	
-0.387878	
-0.387695	
-0.388916	
-0.388977	
-0.389526	
-0.389526	
-0.389404	
-0.389099	
-0.389099	
-0.388672	
-0.389893	
-0.391052	
-0.389709	
-0.389954	
-0.389771	
-0.388184	
-0.390747	
-0.389771	
-0.391052	
-0.389282	
-0.388672	
-0.389709	
-0.388245	
-0.389832	
-0.390259	
-0.389893	
-0.389343	
-0.389648	
-0.389648	
-0.390015	
-0.390137	
-0.390747	
-0.391907	
-0.390137	
-0.39093	
-0.391235	
-0.389648	
-0.392212	
-0.39325	
-0.391663	
-0.391907	
-0.392517	
-0.391418	
-0.393433	
-0.392639	
-0.392761	
-0.393799	
-0.392273	
-0.393311	
-0.392395	
-0.391418	
-0.394287	
-0.394897	
-0.393677	
-0.393982	
-0.39386	
-0.392395	
-0.393982	
-0.393677	
-0.394897	
-0.394409	
-0.393921	
-0.393799	
-0.393616	
-0.394348	
-0.395264	
-0.394653	
-0.394592	
-0.394775	
-0.394531	
-0.396362	
-0.395325	
-0.394897	
-0.39679	
-0.394592	
-0.395752	
-0.39563	
-0.394958	
-0.396606	
-0.398499	
-0.396423	
-0.39679	
-0.396362	
-0.394653	
-0.396423	
-0.396179	
-0.396484	
-0.396484	
-0.395996	
-0.396362	
-0.395874	
-0.395508	
-0.396362	
-0.396057	
-0.395386	
-0.395325	
-0.394775	
-0.395386	
-0.394775	
-0.394836	
-0.396118	
-0.392944	
-0.394043	
-0.39386	
-0.39325	
-0.394043	
-0.395203	
-0.393311	
-0.39386	
-0.393494	
-0.3927	
-0.393188	
-0.393799	
-0.394104	
-0.394714	
-0.39386	
-0.393982	
-0.393799	
-0.392822	
-0.394287	
-0.393555	
-0.39325	
-0.393188	
-0.392944	
-0.392517	
-0.391907	
-0.391907	
-0.3927	
-0.390442	
-0.391663	
-0.390869	
-0.390564	
-0.390747	
-0.391846	
-0.389709	
-0.389832	
-0.389587	
-0.389038	
-0.389282	
-0.38916	
-0.38916	
-0.390564	
-0.389221	
-0.389343	
-0.389221	
-0.387756	
-0.389526	
-0.391052	
-0.389709	
-0.389038	
-0.389587	
-0.388428	
-0.389771	
-0.389587	
-0.389954	
-0.389954	
-0.389954	
-0.390259	
-0.389771	
-0.388672	
-0.390503	
-0.391785	
-0.390747	
-0.391113	
-0.391479	
-0.390564	
-0.391663	
-0.392273	
-0.393066	
-0.393005	
-0.3927	
-0.393433	
-0.392822	
-0.393616	
-0.395447	
-0.395752	
-0.395386	
-0.395569	
-0.396423	
-0.395691	
-0.396301	
-0.396912	
-0.398071	
-0.396729	
-0.396973	
-0.397095	
-0.396057	
-0.397644	
-0.39856	
-0.397461	
-0.39679	
-0.396545	
-0.396606	
-0.397278	
-0.397034	
-0.396973	
-0.396851	
-0.396423	
-0.396484	
-0.396179	
-0.394897	
-0.397095	
-0.397522	
-0.396484	
-0.396606	
-0.397095	
-0.395813	
-0.397278	
-0.3974	
-0.39801	
-0.398071	
-0.397217	
-0.397095	
-0.396667	
-0.395874	
-0.398376	
-0.397949	
-0.3974	
-0.39679	
-0.397156	
-0.396179	
-0.39679	
-0.396606	
-0.396667	
-0.3974	
-0.396667	
-0.396667	
-0.39679	
-0.397034	
-0.397644	
-0.396973	
-0.396484	
-0.39679	
-0.396851	
-0.395691	
-0.396179	
-0.39624	
-0.39679	
-0.396423	
-0.396362	
-0.396179	
-0.39563	
-0.396545	
-0.397217	
-0.396729	
-0.396484	
-0.396912	
-0.395203	
-0.395813	
-0.397278	
-0.396973	
-0.398621	
-0.396729	
-0.396912	
-0.396667	
-0.396362	
-0.397217	
-0.397644	
-0.396729	
-0.396301	
-0.39679	
-0.394348	
-0.394165	
-0.394775	
-0.394104	
-0.395813	
-0.394165	
-0.394775	
-0.393799	
-0.392029	
-0.393494	
-0.393921	
-0.393433	
-0.392944	
-0.392273	
-0.391968	
-0.392395	
-0.391968	
-0.392151	
-0.392456	
-0.391907	
-0.391724	
-0.391663	
-0.390259	
-0.393066	
-0.393494	
-0.393311	
-0.393433	
-0.392822	
-0.392334	
-0.393555	
-0.392639	
-0.394104	
-0.393921	
-0.393616	
-0.393616	
-0.393738	
-0.393127	
-0.39502	
-0.394592	
-0.394226	
-0.394653	
-0.393494	
-0.394348	
-0.394653	
-0.394653	
-0.396179	
-0.395447	
-0.395508	
-0.396118	
-0.395569	
-0.396606	
-0.3974	
-0.396667	
-0.397888	
-0.397766	
-0.397522	
-0.398682	
-0.398621	
-0.400024	
-0.401978	
-0.400452	
-0.40033	
-0.400818	
-0.400146	
-0.401306	
-0.402649	
-0.401367	
-0.401855	
-0.401062	
-0.399719	
-0.400574	
-0.399963	
-0.400757	
-0.402344	
-0.400269	
-0.400024	
-0.399841	
-0.398132	
-0.39978	
-0.401001	
-0.399719	
-0.400269	
-0.399414	
-0.397461	
-0.399048	
-0.398315	
-0.400024	
-0.400635	
-0.399841	
-0.399475	
-0.399292	
-0.398071	
-0.40033	
-0.400024	
-0.399597	
-0.400513	
-0.399536	
-0.399597	
-0.399536	
-0.399658	
-0.400635	
-0.400269	
-0.399841	
-0.39917	
-0.399048	
-0.397949	
-0.399902	
-0.399109	
-0.398865	
-0.398071	
-0.397766	
-0.39801	
-0.397522	
-0.398132	
-0.399414	
-0.398682	
-0.398132	
-0.398315	
-0.397156	
-0.397705	
-0.399292	
-0.39856	
-0.398499	
-0.397217	
-0.395203	
-0.396667	
-0.396179	
-0.397278	
-0.398376	
-0.397217	
-0.39679	
-0.396484	
-0.395386	
-0.39679	
-0.397888	
-0.396606	
-0.397522	
-0.395935	
-0.395203	
-0.396057	
-0.395691	
-0.395996	
-0.396851	
-0.395569	
-0.395569	
-0.395264	
-0.393799	
-0.395813	
-0.39563	
-0.394897	
-0.395935	
-0.394043	
-0.394226	
-0.393982	
-0.393738	
-0.394714	
-0.395691	
-0.394653	
-0.394592	
-0.394531	
-0.392761	
-0.39563	
-0.394958	
-0.395447	
-0.395813	
-0.394958	
-0.395447	
-0.396301	
-0.395142	
-0.397278	
-0.396912	
-0.396545	
-0.396667	
-0.39679	
-0.39679	
-0.398682	
-0.397339	
-0.397522	
-0.397278	
-0.396729	
-0.397766	
-0.397522	
-0.397522	
-0.398926	
-0.398499	
-0.397461	
-0.397705	
-0.397949	
-0.397888	
-0.39978	
-0.397827	
-0.398132	
-0.397949	
-0.396851	
-0.398376	
-0.39856	
-0.39917	
-0.400696	
-0.399597	
-0.399475	
-0.400208	
-0.399597	
-0.400696	
-0.402527	
-0.400818	
-0.401672	
-0.400757	
-0.399902	
-0.401367	
-0.401611	
-0.401794	
-0.403625	
-0.402344	
-0.402344	
-0.401917	
-0.401733	
-0.403015	
-0.403381	
-0.401672	
-0.40271	
-0.401855	
-0.400208	
-0.401978	
-0.401367	
-0.402466	
-0.40332	
-0.401917	
-0.402161	
-0.401123	
-0.400208	
-0.401611	
-0.401672	
-0.401733	
-0.401733	
-0.400513	
-0.400024	
-0.400269	
-0.399353	
-0.400208	
-0.401062	
-0.399231	
-0.398865	
-0.398743	
-0.397217	
-0.39917	
-0.398071	
-0.3974	
-0.396973	
-0.395752	
-0.396118	
-0.395996	
-0.394836	
-0.395508	
-0.396301	
-0.394836	
-0.395874	
-0.395325	
-0.393555	
-0.396301	
-0.395386	
-0.395325	
-0.395447	
-0.394043	
-0.394714	
-0.394958	
-0.39447	
-0.395264	
-0.395691	
-0.395386	
-0.395569	
-0.395142	
-0.394043	
-0.396362	
-0.395203	
-0.395569	
-0.395081	
-0.393555	
-0.394714	
-0.394714	
-0.395203	
-0.395325	
-0.394592	
-0.394409	
-0.394409	
-0.394348	
-0.394653	
-0.395447	
-0.395264	
-0.395569	
-0.394714	
-0.394714	
-0.394958	
-0.394592	
-0.395203	
-0.395691	
-0.394958	
-0.395264	
-0.394531	
-0.39502	
-0.395752	
-0.39563	
-0.395752	
-0.395874	
-0.39502	
-0.395264	
-0.395447	
-0.394958	
-0.39624	
-0.39801	
-0.39624	
-0.395813	
-0.395874	
-0.395203	
-0.39679	
-0.396545	
-0.396057	
-0.396423	
-0.394714	
-0.394958	
-0.394653	
-0.394043	
-0.395264	
-0.396912	
-0.394958	
-0.394775	
-0.394592	
-0.393311	
-0.395264	
-0.395569	
-0.395142	
-0.395447	
-0.395264	
-0.396118	
-0.39624	
-0.397278	
-0.397705	
-0.398926	
-0.397522	
-0.397766	
-0.397461	
-0.396423	
-0.398499	
-0.398865	
-0.398987	
-0.398315	
-0.398376	
-0.399048	
-0.399231	
-0.399658	
-0.400513	
-0.400879	
-0.399902	
-0.399963	
-0.39978	
-0.398438	
-0.400146	
-0.400024	
-0.399719	
-0.398865	
-0.39801	
-0.398254	
-0.397644	
-0.398376	
-0.398865	
-0.398987	
-0.398376	
-0.397949	
-0.397278	
-0.397888	
-0.398254	
-0.398376	
-0.399048	
-0.397644	
-0.397034	
-0.397217	
-0.396606	
-0.397461	
-0.397644	
-0.397644	
-0.396606	
-0.396545	
-0.396179	
-0.396118	
-0.396362	
-0.39679	
-0.39624	
-0.394287	
-0.394836	
-0.394043	
-0.39325	
-0.393799	
-0.393921	
-0.3927	
-0.392395	
-0.392029	
-0.391296	
-0.392151	
-0.392212	
-0.3927	
-0.391907	
-0.390198	
-0.391357	
-0.390503	
-0.390503	
-0.391663	
-0.392822	
-0.391724	
-0.391602	
-0.391846	
-0.390808	
-0.392639	
-0.392761	
-0.393188	
-0.393005	
-0.391785	
-0.392212	
-0.391113	
-0.392212	
-0.39325	
-0.393433	
-0.392334	
-0.3927	
-0.392456	
-0.391418	
-0.392883	
-0.392334	
-0.393127	
-0.392395	
-0.391724	
-0.392029	
-0.391479	
-0.392334	
-0.392883	
-0.393066	
-0.392456	
-0.392639	
-0.392456	
-0.392151	
-0.393066	
-0.393005	
-0.393799	
-0.393677	
-0.392639	
-0.393494	
-0.393799	
-0.394714	
-0.394775	
-0.395325	
-0.394409	
-0.394348	
-0.394226	
-0.395325	
-0.395325	
-0.395325	
-0.395447	
-0.394348	
-0.394775	
-0.395264	
-0.395691	
-0.396118	
-0.39624	
-0.396423	
-0.395874	
-0.395752	
-0.395203	
-0.395447	
-0.395813	
-0.396606	
-0.396362	
-0.395813	
-0.396118	
-0.395264	
-0.395203	
-0.396545	
-0.397461	
-0.397583	
-0.396729	
-0.396851	
-0.396423	
-0.397156	
-0.397705	
-0.398682	
-0.397583	
-0.397644	
-0.397644	
-0.397644	
-0.396912	
-0.397827	
-0.399231	
-0.398499	
-0.397827	
-0.3974	
-0.397034	
-0.397583	
-0.397644	
-0.398987	
-0.397034	
-0.396912	
-0.39679	
-0.395996	
-0.396484	
-0.396362	
-0.3974	
-0.397034	
-0.395996	
-0.395386	
-0.394653	
-0.395203	
-0.395569	
-0.396667	
-0.395142	
-0.394531	
-0.394226	
-0.392578	
-0.39502	
-0.395081	
-0.395447	
-0.39502	
-0.394836	
-0.394836	
-0.393372	
-0.394653	
-0.395325	
-0.395935	
-0.394836	
-0.394165	
-0.393494	
-0.392822	
-0.394775	
-0.394409	
-0.394592	
-0.393433	
-0.393005	
-0.392212	
-0.39093	
-0.391174	
-0.392151	
-0.391846	
-0.391479	
-0.390808	
-0.390503	
-0.389282	
-0.390686	
-0.390381	
-0.389954	
-0.389771	
-0.389954	
-0.389648	
-0.389465	
-0.389771	
-0.391113	
-0.390503	
-0.39032	
-0.390015	
-0.389648	
-0.389465	
-0.390991	
-0.391113	
-0.390076	
-0.390137	
-0.39032	
-0.389832	
-0.390625	
-0.391846	
-0.391968	
-0.391235	
-0.391113	
-0.391296	
-0.39093	
-0.392151	
-0.392822	
-0.393677	
-0.393311	
-0.393127	
-0.393372	
-0.393005	
-0.393677	
-0.395325	
-0.395264	
-0.39563	
-0.396362	
-0.395752	
-0.395081	
-0.396912	
-0.397644	
-0.398438	
-0.398315	
-0.397827	
-0.397339	
-0.396606	
-0.398254	
-0.399292	
-0.398987	
-0.398315	
-0.397949	
-0.397705	
-0.39801	
-0.398438	
-0.398621	
-0.39917	
-0.398804	
-0.397827	
-0.397339	
-0.396362	
-0.397156	
-0.398499	
-0.398621	
-0.397583	
-0.397949	
-0.397644	
-0.397766	
-0.397827	
-0.398193	
-0.399292	
-0.399414	
-0.398438	
-0.398071	
-0.398254	
-0.398376	
-0.399841	
-0.399231	
-0.398315	
-0.397888	
-0.3974	
-0.397766	
-0.397705	
-0.397949	
-0.39856	
-0.398743	
-0.398621	
-0.397827	
-0.397766	
-0.39801	
-0.399719	
-0.398987	
-0.397888	
-0.398132	
-0.397217	
-0.3974	
-0.398193	
-0.398254	
-0.398193	
-0.398987	
-0.397766	
-0.397583	
-0.396851	
-0.396912	
-0.399109	
-0.398682	
-0.397766	
-0.397461	
-0.39679	
-0.397522	
-0.398743	
-0.398743	
-0.398865	
-0.399292	
-0.398804	
-0.39856	
-0.397339	
-0.397949	
-0.400269	
-0.399109	
-0.398071	
-0.397339	
-0.39502	
-0.395935	
-0.396729	
-0.396301	
-0.396362	
-0.396545	
-0.395874	
-0.395691	
-0.395447	
-0.394775	
-0.396545	
-0.395081	
-0.394409	
-0.393677	
-0.392212	
-0.393555	
-0.393433	
-0.394104	
-0.393311	
-0.39386	
-0.392822	
-0.393188	
-0.393311	
-0.393188	
-0.394592	
-0.394836	
-0.394104	
-0.393921	
-0.393372	
-0.393982	
-0.395325	
-0.395508	
-0.395081	
-0.395752	
-0.394958	
-0.395081	
-0.395569	
-0.395081	
-0.395386	
-0.395508	
-0.395325	
-0.395203	
-0.395142	
-0.395325	
-0.396423	
-0.396606	
-0.396423	
-0.397217	
-0.396545	
-0.396301	
-0.39679	
-0.397339	
-0.397949	
-0.397766	
-0.397827	
-0.39801	
-0.398682	
-0.399353	
-0.400146	
-0.401733	
-0.401428	
-0.40155	
-0.401367	
-0.401428	
-0.401489	
-0.402527	
-0.402466	
-0.402283	
-0.402344	
-0.401733	
-0.402161	
-0.401855	
-0.402039	
-0.402832	
-0.402344	
-0.401855	
-0.401367	
-0.40094	
-0.401062	
-0.401367	
-0.401489	
-0.400513	
-0.400635	
-0.399231	
-0.400757	
-0.400208	
-0.400696	
-0.401428	
-0.400513	
-0.400635	
-0.400146	
-0.400452	
-0.400818	
-0.401245	
-0.401672	
-0.40033	
-0.400208	
-0.398193	
-0.40033	
-0.400513	
-0.400452	
-0.401245	
-0.400635	
-0.400513	
-0.399902	
-0.399536	
-0.400146	
-0.401428	
-0.400635	
-0.398987	
-0.399109	
-0.396851	
-0.398071	
-0.399109	
-0.398499	
-0.399536	
-0.398987	
-0.39917	
-0.398438	
-0.39801	
-0.39856	
-0.40033	
-0.39917	
-0.398315	
-0.398132	
-0.39563	
-0.396729	
-0.397888	
-0.397339	
-0.397949	
-0.397888	
-0.397034	
-0.396912	
-0.396484	
-0.3974	
-0.398315	
-0.397522	
-0.39679	
-0.39624	
-0.394653	
-0.395691	
-0.396179	
-0.396301	
-0.396606	
-0.396667	
-0.395813	
-0.396118	
-0.394836	
-0.395264	
-0.396301	
-0.39502	
-0.394592	
-0.394165	
-0.393311	
-0.394043	
-0.394348	
-0.39447	
-0.395203	
-0.395203	
-0.394775	
-0.39447	
-0.393433	
-0.394653	
-0.395691	
-0.394531	
-0.394775	
-0.394287	
-0.393311	
-0.395386	
-0.395996	
-0.395752	
-0.396179	
-0.396484	
-0.396179	
-0.396179	
-0.395264	
-0.396301	
-0.397583	
-0.396667	
-0.396545	
-0.396057	
-0.39563	
-0.396973	
-0.396973	
-0.397461	
-0.397888	
-0.397888	
-0.396851	
-0.397156	
-0.39624	
-0.397095	
-0.397949	
-0.397339	
-0.397156	
-0.396423	
-0.395203	
-0.397095	
-0.397583	
-0.398865	
-0.399292	
-0.398682	
-0.398926	
-0.399292	
-0.398315	
-0.399658	
-0.400269	
-0.399841	
-0.39978	
-0.398804	
-0.399109	
-0.400391	
-0.400757	
-0.401489	
-0.402649	
-0.401245	
-0.400696	
-0.400513	
-0.400574	
-0.400696	
-0.401123	
-0.400879	
-0.400696	
-0.399841	
-0.39978	
-0.400635	
-0.400574	
-0.401062	
-0.401062	
-0.400635	
-0.400391	
-0.400208	
-0.399658	
-0.39978	
-0.400696	
-0.399841	
-0.39917	
-0.398804	
-0.397705	
-0.398621	
-0.398682	
-0.398499	
-0.398376	
-0.398071	
-0.397339	
-0.397278	
-0.397644	
-0.397217	
-0.397095	
-0.395264	
-0.394836	
-0.394836	
-0.393921	
-0.393921	
-0.394104	
-0.39386	
-0.393677	
-0.393616	
-0.393555	
-0.393188	
-0.393921	
-0.39386	
-0.394348	
-0.392883	
-0.392578	
-0.392639	
-0.392639	
-0.393372	
-0.392639	
-0.393616	
-0.394043	
-0.393433	
-0.393616	
-0.393799	
-0.393494	
-0.394104	
-0.394226	
-0.39325	
-0.391846	
-0.392883	
-0.392029	
-0.392822	
-0.392517	
-0.393127	
-0.39325	
-0.393066	
-0.392517	
-0.392944	
-0.392334	
-0.393188	
-0.393127	
-0.392456	
-0.391724	
-0.391785	
-0.392456	
-0.3927	
-0.392883	
-0.392944	
-0.39325	
-0.392639	
-0.392578	
-0.392273	
-0.392456	
-0.393494	
-0.39325	
-0.3927	
-0.393127	
-0.391663	
-0.392395	
-0.393799	
-0.39386	
-0.394714	
-0.394958	
-0.393555	
-0.392761	
-0.393372	
-0.392944	
-0.394409	
-0.393555	
-0.393188	
-0.392944	
-0.391418	
-0.391907	
-0.392334	
-0.392883	
-0.393982	
-0.393066	
-0.392639	
-0.392456	
-0.392517	
-0.390625	
-0.392517	
-0.393311	
-0.392456	
-0.393494	
-0.393066	
-0.393738	
-0.394287	
-0.395203	
-0.396301	
-0.395569	
-0.395081	
-0.395081	
-0.395508	
-0.394836	
-0.395569	
-0.396362	
-0.395691	
-0.396484	
-0.396179	
-0.395874	
-0.397339	
-0.397583	
-0.398499	
-0.397522	
-0.397095	
-0.397522	
-0.396851	
-0.396423	
-0.39679	
-0.396606	
-0.395935	
-0.39624	
-0.39563	
-0.39447	
-0.395874	
-0.395447	
-0.397034	
-0.39624	
-0.395325	
-0.395447	
-0.394653	
-0.394958	
-0.395386	
-0.394653	
-0.394958	
-0.394836	
-0.394592	
-0.393372	
-0.39447	
-0.394531	
-0.394958	
-0.394348	
-0.393982	
-0.393616	
-0.392883	
-0.39325	
-0.39325	
-0.393066	
-0.391479	
-0.391541	
-0.391602	
-0.390808	
-0.390808	
-0.390869	
-0.39093	
-0.390259	
-0.389648	
-0.389221	
-0.388794	
-0.389771	
-0.388977	
-0.388672	
-0.387634	
-0.387878	
-0.387878	
-0.388672	
-0.388306	
-0.389282	
-0.389465	
-0.389709	
-0.389404	
-0.389465	
-0.388977	
-0.389282	
-0.39032	
-0.389465	
-0.388	
-0.388428	
-0.39032	
-0.389587	
-0.390259	
-0.390625	
	
