E:\DOCUMENTS AND SETTINGS\JPOTAS\MEUS DOCUMENTOS\UFRJ\RSCI-BM 12 WK SERIES\070731-RSCI-BM-12\RSCI-BM-12-LEMG\070731-RSCI-BM-12-LEMG-0014.ACQ
0.025000 msec/sample
1 channel
Analog input
Volts
CH1	
2000	
-0.394043	
-0.394348	
-0.394897	
-0.395264	
-0.395813	
-0.395752	
-0.39563	
-0.395142	
-0.394409	
-0.394775	
-0.395691	
-0.396606	
-0.396118	
-0.395203	
-0.395569	
-0.39502	
-0.396606	
-0.396484	
-0.396545	
-0.396545	
-0.396545	
-0.395081	
-0.396484	
-0.397278	
-0.397705	
-0.396973	
-0.396545	
-0.396851	
-0.39624	
-0.397888	
-0.397705	
-0.397278	
-0.397461	
-0.397034	
-0.396606	
-0.397034	
-0.3974	
-0.398499	
-0.397034	
-0.397095	
-0.396973	
-0.396179	
-0.39679	
-0.398376	
-0.397339	
-0.397766	
-0.397461	
-0.396973	
-0.397156	
-0.396912	
-0.398804	
-0.398132	
-0.397644	
-0.397949	
-0.396667	
-0.397522	
-0.398376	
-0.397583	
-0.3974	
-0.39624	
-0.394958	
-0.394775	
-0.395142	
-0.395996	
-0.395508	
-0.394226	
-0.393982	
-0.393616	
-0.393555	
-0.394897	
-0.39563	
-0.394836	
-0.395508	
-0.394897	
-0.394348	
-0.395325	
-0.39563	
-0.395691	
-0.39502	
-0.39447	
-0.393982	
-0.394714	
-0.39563	
-0.396973	
-0.395752	
-0.39679	
-0.395996	
-0.395203	
-0.397095	
-0.395691	
-0.396545	
-0.396606	
-0.395508	
-0.395874	
-0.396118	
-0.396667	
-0.397278	
-0.396729	
-0.396912	
-0.396912	
-0.39624	
-0.397095	
-0.397217	
-0.397522	
-0.396851	
-0.396729	
-0.397339	
-0.397522	
-0.397522	
-0.398132	
-0.39801	
-0.397766	
-0.398193	
-0.397522	
-0.398376	
-0.398376	
-0.397522	
-0.39856	
-0.398071	
-0.39801	
-0.398376	
-0.398987	
-0.399475	
-0.398376	
-0.398682	
-0.398376	
-0.397949	
-0.398376	
-0.398865	
-0.39679	
-0.39801	
-0.396362	
-0.395874	
-0.395813	
-0.395813	
-0.397095	
-0.396362	
-0.396423	
-0.397034	
-0.39624	
-0.39624	
-0.396851	
-0.395691	
-0.396484	
-0.396179	
-0.39563	
-0.395447	
-0.39563	
-0.396729	
-0.396851	
-0.396545	
-0.396118	
-0.396057	
-0.396545	
-0.397217	
-0.396301	
-0.396484	
-0.39624	
-0.395203	
-0.396667	
-0.396118	
-0.396973	
-0.397156	
-0.396606	
-0.397156	
-0.397278	
-0.396667	
-0.396545	
-0.396362	
-0.395264	
-0.395508	
-0.394226	
-0.39563	
-0.394775	
-0.395386	
-0.394714	
-0.394958	
-0.395386	
-0.395508	
-0.395081	
-0.395569	
-0.39563	
-0.395325	
-0.39563	
-0.395325	
-0.394836	
-0.395264	
-0.395752	
-0.395752	
-0.395142	
-0.394775	
-0.395081	
-0.39502	
-0.395508	
-0.395081	
-0.394592	
-0.39563	
-0.38739	
-0.381897	
-0.381592	
-0.380981	
-0.38208	
-0.381897	
-0.389038	
-0.39386	
-0.395813	
-0.394775	
-0.394897	
-0.39386	
-0.39325	
-0.393311	
-0.392822	
-0.392883	
-0.392822	
-0.393188	
-0.392883	
-0.393311	
-0.393188	
-0.392822	
-0.393677	
-0.39502	
-0.393372	
-0.39386	
-0.393188	
-0.393555	
-0.393921	
-0.393677	
-0.395142	
-0.394714	
-0.394409	
-0.39447	
-0.393738	
-0.394653	
-0.39502	
-0.393738	
-0.393555	
-0.393555	
-0.393005	
-0.393982	
-0.393188	
-0.39502	
-0.394226	
-0.394409	
-0.394531	
-0.394653	
-0.395325	
-0.396606	
-0.395203	
-0.395569	
-0.395264	
-0.395081	
-0.396179	
-0.396118	
-0.397949	
-0.398315	
-0.399902	
-0.401733	
-0.403809	
-0.40686	
-0.411499	
-0.41333	
-0.417053	
-0.420776	
-0.424377	
-0.430786	
-0.435608	
-0.443298	
-0.448853	
-0.455566	
-0.462402	
-0.470703	
-0.47821	
-0.486511	
-0.492554	
-0.498413	
-0.504761	
-0.511719	
-0.516846	
-0.522156	
-0.526917	
-0.529785	
-0.533325	
-0.535583	
-0.538208	
-0.540039	
-0.539368	
-0.539612	
-0.538574	
-0.536743	
-0.53595	
-0.532959	
-0.531677	
-0.53009	
-0.52948	
-0.529175	
-0.529663	
-0.531555	
-0.534302	
-0.535339	
-0.538025	
-0.539917	
-0.542603	
-0.546204	
-0.547729	
-0.551147	
-0.552917	
-0.554016	
-0.554382	
-0.553223	
-0.554443	
-0.554932	
-0.552002	
-0.550232	
-0.545776	
-0.540588	
-0.537109	
-0.531128	
-0.527039	
-0.519653	
-0.512512	
-0.505493	
-0.497803	
-0.49231	
-0.485657	
-0.477295	
-0.470764	
-0.463867	
-0.45697	
-0.451172	
-0.443481	
-0.438538	
-0.431335	
-0.424561	
-0.417725	
-0.410034	
-0.405396	
-0.398315	
-0.389648	
-0.382507	
-0.372986	
-0.365417	
-0.358704	
-0.349915	
-0.343506	
-0.335815	
-0.32959	
-0.322632	
-0.315308	
-0.30957	
-0.304138	
-0.298035	
-0.292603	
-0.286804	
-0.282288	
-0.27887	
-0.275757	
-0.274048	
-0.264893	
-0.25769	
-0.255859	
-0.255005	
-0.256775	
-0.257324	
-0.265808	
-0.272705	
-0.274231	
-0.277466	
-0.280334	
-0.284485	
-0.289001	
-0.293213	
-0.297913	
-0.302551	
-0.307434	
-0.312805	
-0.31604	
-0.319397	
-0.321533	
-0.324768	
-0.327576	
-0.329529	
-0.33252	
-0.333984	
-0.335815	
-0.336792	
-0.338745	
-0.341125	
-0.341614	
-0.342773	
-0.343689	
-0.343933	
-0.347229	
-0.349609	
-0.352661	
-0.353333	
-0.354736	
-0.356079	
-0.356812	
-0.359375	
-0.360107	
-0.360291	
-0.362061	
-0.360535	
-0.362732	
-0.363708	
-0.365662	
-0.366333	
-0.367798	
-0.36853	
-0.36853	
-0.370605	
-0.372192	
-0.371887	
-0.373474	
-0.373779	
-0.376221	
-0.378784	
-0.381836	
-0.385376	
-0.387695	
-0.391052	
-0.394287	
-0.399048	
-0.404846	
-0.409241	
-0.41394	
-0.420227	
-0.424683	
-0.431091	
-0.438293	
-0.445618	
-0.451721	
-0.458252	
-0.463745	
-0.469604	
-0.475708	
-0.480591	
-0.484619	
-0.489319	
-0.491211	
-0.494873	
-0.497437	
-0.498596	
-0.499573	
-0.498718	
-0.497742	
-0.495483	
-0.493713	
-0.492371	
-0.49054	
-0.489014	
-0.488831	
-0.487793	
-0.489441	
-0.490234	
-0.49292	
-0.495361	
-0.497742	
-0.499084	
-0.500122	
-0.503845	
-0.506897	
-0.507813	
-0.509583	
-0.512085	
-0.51178	
-0.513123	
-0.512939	
-0.511108	
-0.510498	
-0.509216	
-0.507019	
-0.504089	
-0.500366	
-0.496338	
-0.490784	
-0.485291	
-0.479858	
-0.473511	
-0.467041	
-0.460205	
-0.45343	
-0.446777	
-0.440613	
-0.434448	
-0.428345	
-0.421875	
-0.415344	
-0.407043	
-0.399536	
-0.391968	
-0.38324	
-0.375244	
-0.367004	
-0.358276	
-0.349487	
-0.341003	
-0.332825	
-0.326111	
-0.319519	
-0.3125	
-0.305603	
-0.299988	
-0.295288	
-0.2901	
-0.286682	
-0.283264	
-0.279968	
-0.278809	
-0.276917	
-0.274597	
-0.274658	
-0.274658	
-0.274231	
-0.273621	
-0.274963	
-0.275391	
-0.277222	
-0.279846	
-0.281738	
-0.284241	
-0.28717	
-0.290039	
-0.294006	
-0.297546	
-0.300903	
-0.304871	
-0.307556	
-0.310608	
-0.313782	
-0.31781	
-0.320923	
-0.322815	
-0.326111	
-0.32843	
-0.330322	
-0.332947	
-0.3349	
-0.336853	
-0.337769	
-0.339417	
-0.341248	
-0.34375	
-0.345276	
-0.346436	
-0.348755	
-0.350037	
-0.35144	
-0.353088	
-0.354065	
-0.355774	
-0.355835	
-0.356018	
-0.358215	
-0.3573	
-0.360168	
-0.360413	
-0.360718	
-0.361816	
-0.361633	
-0.363403	
-0.365234	
-0.365723	
-0.366028	
-0.366516	
-0.368103	
-0.367249	
-0.368896	
-0.369141	
-0.368225	
-0.370117	
-0.370056	
-0.370789	
-0.371582	
-0.371826	
-0.373047	
-0.372131	
-0.372314	
-0.373108	
-0.372681	
-0.374939	
-0.374207	
-0.374512	
-0.374695	
-0.374939	
-0.375916	
-0.376587	
-0.376709	
-0.376465	
-0.376465	
-0.377136	
-0.375488	
-0.377319	
-0.377136	
-0.377502	
-0.377563	
-0.377563	
-0.377991	
-0.378418	
-0.379028	
-0.380249	
-0.37915	
-0.378784	
-0.379822	
-0.378418	
-0.379944	
-0.380005	
-0.378845	
-0.379944	
-0.380249	
-0.380249	
-0.380737	
-0.38092	
-0.382935	
-0.381348	
-0.380981	
-0.380737	
-0.380371	
-0.382385	
-0.380615	
-0.381287	
-0.381287	
-0.381104	
-0.382019	
-0.382507	
-0.38324	
-0.381958	
-0.382263	
-0.381592	
-0.380554	
-0.38269	
-0.381714	
-0.382629	
-0.382263	
-0.382751	
-0.382568	
-0.383118	
-0.383545	
-0.38385	
-0.383606	
-0.383179	
-0.383301	
-0.384277	
-0.383911	
-0.383606	
-0.384033	
-0.383972	
-0.384949	
-0.385742	
-0.38623	
-0.38562	
-0.385681	
-0.385315	
-0.384583	
-0.38623	
-0.385864	
-0.386047	
-0.386108	
-0.385437	
-0.386047	
-0.386597	
-0.386658	
-0.387329	
-0.386719	
-0.385986	
-0.385742	
-0.386841	
-0.388306	
-0.387024	
-0.387268	
-0.38678	
-0.387085	
-0.387634	
-0.388	
-0.388489	
-0.388123	
-0.388672	
-0.387817	
-0.387817	
-0.388855	
-0.388367	
-0.388489	
-0.388184	
-0.387756	
-0.388977	
-0.389954	
-0.390747	
-0.389038	
-0.389954	
-0.388123	
-0.389343	
-0.390076	
-0.388794	
-0.390137	
-0.390381	
-0.390015	
-0.390442	
-0.39032	
-0.391541	
-0.391479	
-0.390625	
-0.390686	
-0.389771	
-0.389954	
-0.390442	
-0.390503	
-0.390381	
-0.390259	
-0.389343	
-0.390747	
-0.390564	
-0.392212	
-0.390442	
-0.390991	
-0.390747	
-0.389954	
-0.390869	
-0.391968	
-0.391235	
-0.391663	
-0.391418	
-0.390503	
-0.391479	
-0.391663	
-0.3927	
-0.390747	
-0.389832	
-0.389221	
-0.386902	
-0.389038	
-0.389771	
-0.389038	
-0.389404	
-0.388855	
-0.388428	
-0.389648	
-0.390259	
-0.391113	
-0.389465	
-0.389709	
-0.388916	
-0.388672	
-0.389282	
-0.389648	
-0.389648	
-0.389648	
-0.389648	
-0.390259	
-0.390442	
-0.391602	
-0.390686	
-0.390747	
-0.391602	
-0.390442	
-0.391235	
-0.391541	
-0.391357	
-0.391663	
-0.391541	
-0.390869	
-0.391724	
-0.392212	
-0.393372	
-0.391846	
-0.392334	
-0.392517	
-0.390625	
-0.39325	
-0.39386	
-0.393433	
-0.393616	
-0.393433	
-0.3927	
-0.393555	
-0.394287	
-0.395142	
-0.393982	
-0.394714	
-0.393127	
-0.394226	
-0.394714	
-0.393799	
-0.394958	
-0.394653	
-0.39447	
-0.394775	
-0.394958	
-0.396912	
-0.395569	
-0.395996	
-0.395142	
-0.393738	
-0.395264	
-0.395325	
-0.394287	
-0.39447	
-0.394409	
-0.394104	
-0.39447	
-0.394653	
-0.394592	
-0.393677	
-0.39386	
-0.392334	
-0.392639	
-0.394287	
-0.393799	
-0.394226	
-0.393677	
-0.393433	
-0.393616	
-0.39447	
-0.394897	
-0.394653	
-0.393799	
-0.394287	
-0.392944	
-0.392883	
-0.394531	
-0.39386	
-0.394348	
-0.394226	
-0.393799	
-0.394714	
-0.394958	
-0.39563	
-0.395264	
-0.394409	
-0.394714	
-0.394287	
-0.393555	
-0.395386	
-0.393982	
-0.394348	
-0.394287	
-0.39386	
-0.393677	
-0.394287	
-0.393982	
-0.394348	
-0.393433	
-0.393433	
-0.393188	
-0.392578	
-0.394287	
-0.392944	
-0.39325	
-0.39325	
-0.393677	
-0.393799	
-0.394592	
-0.393738	
-0.394775	
-0.39386	
-0.393311	
-0.393677	
-0.392761	
-0.394226	
-0.392273	
-0.39325	
-0.393433	
-0.392944	
-0.393738	
-0.394775	
-0.393799	
-0.393433	
-0.392883	
-0.392151	
-0.392883	
-0.391907	
-0.393738	
-0.391663	
-0.392578	
-0.392334	
-0.391785	
-0.39209	
-0.393066	
-0.392029	
-0.392456	
-0.391296	
-0.390259	
-0.391418	
-0.390869	
-0.392273	
-0.391174	
-0.391968	
-0.392639	
-0.393005	
-0.392944	
-0.393921	
-0.393005	
-0.393494	
-0.393188	
-0.392944	
-0.393616	
-0.393127	
-0.393921	
-0.393311	
-0.393372	
-0.392944	
-0.393311	
-0.393372	
-0.393677	
-0.393555	
-0.393555	
-0.3927	
-0.393005	
-0.393066	
-0.394043	
-0.393066	
-0.393127	
-0.393555	
-0.392517	
-0.393127	
-0.393311	
-0.39325	
-0.393799	
-0.393188	
-0.393188	
-0.393433	
-0.39325	
-0.394409	
-0.392395	
-0.393188	
-0.393372	
-0.392456	
-0.393433	
-0.394653	
-0.393555	
-0.393982	
-0.393616	
-0.391968	
-0.393433	
-0.393311	
-0.394226	
-0.3927	
-0.393372	
-0.393127	
-0.392639	
-0.393616	
-0.394897	
-0.392944	
-0.392517	
-0.393005	
-0.392273	
-0.393311	
-0.393127	
-0.39386	
-0.39325	
-0.393616	
-0.393799	
-0.393188	
-0.39447	
-0.395508	
-0.394714	
-0.395264	
-0.394531	
-0.394592	
-0.395081	
-0.394287	
-0.395569	
-0.393738	
-0.394592	
-0.395081	
-0.394531	
-0.395447	
-0.395813	
-0.394897	
-0.394897	
-0.394104	
-0.394287	
-0.394287	
-0.394043	
-0.394836	
-0.393677	
-0.394104	
-0.393738	
-0.393677	
-0.394958	
-0.394653	
-0.393677	
-0.39386	
-0.393799	
-0.394287	
-0.393372	
-0.393311	
-0.393982	
-0.392212	
-0.393372	
-0.39386	
-0.392517	
-0.393799	
-0.39386	
-0.393433	
-0.393738	
-0.393616	
-0.39447	
-0.393555	
-0.393433	
-0.393616	
-0.392639	
-0.393616	
-0.393494	
-0.393433	
-0.39447	
-0.39386	
-0.393433	
-0.394043	
-0.394409	
-0.393555	
-0.393127	
-0.393372	
-0.393188	
-0.391663	
-0.392822	
-0.39325	
-0.392639	
-0.393433	
-0.392517	
-0.392639	
-0.3927	
-0.392212	
-0.392883	
-0.391968	
-0.391479	
-0.392029	
-0.390442	
-0.391907	
-0.391052	
-0.390991	
-0.39325	
-0.391357	
-0.391174	
-0.391541	
-0.390015	
-0.392151	
-0.39209	
-0.391663	
-0.391357	
-0.390015	
-0.391418	
-0.390869	
-0.389893	
-0.392578	
-0.391357	
-0.391052	
-0.391357	
-0.390076	
-0.392395	
-0.390442	
-0.390869	
-0.39093	
-0.389404	
-0.390442	
-0.39032	
-0.390442	
-0.3927	
-0.391113	
-0.391724	
-0.392578	
-0.391296	
-0.393799	
-0.393188	
-0.39325	
-0.393433	
-0.391968	
-0.3927	
-0.392578	
-0.392151	
-0.394043	
-0.392944	
-0.392517	
-0.392334	
-0.390991	
-0.394165	
-0.393066	
-0.392273	
-0.393433	
-0.391602	
-0.392334	
-0.391663	
-0.392029	
-0.393188	
-0.391907	
-0.391602	
-0.391663	
-0.389832	
-0.392456	
-0.391663	
-0.391235	
-0.391357	
-0.390381	
-0.391113	
-0.391174	
-0.391418	
-0.392395	
-0.391113	
-0.39093	
-0.390747	
-0.389771	
-0.391174	
-0.390503	
-0.390137	
-0.390808	
-0.389893	
-0.389954	
-0.390259	
-0.390503	
-0.391541	
-0.389587	
-0.389648	
-0.390076	
-0.388062	
-0.390198	
-0.388977	
-0.389038	
-0.389893	
-0.389465	
-0.389893	
-0.389771	
-0.390625	
-0.392212	
-0.39032	
-0.390564	
-0.390686	
-0.388672	
-0.391052	
-0.390381	
-0.390137	
-0.391235	
-0.391296	
-0.390869	
-0.391174	
-0.390991	
-0.392517	
-0.390747	
-0.390991	
-0.391663	
-0.389282	
-0.391479	
-0.390869	
-0.390625	
-0.390808	
-0.390381	
-0.39032	
-0.390686	
-0.391235	
-0.392456	
-0.391113	
-0.391296	
-0.391113	
-0.389404	
-0.390808	
-0.390625	
-0.390137	
-0.390808	
-0.390503	
-0.390137	
-0.39032	
-0.390686	
-0.392212	
-0.390198	
-0.390442	
-0.390808	
-0.389404	
-0.390686	
-0.390442	
-0.390747	
-0.390991	
-0.39093	
-0.391663	
-0.391113	
-0.391907	
-0.392822	
-0.391663	
-0.391846	
-0.391968	
-0.390137	
-0.391357	
-0.391235	
-0.391479	
-0.391296	
-0.391357	
-0.391357	
-0.391418	
-0.391174	
-0.39209	
-0.391235	
-0.391418	
-0.391541	
-0.390076	
-0.391663	
-0.391357	
-0.391052	
-0.391724	
-0.391602	
-0.391174	
-0.391296	
-0.391968	
-0.392761	
-0.391724	
-0.391907	
-0.392273	
-0.391907	
-0.392578	
-0.392273	
-0.392273	
-0.3927	
-0.393372	
-0.392517	
-0.392944	
-0.393616	
-0.394653	
-0.393311	
-0.393433	
-0.39325	
-0.392639	
-0.393799	
-0.393127	
-0.392456	
-0.392578	
-0.392883	
-0.392578	
-0.391785	
-0.392822	
-0.393677	
-0.391418	
-0.391663	
-0.391296	
-0.391541	
-0.391968	
-0.391846	
-0.392578	
-0.391663	
-0.391785	
-0.391602	
-0.390869	
-0.392151	
-0.392517	
-0.391174	
-0.391052	
-0.391174	
-0.391296	
-0.391174	
-0.391479	
-0.391907	
-0.391907	
-0.391479	
-0.391357	
-0.390869	
-0.392456	
-0.393188	
-0.391235	
-0.391479	
-0.391418	
-0.390686	
-0.391235	
-0.390686	
-0.391785	
-0.390869	
-0.391296	
-0.390808	
-0.390198	
-0.391418	
-0.393066	
-0.391357	
-0.391296	
-0.391541	
-0.389954	
-0.391846	
-0.391296	
-0.391296	
-0.39032	
-0.390991	
-0.391235	
-0.390686	
-0.391968	
-0.393433	
-0.391663	
-0.391968	
-0.392029	
-0.389282	
-0.39093	
-0.390564	
-0.391724	
-0.390747	
-0.390869	
-0.391296	
-0.390686	
-0.391724	
-0.393127	
-0.390869	
-0.390686	
-0.391113	
-0.388977	
-0.390869	
-0.390808	
-0.390747	
-0.390076	
-0.390015	
-0.390442	
-0.390442	
-0.391174	
-0.391968	
-0.390747	
-0.390686	
-0.390869	
-0.389526	
-0.390381	
-0.391174	
-0.390991	
-0.390625	
-0.390991	
-0.390991	
-0.391052	
-0.391235	
-0.392273	
-0.391418	
-0.391968	
-0.391724	
-0.391113	
-0.391541	
-0.391785	
-0.391479	
-0.390564	
-0.391418	
-0.39093	
-0.391479	
-0.391724	
-0.392639	
-0.391541	
-0.391357	
-0.391724	
-0.391296	
-0.391296	
-0.391663	
-0.391296	
-0.39032	
-0.391052	
-0.390991	
-0.391724	
-0.391968	
-0.392822	
-0.392273	
-0.392273	
-0.392151	
-0.391479	
-0.392212	
-0.393005	
-0.391785	
-0.391785	
-0.392212	
-0.392395	
-0.392578	
-0.392639	
-0.393738	
-0.394165	
-0.393494	
-0.393982	
-0.392822	
-0.393616	
-0.394409	
-0.393433	
-0.3927	
-0.393494	
-0.392944	
-0.393982	
-0.394165	
-0.39502	
-0.395081	
-0.394043	
-0.394226	
-0.393066	
-0.394165	
-0.394897	
-0.394165	
-0.393494	
-0.39386	
-0.392883	
-0.394531	
-0.394104	
-0.394897	
-0.394775	
-0.394409	
-0.394897	
-0.394043	
-0.394714	
-0.395203	
-0.394409	
-0.39386	
-0.393677	
-0.393127	
-0.39325	
-0.392578	
-0.392578	
-0.39209	
-0.392151	
-0.391846	
-0.392639	
-0.392456	
-0.3927	
-0.391602	
-0.392029	
-0.391907	
-0.391479	
-0.392273	
-0.392334	
-0.392761	
-0.392029	
-0.392395	
-0.392761	
-0.392822	
-0.392822	
-0.39325	
-0.392517	
-0.392883	
-0.392761	
-0.391846	
-0.393616	
-0.39386	
-0.393921	
-0.39325	
-0.393311	
-0.394043	
-0.394409	
-0.394409	
-0.394836	
-0.39386	
-0.394043	
-0.394165	
-0.393372	
-0.394775	
-0.394653	
-0.395508	
-0.394653	
-0.394836	
-0.395325	
-0.396057	
-0.395874	
-0.396362	
-0.395447	
-0.395203	
-0.395203	
-0.39447	
-0.395691	
-0.396484	
-0.396545	
-0.396301	
-0.396362	
-0.396667	
-0.397827	
-0.397156	
-0.397705	
-0.396912	
-0.395935	
-0.39679	
-0.396545	
-0.396851	
-0.397461	
-0.39679	
-0.396729	
-0.396057	
-0.395569	
-0.396667	
-0.395569	
-0.395325	
-0.394775	
-0.39386	
-0.394836	
-0.394592	
-0.394836	
-0.395142	
-0.394958	
-0.394836	
-0.394897	
-0.394531	
-0.396362	
-0.396118	
-0.395203	
-0.39447	
-0.39386	
-0.395081	
-0.395264	
-0.395081	
-0.395264	
-0.395264	
-0.395386	
-0.395264	
-0.393921	
-0.396057	
-0.396667	
-0.395569	
-0.39502	
-0.394714	
-0.395203	
-0.395325	
-0.395691	
-0.396606	
-0.395752	
-0.395447	
-0.395142	
-0.394226	
-0.395325	
-0.395813	
-0.394714	
-0.394348	
-0.393921	
-0.392639	
-0.394165	
-0.394226	
-0.395081	
-0.394165	
-0.39447	
-0.394104	
-0.393799	
-0.395081	
-0.395386	
-0.394409	
-0.394775	
-0.394104	
-0.393494	
-0.394836	
-0.394775	
-0.395264	
-0.394836	
-0.395081	
-0.394226	
-0.393372	
-0.394836	
-0.395691	
-0.394165	
-0.393799	
-0.393799	
-0.393555	
-0.394104	
-0.393921	
-0.394592	
-0.393921	
-0.393616	
-0.393616	
-0.391968	
-0.392944	
-0.394104	
-0.393188	
-0.392761	
-0.39209	
-0.391846	
-0.392029	
-0.392578	
-0.393127	
-0.392883	
-0.392517	
-0.39325	
-0.392822	
-0.393188	
-0.394226	
-0.39386	
-0.393494	
-0.393555	
-0.393494	
-0.394409	
-0.394653	
-0.395752	
-0.395203	
-0.394165	
-0.39386	
-0.393616	
-0.393066	
-0.394409	
-0.394653	
-0.393738	
-0.393616	
-0.392883	
-0.393799	
-0.394043	
-0.394775	
-0.394775	
-0.394043	
-0.394104	
-0.393616	
-0.39325	
-0.395325	
-0.394653	
-0.39386	
-0.393799	
-0.393005	
-0.393311	
-0.393982	
-0.395142	
-0.394226	
-0.393921	
-0.394104	
-0.393799	
-0.39386	
-0.395569	
-0.39502	
-0.393982	
-0.394104	
-0.392639	
-0.393188	
-0.394897	
-0.395264	
-0.394653	
-0.394226	
-0.394165	
-0.393677	
-0.393494	
-0.395325	
-0.394958	
-0.394104	
-0.394165	
-0.392883	
-0.393738	
-0.394409	
-0.39563	
-0.394958	
-0.394531	
-0.39502	
-0.394104	
-0.394897	
-0.396423	
-0.396301	
-0.395813	
-0.395691	
-0.39502	
-0.395752	
-0.395935	
-0.396362	
-0.396301	
-0.396057	
-0.396667	
-0.395142	
-0.395142	
-0.396973	
-0.39679	
-0.395447	
-0.395203	
-0.39386	
-0.395142	
-0.395386	
-0.396057	
-0.395691	
-0.394836	
-0.394958	
-0.39447	
-0.395081	
-0.395874	
-0.39624	
-0.395264	
-0.394836	
-0.393188	
-0.393311	
-0.395447	
-0.395386	
-0.395325	
-0.394287	
-0.394592	
-0.393555	
-0.394287	
-0.39563	
-0.396118	
-0.394775	
-0.394958	
-0.393921	
-0.393677	
-0.394775	
-0.39563	
-0.395325	
-0.394836	
-0.394836	
-0.394348	
-0.395081	
-0.395203	
-0.396057	
-0.394714	
-0.394104	
-0.393616	
-0.394287	
-0.394531	
-0.395142	
-0.394714	
-0.394348	
-0.394104	
-0.393677	
-0.392822	
-0.394287	
-0.395081	
-0.394104	
-0.393372	
-0.392822	
-0.392578	
-0.392578	
-0.394409	
-0.39325	
-0.3927	
-0.392456	
-0.392212	
-0.392029	
-0.393311	
-0.393677	
-0.393616	
-0.392822	
-0.392334	
-0.391785	
-0.392761	
-0.393494	
-0.393066	
-0.392273	
-0.392517	
-0.391296	
-0.392639	
-0.39325	
-0.393677	
-0.393494	
-0.392517	
-0.391907	
-0.390869	
-0.391785	
-0.392761	
-0.392578	
-0.392334	
-0.391846	
-0.391602	
-0.392273	
-0.393616	
-0.394775	
-0.395264	
-0.394348	
-0.394409	
-0.393799	
-0.393982	
-0.395569	
-0.39447	
-0.394897	
-0.394226	
-0.393311	
-0.394104	
-0.39447	
-0.395203	
-0.395203	
-0.394287	
-0.394104	
-0.393188	
-0.393494	
-0.395264	
-0.39447	
-0.394165	
-0.393982	
-0.393127	
-0.393677	
-0.39386	
-0.394531	
-0.394348	
-0.393311	
-0.392639	
-0.391663	
-0.391907	
-0.393311	
-0.393005	
-0.393433	
-0.39325	
-0.392639	
-0.392639	
-0.392822	
-0.394287	
-0.393555	
-0.392578	
-0.391724	
-0.390686	
-0.390747	
-0.39209	
-0.392273	
-0.392029	
-0.391174	
-0.391174	
-0.391296	
-0.391846	
-0.393372	
-0.39209	
-0.390625	
-0.390259	
-0.390015	
-0.390076	
-0.391785	
-0.391602	
-0.392151	
-0.391907	
-0.391785	
-0.39209	
-0.392273	
-0.39386	
-0.392883	
-0.392273	
-0.391785	
-0.391663	
-0.391541	
-0.392639	
-0.394043	
-0.394043	
-0.393188	
-0.393066	
-0.392334	
-0.392761	
-0.394592	
-0.393982	
-0.392761	
-0.392334	
-0.391724	
-0.391724	
-0.392761	
-0.393555	
-0.394104	
-0.393005	
-0.391907	
-0.39209	
-0.392944	
-0.394104	
-0.392822	
-0.392456	
-0.392151	
-0.391296	
-0.391907	
-0.392517	
-0.393372	
-0.393188	
-0.392212	
-0.392029	
-0.391052	
-0.392822	
-0.393738	
-0.392578	
-0.391968	
-0.392273	
-0.390808	
-0.391968	
-0.392883	
-0.394043	
-0.39386	
-0.392761	
-0.392517	
-0.392151	
-0.393311	
-0.394165	
-0.393555	
-0.393433	
-0.392761	
-0.392029	
-0.392578	
-0.392883	
-0.393677	
-0.393738	
-0.392578	
-0.392883	
-0.392151	
-0.391907	
-0.394226	
-0.3927	
-0.392761	
-0.392334	
-0.391602	
-0.392578	
-0.392334	
-0.393616	
-0.393738	
-0.392883	
-0.392944	
-0.392395	
-0.392151	
-0.39447	
-0.393127	
-0.393555	
-0.393005	
-0.392395	
-0.39325	
-0.394531	
-0.39447	
-0.395081	
-0.394287	
-0.394531	
-0.393921	
-0.393616	
-0.395569	
-0.394958	
-0.39447	
-0.393799	
-0.3927	
-0.39325	
-0.393738	
-0.394165	
-0.393982	
-0.392883	
-0.392578	
-0.392029	
-0.391602	
-0.393616	
-0.392517	
-0.392517	
-0.392273	
-0.39093	
-0.392517	
-0.392883	
-0.392761	
-0.393005	
-0.392212	
-0.392029	
-0.391418	
-0.391541	
-0.393433	
-0.392639	
-0.392578	
-0.391968	
-0.390808	
-0.392151	
-0.391968	
-0.392883	
-0.392334	
-0.39209	
-0.391907	
-0.391479	
-0.391785	
-0.393005	
-0.391968	
-0.393188	
-0.391479	
-0.390686	
-0.391968	
-0.391907	
-0.392212	
-0.391785	
-0.391602	
-0.391785	
-0.391113	
-0.391785	
-0.393005	
-0.392029	
-0.392273	
-0.391602	
-0.390564	
-0.391479	
-0.391602	
-0.392761	
-0.392456	
-0.392334	
-0.391846	
-0.391357	
-0.391907	
-0.39325	
-0.391663	
-0.392212	
-0.391724	
-0.390137	
-0.391174	
-0.391541	
-0.392212	
-0.391724	
-0.392822	
-0.391357	
-0.390991	
-0.391296	
-0.392395	
-0.391174	
-0.391235	
-0.390991	
-0.388916	
-0.391052	
-0.390442	
-0.391541	
-0.390991	
-0.391846	
-0.390869	
-0.389954	
-0.391174	
-0.390991	
-0.391113	
-0.391907	
-0.390564	
-0.388794	
-0.39093	
-0.391296	
-0.391907	
-0.391418	
-0.392639	
-0.391846	
-0.391235	
-0.392334	
-0.393372	
-0.39209	
-0.392212	
-0.391907	
-0.390076	
-0.392029	
-0.391968	
-0.392029	
-0.39209	
-0.392395	
-0.391907	
-0.391541	
-0.391846	
-0.392883	
-0.392517	
	
