C:\DOCUMENTS AND SETTINGS\JASON\DESKTOP\UFRJ\UFRJ EPHYS\RSCI-BM 12 WK SERIES\070806-RSCI-BM-16\RSCI-BM-16-REMG\070806-RSCI-BM-16-REMG-0009.ACQ
0.025000 msec/sample
1 channel
Analog input
Volts
CH1	
2000	
-0.383118	
-0.382751	
-0.382751	
-0.383057	
-0.38324	
-0.38324	
-0.383301	
-0.383118	
-0.383484	
-0.382996	
-0.382813	
-0.382202	
-0.381958	
-0.38269	
-0.382385	
-0.382629	
-0.382751	
-0.382385	
-0.382385	
-0.382385	
-0.382446	
-0.381714	
-0.382141	
-0.382324	
-0.382385	
-0.382751	
-0.383057	
-0.382568	
-0.383667	
-0.382568	
-0.382874	
-0.382019	
-0.382629	
-0.382813	
-0.382813	
-0.383423	
-0.383423	
-0.383057	
-0.383728	
-0.382996	
-0.383118	
-0.381287	
-0.382202	
-0.383179	
-0.383179	
-0.38385	
-0.383545	
-0.382385	
-0.382751	
-0.382568	
-0.382019	
-0.380859	
-0.381226	
-0.381531	
-0.381592	
-0.382202	
-0.382568	
-0.381287	
-0.381897	
-0.381104	
-0.381104	
-0.380127	
-0.380737	
-0.381104	
-0.38147	
-0.381409	
-0.382263	
-0.381287	
-0.382263	
-0.380493	
-0.381042	
-0.380249	
-0.381348	
-0.381775	
-0.381775	
-0.381226	
-0.38208	
-0.381287	
-0.382202	
-0.380554	
-0.381348	
-0.38092	
-0.38147	
-0.382141	
-0.382263	
-0.381775	
-0.382568	
-0.381958	
-0.382385	
-0.38147	
-0.382019	
-0.382324	
-0.38269	
-0.382813	
-0.383423	
-0.382935	
-0.383179	
-0.382751	
-0.382751	
-0.382385	
-0.381836	
-0.382202	
-0.382141	
-0.382019	
-0.382996	
-0.381775	
-0.381653	
-0.381165	
-0.38147	
-0.381104	
-0.380188	
-0.380493	
-0.38092	
-0.380615	
-0.381287	
-0.380615	
-0.380615	
-0.380066	
-0.380005	
-0.380066	
-0.378662	
-0.379456	
-0.379822	
-0.380249	
-0.38092	
-0.380249	
-0.380554	
-0.380859	
-0.38092	
-0.380554	
-0.378845	
-0.380249	
-0.380432	
-0.381042	
-0.381104	
-0.380188	
-0.38031	
-0.382019	
-0.380798	
-0.380127	
-0.378723	
-0.380127	
-0.380737	
-0.380981	
-0.381287	
-0.381531	
-0.381104	
-0.382751	
-0.381592	
-0.380371	
-0.380676	
-0.379822	
-0.381287	
-0.380798	
-0.381226	
-0.381592	
-0.380798	
-0.382202	
-0.381714	
-0.381409	
-0.381409	
-0.38092	
-0.382141	
-0.38208	
-0.381592	
-0.382568	
-0.382019	
-0.382141	
-0.381958	
-0.38147	
-0.381287	
-0.380554	
-0.381104	
-0.381409	
-0.381287	
-0.381775	
-0.38147	
-0.381104	
-0.380554	
-0.380615	
-0.381104	
-0.381104	
-0.38147	
-0.382324	
-0.381165	
-0.382141	
-0.380371	
-0.380859	
-0.380615	
-0.38031	
-0.381042	
-0.38092	
-0.381409	
-0.381836	
-0.380554	
-0.381653	
-0.380493	
-0.372681	
-0.366333	
-0.365051	
-0.366394	
-0.366333	
-0.366516	
-0.375854	
-0.380493	
-0.381592	
-0.381958	
-0.380615	
-0.380005	
-0.378113	
-0.379822	
-0.379883	
-0.379822	
-0.379822	
-0.379883	
-0.379944	
-0.381042	
-0.379211	
-0.378906	
-0.377502	
-0.379211	
-0.379761	
-0.379883	
-0.379822	
-0.380188	
-0.379761	
-0.381165	
-0.380127	
-0.379822	
-0.378845	
-0.380066	
-0.380188	
-0.38031	
-0.38031	
-0.380432	
-0.380493	
-0.38147	
-0.380493	
-0.380615	
-0.380371	
-0.380737	
-0.380737	
-0.381714	
-0.381592	
-0.381653	
-0.38208	
-0.382507	
-0.382507	
-0.381714	
-0.382141	
-0.381592	
-0.382629	
-0.382874	
-0.38208	
-0.382141	
-0.381714	
-0.381897	
-0.382141	
-0.381226	
-0.381592	
-0.380798	
-0.381714	
-0.382324	
-0.381042	
-0.381409	
-0.380676	
-0.380249	
-0.380676	
-0.379028	
-0.3797	
-0.378723	
-0.378967	
-0.379639	
-0.37854	
-0.379272	
-0.379456	
-0.378845	
-0.379089	
-0.37793	
-0.379211	
-0.378357	
-0.379517	
-0.380005	
-0.379211	
-0.380188	
-0.380859	
-0.380371	
-0.379089	
-0.378723	
-0.380127	
-0.380798	
-0.381531	
-0.381653	
-0.382446	
-0.383667	
-0.385132	
-0.384521	
-0.384399	
-0.38501	
-0.387146	
-0.388428	
-0.390015	
-0.391052	
-0.3927	
-0.393616	
-0.395935	
-0.396973	
-0.398499	
-0.400452	
-0.401611	
-0.404724	
-0.407227	
-0.408508	
-0.410828	
-0.411743	
-0.412964	
-0.412842	
-0.414917	
-0.41626	
-0.417358	
-0.418518	
-0.418884	
-0.419067	
-0.419556	
-0.419678	
-0.419312	
-0.41803	
-0.418457	
-0.416992	
-0.418396	
-0.419678	
-0.419739	
-0.421387	
-0.422058	
-0.424072	
-0.425537	
-0.427917	
-0.431335	
-0.43396	
-0.436279	
-0.438049	
-0.439758	
-0.442322	
-0.444946	
-0.44574	
-0.446228	
-0.447876	
-0.449524	
-0.450989	
-0.452209	
-0.452759	
-0.453369	
-0.453796	
-0.454712	
-0.453857	
-0.45282	
-0.451721	
-0.443542	
-0.436462	
-0.43512	
-0.433716	
-0.432251	
-0.430542	
-0.438293	
-0.44165	
-0.439941	
-0.438843	
-0.436523	
-0.436096	
-0.435059	
-0.433228	
-0.432068	
-0.430481	
-0.429626	
-0.429016	
-0.427979	
-0.427673	
-0.427673	
-0.426758	
-0.427734	
-0.427246	
-0.427917	
-0.427917	
-0.42749	
-0.427002	
-0.42572	
-0.426086	
-0.426086	
-0.424805	
-0.424011	
-0.421753	
-0.420288	
-0.418274	
-0.414551	
-0.409729	
-0.405884	
-0.40448	
-0.400452	
-0.397217	
-0.393433	
-0.389893	
-0.387573	
-0.384949	
-0.380798	
-0.377014	
-0.374207	
-0.372253	
-0.369751	
-0.368347	
-0.365967	
-0.363831	
-0.362976	
-0.361633	
-0.35968	
-0.357727	
-0.35614	
-0.355652	
-0.354797	
-0.354614	
-0.352844	
-0.352356	
-0.351196	
-0.349976	
-0.348938	
-0.346558	
-0.345764	
-0.343384	
-0.343506	
-0.342957	
-0.341736	
-0.341431	
-0.340271	
-0.340393	
-0.340454	
-0.33844	
-0.339478	
-0.340332	
-0.340393	
-0.340576	
-0.34137	
-0.342529	
-0.343872	
-0.343262	
-0.342712	
-0.343689	
-0.345093	
-0.346191	
-0.3479	
-0.347839	
-0.348755	
-0.350098	
-0.35083	
-0.352112	
-0.352356	
-0.35437	
-0.354431	
-0.35675	
-0.358582	
-0.359436	
-0.360779	
-0.363831	
-0.364075	
-0.36554	
-0.365784	
-0.368713	
-0.370239	
-0.371826	
-0.372925	
-0.374817	
-0.37677	
-0.37793	
-0.379761	
-0.380249	
-0.38269	
-0.383484	
-0.384766	
-0.386169	
-0.386047	
-0.386841	
-0.387939	
-0.387634	
-0.388184	
-0.386353	
-0.387878	
-0.386841	
-0.388184	
-0.388489	
-0.389404	
-0.391174	
-0.394104	
-0.394165	
-0.394958	
-0.39679	
-0.399597	
-0.402222	
-0.40509	
-0.406433	
-0.408691	
-0.410706	
-0.412964	
-0.415039	
-0.415405	
-0.417725	
-0.418823	
-0.421143	
-0.422852	
-0.423279	
-0.424377	
-0.426392	
-0.426025	
-0.427063	
-0.426331	
-0.426453	
-0.426208	
-0.426147	
-0.425232	
-0.424622	
-0.424683	
-0.424316	
-0.423218	
-0.420959	
-0.421082	
-0.420166	
-0.419678	
-0.41925	
-0.418152	
-0.417419	
-0.417175	
-0.41571	
-0.415649	
-0.414063	
-0.414001	
-0.412842	
-0.413269	
-0.41272	
-0.412598	
-0.412659	
-0.412476	
-0.411072	
-0.409058	
-0.40918	
-0.408752	
-0.408142	
-0.408203	
-0.406189	
-0.40564	
-0.404785	
-0.402527	
-0.401062	
-0.39801	
-0.397522	
-0.393738	
-0.392639	
-0.390015	
-0.387756	
-0.385559	
-0.383423	
-0.380981	
-0.378235	
-0.37561	
-0.373535	
-0.370911	
-0.369141	
-0.365784	
-0.363708	
-0.361267	
-0.359375	
-0.356628	
-0.353577	
-0.351135	
-0.349731	
-0.348755	
-0.348206	
-0.346375	
-0.34613	
-0.345947	
-0.34552	
-0.344299	
-0.343384	
-0.343506	
-0.343811	
-0.343933	
-0.343933	
-0.343933	
-0.343872	
-0.344055	
-0.343079	
-0.342957	
-0.341492	
-0.342651	
-0.342712	
-0.342957	
-0.342773	
-0.342834	
-0.342773	
-0.343384	
-0.342896	
-0.343201	
-0.343567	
-0.344482	
-0.345276	
-0.346619	
-0.347534	
-0.347717	
-0.349609	
-0.350403	
-0.350159	
-0.350281	
-0.350586	
-0.351624	
-0.352661	
-0.352722	
-0.353821	
-0.35437	
-0.356323	
-0.355347	
-0.35675	
-0.356934	
-0.357788	
-0.357056	
-0.359802	
-0.359253	
-0.359863	
-0.360535	
-0.361145	
-0.360596	
-0.361206	
-0.361023	
-0.361938	
-0.362366	
-0.36261	
-0.363098	
-0.36322	
-0.364258	
-0.364197	
-0.363708	
-0.36261	
-0.363281	
-0.362305	
-0.363403	
-0.362671	
-0.362854	
-0.362305	
-0.362671	
-0.362244	
-0.361328	
-0.362122	
-0.362244	
-0.362549	
-0.362732	
-0.362366	
-0.362488	
-0.363647	
-0.363586	
-0.362793	
-0.361816	
-0.362	
-0.362732	
-0.363892	
-0.363831	
-0.364075	
-0.364563	
-0.364807	
-0.364868	
-0.364929	
-0.36554	
-0.365906	
-0.366882	
-0.367737	
-0.367249	
-0.367432	
-0.368286	
-0.368286	
-0.368286	
-0.367188	
-0.368286	
-0.369019	
-0.369324	
-0.368958	
-0.369507	
-0.370056	
-0.370728	
-0.371399	
-0.371033	
-0.371216	
-0.370483	
-0.371216	
-0.37207	
-0.37262	
-0.372925	
-0.373718	
-0.373657	
-0.374207	
-0.374451	
-0.374817	
-0.374695	
-0.375366	
-0.375549	
-0.375244	
-0.374756	
-0.37561	
-0.374756	
-0.374512	
-0.372559	
-0.374146	
-0.374207	
-0.374268	
-0.374878	
-0.374207	
-0.374329	
-0.374573	
-0.37439	
-0.374268	
-0.37439	
-0.373657	
-0.373535	
-0.374207	
-0.374146	
-0.374084	
-0.375061	
-0.374695	
-0.375183	
-0.373901	
-0.374451	
-0.374695	
-0.375366	
-0.376526	
-0.376282	
-0.376221	
-0.376404	
-0.376648	
-0.37677	
-0.37677	
-0.377258	
-0.377502	
-0.377686	
-0.378418	
-0.378235	
-0.378235	
-0.378418	
-0.378662	
-0.378967	
-0.378418	
-0.379028	
-0.378418	
-0.379028	
-0.379272	
-0.379089	
-0.379883	
-0.379395	
-0.380005	
-0.378845	
-0.379028	
-0.378357	
-0.379333	
-0.380371	
-0.379761	
-0.380066	
-0.380676	
-0.3797	
-0.381226	
-0.379395	
-0.380127	
-0.379517	
-0.380615	
-0.38092	
-0.380676	
-0.380859	
-0.381042	
-0.380981	
-0.381287	
-0.380188	
-0.38031	
-0.379089	
-0.380432	
-0.380127	
-0.380127	
-0.380676	
-0.379883	
-0.380005	
-0.379517	
-0.379639	
-0.379639	
-0.379395	
-0.379944	
-0.379272	
-0.379272	
-0.378723	
-0.378723	
-0.379395	
-0.377625	
-0.378906	
-0.378723	
-0.379089	
-0.380066	
-0.378967	
-0.379456	
-0.378723	
-0.378906	
-0.379456	
-0.37854	
-0.378235	
-0.375732	
-0.377991	
-0.377869	
-0.377869	
-0.378479	
-0.377808	
-0.378174	
-0.378296	
-0.37793	
-0.37793	
-0.378113	
-0.378845	
-0.378479	
-0.378723	
-0.379211	
-0.378967	
-0.379456	
-0.378235	
-0.379333	
-0.379028	
-0.378906	
-0.379395	
-0.379761	
-0.380432	
-0.380066	
-0.379883	
-0.38092	
-0.38031	
-0.380493	
-0.37854	
-0.381042	
-0.38147	
-0.380432	
-0.381836	
-0.379517	
-0.380798	
-0.380493	
-0.380554	
-0.38031	
-0.380127	
-0.381165	
-0.380737	
-0.381042	
-0.381714	
-0.381348	
-0.381531	
-0.380798	
-0.381836	
-0.381165	
-0.382202	
-0.38208	
-0.382263	
-0.383057	
-0.381958	
-0.382507	
-0.382629	
-0.382324	
-0.382141	
-0.380798	
-0.382446	
-0.382813	
-0.382446	
-0.382935	
-0.380798	
-0.382019	
-0.38269	
-0.381958	
-0.381653	
-0.380249	
-0.38147	
-0.382446	
-0.38147	
-0.38147	
-0.380859	
-0.380432	
-0.380615	
-0.38031	
-0.380005	
-0.380249	
-0.38031	
-0.379944	
-0.380615	
-0.379822	
-0.380005	
-0.379395	
-0.380249	
-0.38031	
-0.379822	
-0.380127	
-0.380371	
-0.380432	
-0.381653	
-0.380432	
-0.380615	
-0.380615	
-0.381226	
-0.380615	
-0.380249	
-0.380981	
-0.381653	
-0.381287	
-0.38208	
-0.38092	
-0.381042	
-0.381714	
-0.381592	
-0.381531	
-0.381042	
-0.382813	
-0.383728	
-0.383301	
-0.384033	
-0.382507	
-0.382813	
-0.384216	
-0.38324	
-0.383179	
-0.380981	
-0.383362	
-0.383789	
-0.383423	
-0.38324	
-0.38269	
-0.381287	
-0.383667	
-0.382507	
-0.382202	
-0.381653	
-0.382263	
-0.381653	
-0.38208	
-0.380859	
-0.380371	
-0.380493	
-0.380493	
-0.379883	
-0.379272	
-0.379456	
-0.379883	
-0.379517	
-0.379517	
-0.379333	
-0.379395	
-0.380249	
-0.379822	
-0.379944	
-0.378784	
-0.380615	
-0.380981	
-0.380798	
-0.381531	
-0.3797	
-0.379944	
-0.380737	
-0.380493	
-0.380859	
-0.379944	
-0.380371	
-0.381226	
-0.381226	
-0.380005	
-0.378601	
-0.379639	
-0.380066	
-0.380005	
-0.379456	
-0.379395	
-0.379944	
-0.380371	
-0.380249	
-0.379456	
-0.379456	
-0.380127	
-0.379822	
-0.380005	
-0.379272	
-0.380249	
-0.380493	
-0.38031	
-0.380493	
-0.380005	
-0.38031	
-0.38092	
-0.380615	
-0.380493	
-0.379028	
-0.380615	
-0.380432	
-0.381531	
-0.38147	
-0.38031	
-0.379578	
-0.380554	
-0.381042	
-0.380493	
-0.379517	
-0.380859	
-0.380554	
-0.380859	
-0.380493	
-0.380127	
-0.380859	
-0.380737	
-0.38031	
-0.379517	
-0.380554	
-0.380615	
-0.381104	
-0.380859	
-0.381287	
-0.381226	
-0.381897	
-0.381714	
-0.381592	
-0.381165	
-0.38147	
-0.381653	
-0.382263	
-0.381714	
-0.381226	
-0.380676	
-0.381226	
-0.381348	
-0.380676	
-0.381104	
-0.380615	
-0.380676	
-0.381836	
-0.38092	
-0.38031	
-0.378906	
-0.379578	
-0.380493	
-0.379822	
-0.379883	
-0.380371	
-0.380249	
-0.381348	
-0.380493	
-0.38031	
-0.379272	
-0.381165	
-0.380249	
-0.379822	
-0.379639	
-0.380798	
-0.381165	
-0.382324	
-0.381592	
-0.381226	
-0.381226	
-0.382263	
-0.381653	
-0.380615	
-0.381775	
-0.382568	
-0.38269	
-0.383362	
-0.382324	
-0.381958	
-0.381897	
-0.382263	
-0.381958	
-0.382019	
-0.382141	
-0.382263	
-0.382385	
-0.383545	
-0.382141	
-0.381653	
-0.381653	
-0.381897	
-0.381836	
-0.381592	
-0.382324	
-0.38208	
-0.383118	
-0.382507	
-0.381836	
-0.381042	
-0.382446	
-0.381958	
-0.380493	
-0.380188	
-0.381531	
-0.381287	
-0.382385	
-0.381226	
-0.380798	
-0.38147	
-0.38092	
-0.380615	
-0.380249	
-0.380615	
-0.381042	
-0.380859	
-0.381836	
-0.380737	
-0.380798	
-0.380188	
-0.380859	
-0.380798	
-0.38092	
-0.381836	
-0.38147	
-0.382324	
-0.383484	
-0.382324	
-0.382202	
-0.381287	
-0.382568	
-0.382263	
-0.382324	
-0.382813	
-0.382751	
-0.383423	
-0.384216	
-0.383118	
-0.383423	
-0.38324	
-0.383362	
-0.382202	
-0.381775	
-0.38324	
-0.383057	
-0.383667	
-0.383545	
-0.382751	
-0.382385	
-0.382874	
-0.382813	
-0.381714	
-0.38269	
-0.382813	
-0.38324	
-0.384094	
-0.383423	
-0.382935	
-0.383179	
-0.382935	
-0.382751	
-0.382324	
-0.383057	
-0.382996	
-0.382935	
-0.383667	
-0.383301	
-0.382874	
-0.382446	
-0.382507	
-0.382385	
-0.382507	
-0.382874	
-0.382813	
-0.383057	
-0.38324	
-0.382385	
-0.381958	
-0.382141	
-0.38208	
-0.381958	
-0.381958	
-0.382202	
-0.382019	
-0.382568	
-0.38269	
-0.382385	
-0.381836	
-0.382751	
-0.382202	
-0.382324	
-0.381592	
-0.382629	
-0.382629	
-0.383484	
-0.382935	
-0.382202	
-0.381836	
-0.382751	
-0.382385	
-0.380981	
-0.382141	
-0.382568	
-0.38269	
-0.383606	
-0.382874	
-0.382385	
-0.381409	
-0.382385	
-0.382507	
-0.382813	
-0.382629	
-0.382935	
-0.383301	
-0.384521	
-0.383423	
-0.383301	
-0.382202	
-0.382446	
-0.383362	
-0.382874	
-0.383362	
-0.383545	
-0.383972	
-0.385132	
-0.384705	
-0.384216	
-0.384827	
-0.383911	
-0.384155	
-0.383362	
-0.384949	
-0.384399	
-0.385193	
-0.38562	
-0.385376	
-0.385376	
-0.385498	
-0.383728	
-0.383423	
-0.38446	
-0.384705	
-0.384521	
-0.385193	
-0.384521	
-0.385193	
-0.384644	
-0.384155	
-0.382935	
-0.383179	
-0.384094	
-0.383728	
-0.38385	
-0.385254	
-0.383667	
-0.38446	
-0.382446	
-0.383423	
-0.382935	
-0.383179	
-0.38324	
-0.382629	
-0.383057	
-0.383972	
-0.382385	
-0.382446	
-0.380676	
-0.382202	
-0.38147	
-0.381226	
-0.381714	
-0.381958	
-0.382263	
-0.383118	
-0.382324	
-0.382629	
-0.382324	
-0.382446	
-0.382385	
-0.382446	
-0.382935	
-0.383118	
-0.383118	
-0.383911	
-0.38385	
-0.383972	
-0.38446	
-0.383972	
-0.384033	
-0.384644	
-0.385254	
-0.385254	
-0.385193	
-0.38562	
-0.385559	
-0.385376	
-0.384766	
-0.384277	
-0.383606	
-0.384644	
-0.384521	
-0.384155	
-0.385071	
-0.384827	
-0.384888	
-0.385315	
-0.384277	
-0.384399	
-0.383423	
-0.38446	
-0.384583	
-0.384766	
-0.385864	
-0.385071	
-0.385742	
-0.384949	
-0.384705	
-0.384766	
-0.384827	
-0.38562	
-0.38562	
-0.385376	
-0.386658	
-0.385437	
-0.386169	
-0.386292	
-0.38501	
-0.383606	
-0.384155	
-0.385132	
-0.385437	
-0.385132	
-0.386047	
-0.385315	
-0.386536	
-0.385376	
-0.385071	
-0.384949	
-0.384766	
-0.385498	
-0.385498	
-0.385681	
-0.386353	
-0.385681	
-0.385925	
-0.384705	
-0.385437	
-0.38501	
-0.38562	
-0.385864	
-0.386047	
-0.386658	
-0.386841	
-0.386414	
-0.385986	
-0.384827	
-0.386108	
-0.385803	
-0.385986	
-0.386047	
-0.386047	
-0.386963	
-0.386108	
-0.38562	
-0.384338	
-0.38501	
-0.384705	
-0.384705	
-0.385437	
-0.385071	
-0.385132	
-0.38623	
-0.385254	
-0.385559	
-0.38562	
-0.385132	
-0.384644	
-0.384094	
-0.385193	
-0.385742	
-0.386108	
-0.386169	
-0.385925	
-0.38623	
-0.387207	
-0.385681	
-0.384644	
-0.383667	
-0.385864	
-0.385925	
-0.385742	
-0.386292	
-0.386108	
-0.386414	
-0.386719	
-0.385498	
-0.384521	
-0.385559	
-0.385681	
-0.385925	
-0.38562	
-0.385864	
-0.384949	
-0.385315	
-0.384705	
-0.384644	
-0.384094	
-0.384338	
-0.384338	
-0.384277	
-0.384888	
-0.385132	
-0.383972	
-0.383606	
-0.383118	
-0.383667	
-0.383789	
-0.383911	
-0.384216	
-0.384033	
-0.384766	
-0.385132	
-0.384399	
-0.383606	
-0.383911	
-0.384155	
-0.383545	
-0.384399	
-0.384338	
-0.384094	
-0.384949	
-0.384583	
-0.384583	
-0.384827	
-0.38446	
-0.383972	
-0.383911	
-0.384583	
-0.384338	
-0.384949	
-0.385132	
-0.385315	
-0.385803	
-0.38623	
-0.385498	
-0.384338	
-0.383301	
-0.385437	
-0.385559	
-0.385925	
-0.38562	
-0.385742	
-0.385925	
-0.386658	
-0.385315	
-0.38385	
-0.382629	
-0.384399	
-0.383911	
-0.384216	
-0.383728	
-0.384155	
-0.38324	
-0.384583	
-0.383728	
-0.383423	
-0.382446	
-0.382996	
-0.382874	
-0.383728	
-0.383301	
-0.382751	
-0.381531	
-0.383118	
-0.382751	
-0.382996	
-0.382629	
-0.383179	
-0.383728	
-0.383728	
-0.384094	
-0.383484	
-0.383789	
-0.382874	
-0.383057	
-0.383057	
-0.383484	
-0.38324	
-0.383423	
-0.383362	
-0.384094	
-0.383484	
-0.38385	
-0.383301	
-0.383423	
-0.383118	
-0.383484	
-0.384033	
-0.384033	
-0.383911	
-0.384399	
-0.384216	
-0.384521	
-0.384155	
-0.383911	
-0.383057	
-0.383972	
-0.384155	
-0.384583	
-0.384583	
-0.384583	
-0.384949	
-0.385803	
-0.384705	
-0.383789	
-0.384155	
-0.385193	
-0.384644	
-0.385681	
-0.385132	
-0.384766	
-0.385071	
-0.385254	
-0.384277	
-0.383606	
-0.382935	
-0.384033	
-0.384155	
-0.38501	
-0.384644	
-0.384216	
-0.384827	
-0.384827	
-0.384155	
-0.384094	
-0.38324	
-0.38446	
-0.384277	
-0.384644	
-0.384827	
-0.38385	
-0.384094	
-0.384216	
-0.384094	
-0.383911	
-0.382935	
-0.384033	
-0.384216	
-0.383484	
-0.384521	
-0.383545	
-0.384155	
-0.383423	
-0.383179	
-0.383545	
-0.382385	
-0.382874	
-0.383911	
-0.383057	
-0.383423	
-0.38147	
-0.382935	
-0.382507	
-0.382202	
-0.381836	
-0.381897	
-0.382874	
-0.382935	
-0.382019	
-0.382813	
-0.382019	
-0.382629	
-0.382446	
-0.381897	
-0.381714	
-0.382446	
-0.382629	
-0.382324	
-0.382751	
-0.382324	
-0.383179	
-0.383545	
-0.382813	
-0.382629	
-0.381775	
-0.382996	
-0.38324	
-0.383484	
-0.38385	
-0.383057	
-0.383789	
-0.38446	
-0.38385	
-0.383179	
-0.382996	
-0.384399	
-0.384888	
-0.384705	
-0.385437	
-0.385071	
-0.385559	
-0.385193	
-0.385132	
-0.383789	
-0.384277	
-0.384949	
-0.385071	
-0.384521	
-0.38562	
-0.384094	
-0.385193	
-0.38385	
-0.384216	
-0.382751	
-0.383728	
-0.383728	
-0.384583	
-0.383728	
-0.383667	
-0.381653	
-0.383606	
-0.382507	
-0.38208	
-0.381226	
-0.381104	
-0.381409	
-0.382446	
-0.381836	
-0.382019	
-0.381409	
-0.382263	
-0.382996	
-0.381714	
-0.381836	
-0.381653	
-0.382385	
-0.382751	
-0.38208	
-0.382385	
-0.38269	
-0.382813	
-0.38269	
-0.382385	
-0.38208	
-0.381958	
-0.381897	
-0.382385	
-0.381775	
-0.381958	
-0.381653	
-0.382202	
-0.381592	
-0.381714	
-0.381042	
-0.381775	
-0.382019	
-0.381653	
-0.38269	
-0.381714	
-0.381958	
-0.382263	
-0.38208	
-0.381714	
-0.380615	
-0.381836	
-0.382202	
-0.382019	
-0.382813	
-0.381409	
-0.382385	
-0.382019	
-0.381653	
-0.381775	
-0.381531	
-0.38208	
-0.382385	
-0.38208	
-0.382263	
-0.381531	
-0.381958	
-0.382507	
-0.381836	
-0.380981	
-0.380615	
-0.381287	
-0.381958	
-0.38147	
-0.381165	
-0.380554	
-0.381836	
-0.382141	
-0.381409	
-0.380493	
-0.38031	
-0.38147	
-0.382141	
-0.381775	
-0.381653	
-0.381958	
-0.38269	
-0.382507	
-0.381653	
-0.380981	
-0.381897	
-0.382324	
-0.382263	
-0.382813	
-0.382019	
-0.382141	
-0.382385	
-0.38208	
-0.381409	
-0.3797	
-0.381348	
-0.381531	
-0.381409	
-0.382019	
-0.381287	
-0.38147	
-0.382141	
-0.381348	
-0.380737	
-0.379028	
-0.381409	
-0.382202	
-0.381348	
-0.38208	
-0.381104	
-0.381409	
-0.382874	
-0.381409	
-0.38147	
-0.380066	
-0.381653	
-0.382813	
-0.38208	
-0.382568	
-0.381287	
-0.382202	
-0.384216	
-0.382507	
-0.382874	
-0.381714	
-0.382996	
-0.383789	
-0.38324	
-0.382935	
-0.382507	
-0.383301	
-0.384888	
-0.382935	
-0.382507	
-0.381775	
-0.383118	
-0.383362	
-0.38324	
-0.382813	
-0.382751	
-0.382568	
-0.383728	
-0.383118	
-0.382141	
-0.382813	
-0.382935	
-0.382996	
-0.383667	
-0.382629	
-0.382324	
-0.381714	
-0.38269	
-0.382324	
-0.381714	
-0.382202	
-0.382263	
-0.382507	
-0.382629	
-0.381287	
-0.381531	
-0.38147	
-0.381714	
-0.381348	
-0.380676	
-0.381592	
-0.381775	
-0.381287	
-0.382019	
-0.381531	
-0.381653	
-0.38269	
-0.382263	
-0.382385	
-0.381714	
-0.383179	
-0.383423	
-0.38324	
-0.383606	
-0.383179	
-0.383179	
-0.384827	
-0.384033	
-0.383484	
-0.381592	
-0.383545	
-0.384644	
-0.384583	
-0.383972	
-0.383362	
-0.383972	
-0.386475	
-0.38385	
-0.383667	
-0.381104	
-0.383667	
-0.384644	
-0.384033	
-0.38324	
-0.38208	
-0.383728	
-0.385803	
-0.383484	
-0.383301	
-0.382019	
-0.383728	
-0.384705	
-0.383972	
-0.383606	
-0.382629	
-0.383423	
-0.384827	
-0.383484	
-0.383057	
-0.382385	
-0.383728	
-0.384277	
-0.384094	
-0.383423	
-0.382935	
-0.383179	
-0.384216	
-0.383301	
-0.382874	
-0.382996	
-0.383423	
-0.382813	
-0.383484	
-0.382385	
-0.382568	
-0.382263	
-0.383118	
-0.382629	
-0.381958	
-0.382507	
-0.38269	
-0.382629	
-0.383423	
-0.382446	
-0.383179	
-0.38446	
-0.383484	
-0.382935	
-0.381287	
-0.382996	
-0.382751	
-0.383057	
-0.383118	
-0.38269	
-0.382813	
-0.384277	
-0.383362	
-0.38269	
-0.381958	
-0.382935	
-0.382996	
-0.38324	
-0.38324	
-0.382996	
-0.383057	
-0.384094	
-0.383789	
-0.382874	
-0.382019	
-0.383484	
-0.38385	
-0.383667	
-0.383118	
-0.382935	
-0.38385	
-0.38446	
-0.383972	
-0.38385	
-0.384155	
-0.384094	
-0.385254	
-0.385071	
-0.384399	
-0.384277	
-0.385498	
-0.385498	
-0.384766	
-0.384216	
-0.384216	
-0.385559	
-0.38623	
-0.385864	
-0.384766	
-0.384216	
-0.385132	
-0.385681	
-0.384521	
-0.384216	
-0.383911	
-0.384949	
-0.385376	
-0.385254	
-0.384399	
-0.383667	
-0.384888	
-0.384827	
-0.384155	
-0.384094	
-0.382874	
-0.384155	
-0.384583	
-0.384155	
-0.383484	
-0.383606	
-0.384155	
-0.384033	
-0.382507	
-0.381897	
-0.381897	
-0.382202	
-0.382507	
-0.382324	
-0.381775	
-0.382141	
-0.383179	
-0.382874	
-0.381897	
-0.380981	
-0.38269	
-0.382019	
-0.382935	
-0.382935	
-0.382141	
-0.382874	
-0.383728	
-0.38324	
-0.381714	
-0.382263	
-0.383667	
-0.384094	
-0.384644	
-0.383911	
-0.384399	
-0.385498	
-0.38562	
-0.38501	
-0.383728	
-0.384583	
-0.385315	
-0.385803	
-0.385193	
-0.384827	
-0.384644	
-0.385193	
-0.385437	
-0.384521	
-0.383789	
-0.384583	
-0.384705	
-0.385254	
-0.384949	
-0.384399	
-0.383911	
-0.384583	
-0.385315	
-0.38446	
-0.384644	
-0.384766	
-0.38501	
-0.386108	
-0.386353	
-0.385742	
-0.384033	
-0.384827	
-0.385803	
-0.385254	
-0.385193	
-0.38501	
-0.385681	
-0.386536	
-0.386475	
-0.385071	
-0.384033	
-0.38446	
-0.385742	
-0.384949	
-0.384949	
-0.384216	
-0.385193	
-0.385742	
-0.386108	
-0.38501	
-0.38501	
-0.384399	
-0.385925	
-0.385193	
-0.384705	
-0.384338	
-0.385315	
-0.38562	
-0.386108	
-0.385193	
-0.385681	
-0.385803	
-0.385803	
-0.385315	
	
