C:\DOCUMENTS AND SETTINGS\JASON\DESKTOP\UFRJ\UFRJ EPHYS\RSCI-BM 12 WK SERIES\070806-RSCI-BM-16\RSCI-BM-16-REMG\070806-RSCI-BM-16-REMG-0003.ACQ
0.025000 msec/sample
1 channel
Analog input
Volts
CH1	
2000	
-0.382141	
-0.381714	
-0.381226	
-0.380188	
-0.381897	
-0.381104	
-0.381104	
-0.379944	
-0.380432	
-0.380615	
-0.381531	
-0.380737	
-0.380371	
-0.379578	
-0.38092	
-0.380432	
-0.380554	
-0.378906	
-0.38031	
-0.379883	
-0.380493	
-0.379578	
-0.379395	
-0.37915	
-0.380493	
-0.379822	
-0.380432	
-0.378967	
-0.380676	
-0.378601	
-0.380188	
-0.378357	
-0.379517	
-0.379272	
-0.380554	
-0.380493	
-0.381104	
-0.379517	
-0.380798	
-0.379028	
-0.380371	
-0.379333	
-0.380188	
-0.379822	
-0.381165	
-0.38092	
-0.38147	
-0.380005	
-0.380798	
-0.379883	
-0.380859	
-0.379883	
-0.380615	
-0.380737	
-0.381714	
-0.381409	
-0.382446	
-0.38031	
-0.380798	
-0.380615	
-0.38147	
-0.381409	
-0.381714	
-0.381409	
-0.382324	
-0.381775	
-0.382935	
-0.381592	
-0.382446	
-0.381104	
-0.382446	
-0.382446	
-0.38269	
-0.382507	
-0.383667	
-0.382813	
-0.383789	
-0.382385	
-0.382874	
-0.381836	
-0.383179	
-0.382996	
-0.383118	
-0.382874	
-0.383728	
-0.383179	
-0.384216	
-0.382996	
-0.384033	
-0.383179	
-0.384216	
-0.383789	
-0.384155	
-0.384094	
-0.384949	
-0.384583	
-0.384521	
-0.384277	
-0.384399	
-0.384216	
-0.385132	
-0.384583	
-0.38446	
-0.384155	
-0.38446	
-0.383972	
-0.38385	
-0.384094	
-0.383301	
-0.383423	
-0.382568	
-0.383423	
-0.383118	
-0.382629	
-0.383362	
-0.383118	
-0.382813	
-0.383423	
-0.382813	
-0.383118	
-0.381592	
-0.381836	
-0.381714	
-0.38147	
-0.38208	
-0.381165	
-0.381714	
-0.381836	
-0.381714	
-0.382019	
-0.380737	
-0.381287	
-0.380188	
-0.380981	
-0.381104	
-0.380554	
-0.380798	
-0.381226	
-0.380676	
-0.380981	
-0.378967	
-0.380127	
-0.379028	
-0.380005	
-0.380005	
-0.380127	
-0.380432	
-0.380859	
-0.379944	
-0.380066	
-0.37854	
-0.379456	
-0.37854	
-0.379089	
-0.379395	
-0.379211	
-0.378845	
-0.379761	
-0.378906	
-0.37915	
-0.37793	
-0.378723	
-0.37854	
-0.378418	
-0.378784	
-0.378662	
-0.378662	
-0.37915	
-0.378662	
-0.379272	
-0.377563	
-0.377869	
-0.377991	
-0.378418	
-0.378784	
-0.379333	
-0.379578	
-0.380005	
-0.379822	
-0.380005	
-0.379395	
-0.379639	
-0.379639	
-0.379883	
-0.379944	
-0.381165	
-0.380737	
-0.380798	
-0.381592	
-0.38147	
-0.38092	
-0.380615	
-0.380798	
-0.381348	
-0.381775	
-0.382385	
-0.382141	
-0.374878	
-0.369568	
-0.368164	
-0.367981	
-0.368774	
-0.368286	
-0.376892	
-0.382507	
-0.384216	
-0.383545	
-0.384277	
-0.383179	
-0.38324	
-0.382874	
-0.383545	
-0.383057	
-0.383301	
-0.383484	
-0.38446	
-0.383484	
-0.384094	
-0.383728	
-0.384094	
-0.383606	
-0.384033	
-0.383667	
-0.383728	
-0.38385	
-0.384888	
-0.383911	
-0.384216	
-0.383606	
-0.384155	
-0.383789	
-0.384705	
-0.384277	
-0.384155	
-0.382874	
-0.384216	
-0.38324	
-0.382935	
-0.383301	
-0.382996	
-0.383057	
-0.38269	
-0.382813	
-0.383118	
-0.381836	
-0.382996	
-0.383057	
-0.383118	
-0.383057	
-0.382568	
-0.382141	
-0.381531	
-0.381897	
-0.381775	
-0.381042	
-0.38208	
-0.38208	
-0.381836	
-0.382202	
-0.381592	
-0.381042	
-0.380676	
-0.380798	
-0.381287	
-0.380493	
-0.381531	
-0.380737	
-0.380859	
-0.381165	
-0.380798	
-0.381287	
-0.38031	
-0.380432	
-0.379822	
-0.379578	
-0.380432	
-0.380188	
-0.380249	
-0.380981	
-0.380432	
-0.381042	
-0.379456	
-0.380066	
-0.379272	
-0.380432	
-0.380737	
-0.381104	
-0.381287	
-0.381897	
-0.381042	
-0.382507	
-0.381531	
-0.38269	
-0.382263	
-0.383545	
-0.384705	
-0.386475	
-0.386353	
-0.387939	
-0.38739	
-0.389709	
-0.389771	
-0.391846	
-0.392578	
-0.394104	
-0.396484	
-0.398987	
-0.40033	
-0.402832	
-0.404663	
-0.40686	
-0.409363	
-0.410278	
-0.41217	
-0.413879	
-0.415771	
-0.417053	
-0.418884	
-0.41925	
-0.420288	
-0.419983	
-0.420898	
-0.420715	
-0.420898	
-0.420349	
-0.420471	
-0.419067	
-0.419128	
-0.417053	
-0.418335	
-0.417297	
-0.417847	
-0.417786	
-0.4198	
-0.42157	
-0.423645	
-0.424622	
-0.427734	
-0.428345	
-0.430847	
-0.431519	
-0.433167	
-0.433533	
-0.434509	
-0.437561	
-0.438782	
-0.439636	
-0.441833	
-0.442017	
-0.44397	
-0.443726	
-0.444397	
-0.443848	
-0.444275	
-0.445374	
-0.445801	
-0.44574	
-0.44574	
-0.44397	
-0.444031	
-0.442505	
-0.441956	
-0.438965	
-0.438293	
-0.437683	
-0.436768	
-0.435486	
-0.434814	
-0.432251	
-0.432495	
-0.430481	
-0.429688	
-0.42688	
-0.426453	
-0.425964	
-0.42572	
-0.424011	
-0.424011	
-0.421204	
-0.421875	
-0.420837	
-0.420227	
-0.419617	
-0.418762	
-0.419739	
-0.419861	
-0.418396	
-0.417969	
-0.415833	
-0.414917	
-0.413391	
-0.411926	
-0.410278	
-0.407532	
-0.406494	
-0.404114	
-0.400879	
-0.398315	
-0.394348	
-0.391907	
-0.388611	
-0.384644	
-0.381104	
-0.377747	
-0.37561	
-0.373779	
-0.371155	
-0.369141	
-0.365112	
-0.364136	
-0.361206	
-0.360168	
-0.357788	
-0.356079	
-0.355652	
-0.355286	
-0.35376	
-0.353027	
-0.350464	
-0.350464	
-0.348755	
-0.348206	
-0.347046	
-0.34552	
-0.345642	
-0.345581	
-0.343689	
-0.34375	
-0.341492	
-0.341797	
-0.341003	
-0.340881	
-0.340149	
-0.339966	
-0.340332	
-0.341492	
-0.341248	
-0.341187	
-0.341125	
-0.34198	
-0.341919	
-0.342041	
-0.341309	
-0.34259	
-0.343445	
-0.343933	
-0.34491	
-0.344482	
-0.345398	
-0.346069	
-0.34613	
-0.346436	
-0.346558	
-0.347656	
-0.348755	
-0.34906	
-0.350891	
-0.349915	
-0.350891	
-0.351563	
-0.352478	
-0.353577	
-0.353333	
-0.354736	
-0.35614	
-0.355835	
-0.3573	
-0.355774	
-0.357605	
-0.356873	
-0.357788	
-0.357727	
-0.357483	
-0.358948	
-0.359314	
-0.35907	
-0.359497	
-0.359192	
-0.360352	
-0.359924	
-0.360046	
-0.359314	
-0.360291	
-0.360962	
-0.360474	
-0.36145	
-0.360962	
-0.361145	
-0.361084	
-0.361267	
-0.36145	
-0.361084	
-0.361633	
-0.362183	
-0.361816	
-0.363464	
-0.361938	
-0.362488	
-0.361816	
-0.36322	
-0.362976	
-0.362427	
-0.363831	
-0.365601	
-0.36499	
-0.366638	
-0.364014	
-0.365295	
-0.364319	
-0.364868	
-0.364441	
-0.364685	
-0.365601	
-0.366028	
-0.365723	
-0.365784	
-0.365356	
-0.366577	
-0.365234	
-0.365662	
-0.364319	
-0.366028	
-0.366211	
-0.365906	
-0.366455	
-0.366394	
-0.366943	
-0.36676	
-0.366516	
-0.366882	
-0.366211	
-0.367188	
-0.367615	
-0.367737	
-0.368164	
-0.36731	
-0.367859	
-0.367859	
-0.367981	
-0.367554	
-0.366943	
-0.368042	
-0.368591	
-0.368347	
-0.368652	
-0.36792	
-0.368958	
-0.369019	
-0.368958	
-0.368835	
-0.368408	
-0.368896	
-0.369629	
-0.369324	
-0.369812	
-0.368835	
-0.370056	
-0.370544	
-0.370239	
-0.370483	
-0.370117	
-0.370911	
-0.372314	
-0.371643	
-0.372498	
-0.371521	
-0.372681	
-0.372681	
-0.373596	
-0.373657	
-0.372131	
-0.374207	
-0.374878	
-0.374207	
-0.375305	
-0.373779	
-0.374512	
-0.373901	
-0.374268	
-0.37384	
-0.373352	
-0.375122	
-0.375	
-0.374878	
-0.375977	
-0.375122	
-0.375916	
-0.375488	
-0.37561	
-0.374695	
-0.375427	
-0.376709	
-0.376038	
-0.377136	
-0.377075	
-0.377014	
-0.377625	
-0.377686	
-0.377197	
-0.376404	
-0.377808	
-0.378052	
-0.377991	
-0.378174	
-0.377563	
-0.378357	
-0.377808	
-0.378052	
-0.377686	
-0.377625	
-0.377991	
-0.377686	
-0.377869	
-0.377991	
-0.377869	
-0.377808	
-0.377258	
-0.37793	
-0.377747	
-0.377991	
-0.37793	
-0.378662	
-0.378906	
-0.378662	
-0.378967	
-0.379272	
-0.37915	
-0.380371	
-0.3797	
-0.380005	
-0.380188	
-0.380981	
-0.380981	
-0.38092	
-0.381653	
-0.381714	
-0.382141	
-0.381714	
-0.381165	
-0.381165	
-0.381165	
-0.381775	
-0.38092	
-0.381042	
-0.380371	
-0.380676	
-0.38092	
-0.380188	
-0.380188	
-0.38031	
-0.379944	
-0.380676	
-0.379517	
-0.380066	
-0.378662	
-0.379639	
-0.379211	
-0.378906	
-0.378784	
-0.378845	
-0.379272	
-0.379883	
-0.378601	
-0.379272	
-0.377808	
-0.379333	
-0.377747	
-0.378479	
-0.378235	
-0.378174	
-0.378418	
-0.379028	
-0.378723	
-0.379456	
-0.378235	
-0.37854	
-0.377625	
-0.378479	
-0.378357	
-0.377991	
-0.37854	
-0.378906	
-0.378784	
-0.378845	
-0.37854	
-0.378784	
-0.378906	
-0.378113	
-0.378113	
-0.377319	
-0.378784	
-0.378479	
-0.378723	
-0.378784	
-0.3797	
-0.379456	
-0.378845	
-0.378418	
-0.378418	
-0.378967	
-0.378967	
-0.379456	
-0.379761	
-0.379578	
-0.380432	
-0.380371	
-0.379578	
-0.378418	
-0.378723	
-0.379761	
-0.380798	
-0.380066	
-0.380371	
-0.379456	
-0.381287	
-0.381104	
-0.380737	
-0.379639	
-0.379517	
-0.381104	
-0.38208	
-0.381104	
-0.381409	
-0.380249	
-0.38208	
-0.382568	
-0.381592	
-0.381348	
-0.380615	
-0.382324	
-0.382568	
-0.382446	
-0.382935	
-0.382874	
-0.383423	
-0.383789	
-0.382935	
-0.382996	
-0.381226	
-0.383118	
-0.383362	
-0.383606	
-0.384155	
-0.383545	
-0.384216	
-0.385132	
-0.383911	
-0.383728	
-0.381348	
-0.383972	
-0.383728	
-0.384399	
-0.384644	
-0.384644	
-0.385071	
-0.384827	
-0.384583	
-0.384277	
-0.383789	
-0.385559	
-0.385071	
-0.385437	
-0.385986	
-0.385437	
-0.385925	
-0.385559	
-0.385864	
-0.385254	
-0.384766	
-0.385498	
-0.385376	
-0.385254	
-0.385193	
-0.384827	
-0.385071	
-0.384338	
-0.384216	
-0.38385	
-0.383423	
-0.384583	
-0.384583	
-0.383972	
-0.384094	
-0.384094	
-0.384216	
-0.384705	
-0.382935	
-0.383179	
-0.382629	
-0.384033	
-0.383118	
-0.383057	
-0.382263	
-0.383057	
-0.383484	
-0.383789	
-0.38269	
-0.382507	
-0.381775	
-0.383911	
-0.382751	
-0.382263	
-0.381348	
-0.382507	
-0.382751	
-0.382813	
-0.381592	
-0.381592	
-0.381897	
-0.383301	
-0.381653	
-0.382324	
-0.381287	
-0.382507	
-0.382507	
-0.381714	
-0.381531	
-0.380676	
-0.381592	
-0.381592	
-0.381409	
-0.381714	
-0.381042	
-0.381165	
-0.381897	
-0.38092	
-0.380676	
-0.379456	
-0.381104	
-0.381226	
-0.381042	
-0.381165	
-0.38092	
-0.381714	
-0.38147	
-0.380432	
-0.380127	
-0.379272	
-0.380737	
-0.380432	
-0.381165	
-0.381104	
-0.381714	
-0.382324	
-0.382568	
-0.381775	
-0.381287	
-0.382202	
-0.382202	
-0.382446	
-0.382202	
-0.382813	
-0.383728	
-0.384033	
-0.383972	
-0.383423	
-0.383423	
-0.383423	
-0.383728	
-0.384277	
-0.384216	
-0.38446	
-0.384949	
-0.385498	
-0.385254	
-0.384583	
-0.383789	
-0.384094	
-0.385071	
-0.384949	
-0.38501	
-0.385071	
-0.385315	
-0.386292	
-0.386047	
-0.385315	
-0.38501	
-0.384888	
-0.385986	
-0.386047	
-0.385986	
-0.386047	
-0.386169	
-0.386841	
-0.386597	
-0.386353	
-0.384949	
-0.385437	
-0.386963	
-0.386536	
-0.386658	
-0.386719	
-0.386963	
-0.388123	
-0.387329	
-0.386475	
-0.385132	
-0.386047	
-0.387207	
-0.386963	
-0.386902	
-0.386292	
-0.387268	
-0.387634	
-0.38678	
-0.385559	
-0.383789	
-0.38501	
-0.385986	
-0.385864	
-0.385742	
-0.386047	
-0.386597	
-0.387207	
-0.386169	
-0.384949	
-0.383789	
-0.384644	
-0.385498	
-0.385437	
-0.385071	
-0.384644	
-0.385376	
-0.385742	
-0.385193	
-0.38385	
-0.38324	
-0.384033	
-0.38446	
-0.384277	
-0.383911	
-0.383972	
-0.384705	
-0.385498	
-0.384338	
-0.383301	
-0.382874	
-0.383606	
-0.383667	
-0.383545	
-0.383301	
-0.383362	
-0.384277	
-0.384521	
-0.383728	
-0.382446	
-0.382568	
-0.383057	
-0.38385	
-0.383301	
-0.383606	
-0.383179	
-0.383972	
-0.384155	
-0.382874	
-0.382751	
-0.382446	
-0.383057	
-0.383484	
-0.38269	
-0.382813	
-0.38269	
-0.383789	
-0.383423	
-0.382629	
-0.381958	
-0.382751	
-0.382751	
-0.382446	
-0.38208	
-0.382446	
-0.382629	
-0.383423	
-0.382813	
-0.382751	
-0.38269	
-0.38324	
-0.383667	
-0.38324	
-0.383545	
-0.383179	
-0.383301	
-0.383911	
-0.383789	
-0.383789	
-0.383545	
-0.384033	
-0.384338	
-0.384766	
-0.384766	
-0.384827	
-0.38501	
-0.385193	
-0.385315	
-0.384827	
-0.384949	
-0.385376	
-0.385681	
-0.385742	
-0.385681	
-0.385681	
-0.385864	
-0.386414	
-0.386353	
-0.385864	
-0.385986	
-0.38623	
-0.38623	
-0.386841	
-0.386414	
-0.386414	
-0.386658	
-0.387207	
-0.387085	
-0.386597	
-0.386658	
-0.386902	
-0.387512	
-0.387451	
-0.387756	
-0.387756	
-0.387451	
-0.387756	
-0.387817	
-0.387756	
-0.387085	
-0.387451	
-0.388062	
-0.387756	
-0.388733	
-0.388306	
-0.388367	
-0.387878	
-0.388367	
-0.387939	
-0.387085	
-0.387634	
-0.387512	
-0.387573	
-0.388916	
-0.387512	
-0.387817	
-0.387268	
-0.387756	
-0.387329	
-0.386658	
-0.38678	
-0.386902	
-0.387512	
-0.387573	
-0.386963	
-0.387268	
-0.386963	
-0.387085	
-0.386108	
-0.386169	
-0.38623	
-0.386597	
-0.386414	
-0.386902	
-0.385986	
-0.38623	
-0.385742	
-0.386597	
-0.385803	
-0.385315	
-0.385071	
-0.385498	
-0.385315	
-0.386108	
-0.384888	
-0.385071	
-0.385254	
-0.385864	
-0.384583	
-0.384399	
-0.383972	
-0.384949	
-0.384583	
-0.385132	
-0.384705	
-0.384766	
-0.384766	
-0.385071	
-0.384399	
-0.383972	
-0.383728	
-0.384888	
-0.384277	
-0.384949	
-0.384094	
-0.38385	
-0.383789	
-0.384644	
-0.38385	
-0.382996	
-0.383179	
-0.383423	
-0.383118	
-0.384521	
-0.383789	
-0.384216	
-0.38385	
-0.384827	
-0.384155	
-0.383972	
-0.383606	
-0.384338	
-0.38501	
-0.385681	
-0.384827	
-0.384766	
-0.384644	
-0.386353	
-0.385193	
-0.384644	
-0.384033	
-0.385315	
-0.385559	
-0.386169	
-0.385742	
-0.385986	
-0.385803	
-0.387756	
-0.385986	
-0.38501	
-0.384583	
-0.386597	
-0.386536	
-0.387085	
-0.38678	
-0.386475	
-0.38739	
-0.38855	
-0.386963	
-0.386108	
-0.386353	
-0.387573	
-0.387268	
-0.388611	
-0.387695	
-0.387512	
-0.388062	
-0.388977	
-0.387756	
-0.387756	
-0.38678	
-0.387695	
-0.387878	
-0.388977	
-0.388062	
-0.388367	
-0.388672	
-0.39032	
-0.388489	
-0.388	
-0.387695	
-0.388733	
-0.388977	
-0.389954	
-0.389099	
-0.389282	
-0.388672	
-0.391235	
-0.389526	
-0.388855	
-0.387451	
-0.388977	
-0.389832	
-0.390747	
-0.389709	
-0.390076	
-0.388977	
-0.391296	
-0.388977	
-0.388855	
-0.387024	
-0.388428	
-0.388428	
-0.389038	
-0.388184	
-0.387817	
-0.387268	
-0.389771	
-0.38739	
-0.387024	
-0.384888	
-0.387085	
-0.386658	
-0.387268	
-0.386597	
-0.38678	
-0.385742	
-0.387512	
-0.385925	
-0.385986	
-0.383545	
-0.386047	
-0.385437	
-0.386475	
-0.385742	
-0.385681	
-0.384949	
-0.386902	
-0.384827	
-0.384644	
-0.382935	
-0.384949	
-0.384949	
-0.385498	
-0.384644	
-0.384766	
-0.384033	
-0.386414	
-0.384521	
-0.384094	
-0.382263	
-0.384277	
-0.384338	
-0.384827	
-0.383911	
-0.384583	
-0.383484	
-0.385803	
-0.383545	
-0.383606	
-0.381653	
-0.383301	
-0.384216	
-0.384399	
-0.384033	
-0.384277	
-0.383728	
-0.386414	
-0.384033	
-0.384827	
-0.382568	
-0.385315	
-0.385742	
-0.386047	
-0.385376	
-0.385498	
-0.384583	
-0.38739	
-0.384277	
-0.384583	
-0.382385	
-0.385193	
-0.385254	
-0.385681	
-0.385254	
-0.386169	
-0.385315	
-0.387695	
-0.385376	
-0.386047	
-0.383789	
-0.38623	
-0.386047	
-0.386536	
-0.38623	
-0.387024	
-0.385986	
-0.388489	
-0.386047	
-0.386658	
-0.384033	
-0.386841	
-0.387085	
-0.387451	
-0.387085	
-0.388062	
-0.387085	
-0.389282	
-0.386536	
-0.386902	
-0.384644	
-0.387024	
-0.387634	
-0.387939	
-0.387207	
-0.388062	
-0.387207	
-0.389832	
-0.386658	
-0.38739	
-0.385193	
-0.388	
-0.388062	
-0.388123	
-0.388062	
-0.389099	
-0.388123	
-0.39032	
-0.387207	
-0.388245	
-0.386475	
-0.388977	
-0.388794	
-0.388977	
-0.389221	
-0.389954	
-0.388855	
-0.390625	
-0.388062	
-0.388489	
-0.386353	
-0.387695	
-0.387817	
-0.388245	
-0.387939	
-0.388306	
-0.387573	
-0.388733	
-0.387573	
-0.387817	
-0.385925	
-0.387268	
-0.386841	
-0.387573	
-0.386719	
-0.387207	
-0.386169	
-0.387512	
-0.385437	
-0.385864	
-0.384827	
-0.386108	
-0.385864	
-0.386108	
-0.385681	
-0.386169	
-0.384827	
-0.38623	
-0.384583	
-0.384766	
-0.384094	
-0.38446	
-0.384949	
-0.384644	
-0.38501	
-0.384949	
-0.383728	
-0.385254	
-0.383362	
-0.384094	
-0.383362	
-0.383911	
-0.383972	
-0.384155	
-0.383606	
-0.384521	
-0.38385	
-0.384155	
-0.382263	
-0.383179	
-0.382507	
-0.383484	
-0.38324	
-0.383667	
-0.383423	
-0.383911	
-0.383057	
-0.383606	
-0.381775	
-0.38324	
-0.382446	
-0.383606	
-0.383728	
-0.384338	
-0.384155	
-0.384399	
-0.382996	
-0.383789	
-0.383118	
-0.38385	
-0.38324	
-0.383911	
-0.384155	
-0.384827	
-0.384094	
-0.384399	
-0.383728	
-0.385132	
-0.384155	
-0.383972	
-0.383484	
-0.384399	
-0.384705	
-0.385071	
-0.384277	
-0.385132	
-0.383789	
-0.385315	
-0.385132	
-0.384949	
-0.384644	
-0.384705	
-0.385193	
-0.385803	
-0.385437	
-0.385986	
-0.384705	
-0.386658	
-0.38678	
-0.385864	
-0.385925	
-0.385193	
-0.386719	
-0.386963	
-0.386475	
-0.386475	
-0.385925	
-0.38678	
-0.387451	
-0.386536	
-0.386169	
-0.38501	
-0.386597	
-0.387268	
-0.38678	
-0.387024	
-0.385864	
-0.387329	
-0.388794	
-0.387329	
-0.387085	
-0.385559	
-0.387573	
-0.389099	
-0.388	
-0.387512	
-0.386353	
-0.387756	
-0.389343	
-0.387573	
-0.387451	
-0.38501	
-0.387207	
-0.388184	
-0.386658	
-0.386902	
-0.385315	
-0.386719	
-0.388062	
-0.385925	
-0.385925	
-0.38446	
-0.386414	
-0.386597	
-0.385803	
-0.385864	
-0.384277	
-0.385925	
-0.386597	
-0.384827	
-0.385071	
-0.38324	
-0.38501	
-0.385315	
-0.384583	
-0.384583	
-0.384033	
-0.384888	
-0.385437	
-0.384521	
-0.383972	
-0.382385	
-0.38385	
-0.384583	
-0.383667	
-0.383301	
-0.383667	
-0.383606	
-0.384521	
-0.382629	
-0.383179	
-0.382568	
-0.382751	
-0.383301	
-0.383057	
-0.382813	
-0.382996	
-0.382568	
-0.38385	
-0.38208	
-0.382385	
-0.381226	
-0.381897	
-0.382935	
-0.382141	
-0.381775	
-0.382019	
-0.382019	
-0.382935	
-0.380981	
-0.381714	
-0.381042	
-0.381897	
-0.382446	
-0.381531	
-0.381409	
-0.381653	
-0.381653	
-0.381592	
-0.380127	
-0.381714	
-0.381226	
-0.382324	
-0.382629	
-0.382446	
-0.382385	
-0.382935	
-0.382874	
-0.383179	
-0.381592	
-0.382629	
-0.38269	
-0.383484	
-0.383423	
-0.383728	
-0.38385	
-0.384766	
-0.384033	
-0.384216	
-0.383484	
-0.384216	
-0.383789	
-0.384216	
-0.385315	
-0.384705	
-0.384644	
-0.385437	
-0.384827	
-0.385559	
-0.384521	
-0.385193	
-0.38501	
-0.385193	
-0.385681	
-0.385742	
-0.38562	
-0.385986	
-0.38562	
-0.385864	
-0.385193	
-0.385498	
-0.385315	
-0.385681	
-0.386475	
-0.385681	
-0.385986	
-0.386414	
-0.386475	
-0.386841	
-0.386047	
-0.386292	
-0.386292	
-0.386047	
-0.386536	
-0.386292	
-0.386414	
-0.386536	
-0.38678	
-0.386963	
-0.38623	
-0.386414	
-0.38623	
-0.385986	
-0.38623	
-0.385925	
-0.385254	
-0.385498	
-0.38562	
-0.386108	
-0.386169	
-0.385376	
-0.385071	
-0.384583	
-0.385437	
-0.384949	
-0.384888	
-0.385193	
-0.384766	
-0.385437	
-0.385681	
-0.384155	
-0.383118	
-0.382813	
-0.384094	
-0.384155	
-0.383911	
-0.383972	
-0.383606	
-0.384888	
-0.384338	
-0.383423	
-0.382141	
-0.382141	
-0.38324	
-0.383362	
-0.383057	
-0.382935	
-0.38269	
-0.383789	
-0.38324	
-0.382507	
-0.381348	
-0.382202	
-0.38269	
-0.38269	
-0.381958	
-0.382019	
-0.381958	
-0.383301	
-0.382751	
-0.38208	
-0.380981	
-0.381958	
-0.381836	
-0.382874	
-0.382263	
-0.382202	
-0.381042	
-0.382629	
-0.382019	
-0.381592	
-0.380371	
-0.381165	
-0.38147	
-0.382263	
-0.381348	
-0.381592	
-0.380127	
-0.381653	
-0.380859	
-0.380798	
-0.379883	
-0.381104	
-0.381287	
-0.382385	
-0.382019	
-0.38208	
-0.381042	
-0.38269	
-0.382385	
-0.381836	
-0.38092	
-0.381592	
-0.38208	
-0.383423	
-0.382813	
-0.382935	
-0.382202	
-0.384155	
-0.383301	
-0.382629	
-0.382202	
-0.382813	
-0.383545	
-0.384033	
-0.383972	
-0.384094	
-0.383545	
-0.384521	
-0.384766	
-0.383911	
-0.38385	
-0.384216	
-0.384399	
-0.384888	
-0.384644	
-0.384644	
-0.384583	
-0.385315	
-0.385498	
-0.384644	
-0.384277	
-0.384888	
-0.385132	
-0.385437	
-0.385315	
-0.385437	
-0.386108	
-0.385681	
-0.386108	
-0.384583	
-0.385132	
-0.385254	
-0.385376	
-0.386047	
-0.385803	
-0.385742	
-0.386536	
-0.386475	
-0.386902	
-0.385132	
-0.386047	
-0.385925	
-0.386414	
-0.386536	
-0.385803	
-0.386292	
-0.386475	
-0.386292	
-0.386902	
-0.384399	
-0.385254	
-0.384216	
-0.385437	
-0.385559	
-0.384888	
-0.384888	
-0.385254	
-0.385498	
-0.38623	
-0.384155	
-0.384277	
-0.383606	
-0.384766	
-0.384766	
-0.384705	
-0.384583	
-0.38501	
-0.384338	
-0.384827	
-0.384216	
-0.38385	
-0.382935	
-0.383484	
-0.383545	
-0.383545	
-0.383118	
-0.383667	
-0.383301	
-0.383789	
-0.383606	
-0.382813	
-0.382263	
-0.381409	
-0.382324	
-0.382935	
-0.38208	
-0.382141	
-0.381897	
-0.382568	
-0.382629	
-0.381775	
-0.382019	
-0.381226	
-0.382507	
-0.382813	
-0.382202	
-0.382263	
-0.382019	
-0.381836	
-0.382202	
-0.381104	
-0.381165	
-0.380066	
-0.381531	
-0.381836	
-0.381653	
-0.381226	
-0.381226	
-0.38147	
-0.381714	
-0.380737	
-0.380493	
-0.380249	
-0.381531	
-0.382141	
-0.381592	
-0.381958	
-0.38208	
-0.382568	
-0.382568	
-0.381836	
-0.381897	
-0.381714	
-0.382263	
-0.382874	
-0.38269	
-0.383118	
-0.382019	
-0.382935	
-0.383362	
-0.382874	
-0.383118	
-0.382874	
-0.38324	
-0.384155	
-0.383484	
-0.383911	
-0.382751	
-0.384277	
-0.384155	
-0.38324	
-0.383606	
-0.383545	
-0.384216	
-0.385132	
-0.384094	
-0.384583	
-0.383423	
-0.385742	
-0.385376	
-0.384705	
-0.384338	
-0.384399	
-0.385254	
-0.386047	
-0.38501	
-0.38501	
-0.384521	
-0.386536	
-0.385193	
-0.38562	
-0.384277	
-0.385742	
-0.385803	
-0.386108	
-0.385925	
-0.385986	
-0.385986	
-0.387329	
-0.385925	
-0.386536	
-0.385254	
-0.385864	
-0.386841	
-0.386841	
-0.386475	
-0.386292	
-0.386536	
-0.387634	
-0.386841	
-0.387146	
-0.385803	
-0.386719	
-0.386658	
-0.386597	
-0.386169	
-0.385986	
-0.385681	
-0.38623	
-0.385559	
-0.38501	
-0.384338	
-0.384949	
-0.385437	
-0.384888	
-0.384888	
-0.384277	
-0.384094	
-0.384583	
-0.384399	
-0.383789	
-0.382751	
-0.383301	
-0.383362	
-0.383789	
-0.383057	
-0.383118	
-0.382813	
-0.383484	
-0.383545	
-0.383057	
-0.382019	
-0.381042	
-0.382141	
-0.382385	
-0.382202	
-0.382507	
-0.38208	
-0.382324	
-0.382568	
-0.382446	
-0.381653	
-0.38092	
-0.381409	
-0.381897	
-0.382019	
-0.381653	
-0.38147	
-0.38147	
-0.381775	
-0.382019	
-0.38092	
-0.380188	
-0.380005	
-0.381165	
-0.381653	
-0.380859	
-0.381042	
-0.381042	
-0.381836	
-0.382202	
-0.38092	
-0.380554	
-0.379944	
-0.382019	
-0.383057	
-0.382202	
-0.382263	
-0.381714	
-0.382751	
-0.382813	
-0.382019	
-0.381714	
-0.380981	
-0.382324	
-0.382996	
-0.382202	
-0.382263	
-0.381531	
-0.383301	
-0.38324	
-0.382629	
-0.382141	
-0.382446	
-0.38324	
-0.384277	
-0.383118	
-0.383484	
-0.382813	
-0.384155	
-0.383972	
-0.383789	
-0.382507	
-0.382813	
-0.383545	
-0.384155	
-0.383911	
-0.384888	
-0.38385	
-0.38501	
-0.384705	
-0.384277	
-0.383118	
-0.383728	
-0.384216	
-0.385193	
-0.384644	
-0.385376	
-0.38446	
-0.385803	
-0.384827	
-0.384338	
-0.383545	
-0.383789	
-0.385193	
-0.385254	
-0.384705	
-0.385925	
-0.384521	
-0.385925	
-0.384766	
-0.385498	
-0.384644	
-0.384705	
-0.385864	
-0.385559	
-0.385986	
-0.386597	
-0.38562	
-0.386536	
-0.385437	
-0.386414	
-0.385681	
-0.385498	
-0.385925	
-0.385803	
-0.385376	
-0.385925	
-0.385254	
-0.385437	
-0.384583	
-0.384705	
-0.384399	
-0.384949	
-0.384827	
-0.384644	
-0.38446	
-0.384766	
-0.38385	
-0.383972	
-0.38385	
-0.38385	
-0.383362	
-0.383179	
-0.382996	
-0.383789	
-0.383179	
-0.383484	
-0.382629	
-0.383118	
-0.383057	
-0.382263	
-0.382019	
	
