C:\DOCUMENTS AND SETTINGS\JASON\DESKTOP\UFRJ\UFRJ EPHYS\RSCI-BM 12 WK SERIES\070806-RSCI-BM-16\RSCI-BM-16-REMG\070806-RSCI-BM-16-REMG-0006.ACQ
0.025000 msec/sample
1 channel
Analog input
Volts
CH1	
2000	
-0.382874	
-0.383545	
-0.383911	
-0.383667	
-0.383972	
-0.384705	
-0.383728	
-0.384521	
-0.382996	
-0.383667	
-0.382568	
-0.383057	
-0.383362	
-0.382813	
-0.382507	
-0.382996	
-0.381836	
-0.382446	
-0.381409	
-0.381592	
-0.381042	
-0.380432	
-0.381409	
-0.380798	
-0.381531	
-0.381897	
-0.381226	
-0.381775	
-0.381042	
-0.381042	
-0.38147	
-0.38031	
-0.381592	
-0.380188	
-0.381042	
-0.381958	
-0.381958	
-0.38147	
-0.381042	
-0.380981	
-0.381714	
-0.379333	
-0.381104	
-0.38031	
-0.380615	
-0.381165	
-0.380493	
-0.380981	
-0.380615	
-0.380371	
-0.381531	
-0.380066	
-0.381592	
-0.381653	
-0.381653	
-0.382446	
-0.382385	
-0.382446	
-0.382629	
-0.382629	
-0.382996	
-0.381836	
-0.383179	
-0.383179	
-0.383301	
-0.383606	
-0.383362	
-0.383423	
-0.383423	
-0.383972	
-0.383545	
-0.382813	
-0.384033	
-0.383972	
-0.383728	
-0.384216	
-0.383911	
-0.383179	
-0.383362	
-0.383667	
-0.383118	
-0.38269	
-0.383667	
-0.383301	
-0.38324	
-0.383667	
-0.383606	
-0.383362	
-0.383118	
-0.382874	
-0.383362	
-0.382874	
-0.383484	
-0.383484	
-0.383118	
-0.383789	
-0.384094	
-0.383545	
-0.382813	
-0.383301	
-0.383484	
-0.383484	
-0.384155	
-0.383484	
-0.383545	
-0.383972	
-0.384033	
-0.383606	
-0.382935	
-0.383179	
-0.383423	
-0.38385	
-0.384338	
-0.383423	
-0.383545	
-0.383972	
-0.384277	
-0.383362	
-0.382385	
-0.383118	
-0.383057	
-0.383057	
-0.383484	
-0.382935	
-0.383118	
-0.382629	
-0.384033	
-0.383057	
-0.382507	
-0.38269	
-0.38269	
-0.382935	
-0.382568	
-0.382751	
-0.383179	
-0.382935	
-0.384216	
-0.383118	
-0.38208	
-0.382874	
-0.383057	
-0.382996	
-0.382874	
-0.383057	
-0.382935	
-0.382751	
-0.383179	
-0.381958	
-0.381042	
-0.381531	
-0.381409	
-0.381409	
-0.381104	
-0.381653	
-0.381226	
-0.381409	
-0.38147	
-0.381348	
-0.3797	
-0.381226	
-0.380859	
-0.380798	
-0.380981	
-0.380676	
-0.38092	
-0.382202	
-0.381348	
-0.381714	
-0.380188	
-0.382385	
-0.381348	
-0.381592	
-0.382141	
-0.381897	
-0.38208	
-0.383118	
-0.382507	
-0.382568	
-0.381409	
-0.383301	
-0.382141	
-0.382813	
-0.382935	
-0.382629	
-0.382629	
-0.38324	
-0.382568	
-0.381958	
-0.381226	
-0.38208	
-0.381714	
-0.381897	
-0.381714	
-0.382202	
-0.381958	
-0.382629	
-0.38208	
-0.373535	
-0.367126	
-0.367065	
-0.36731	
-0.367432	
-0.36792	
-0.376526	
-0.381531	
-0.383118	
-0.382263	
-0.381836	
-0.38147	
-0.380981	
-0.380615	
-0.380554	
-0.380798	
-0.380676	
-0.380127	
-0.380615	
-0.379883	
-0.379517	
-0.379395	
-0.3797	
-0.379028	
-0.379456	
-0.37915	
-0.379395	
-0.379333	
-0.379578	
-0.379395	
-0.379639	
-0.379211	
-0.379578	
-0.379333	
-0.379395	
-0.379883	
-0.380066	
-0.380432	
-0.380615	
-0.38031	
-0.371948	
-0.367004	
-0.365845	
-0.365417	
-0.365601	
-0.366211	
-0.375732	
-0.380737	
-0.38147	
-0.381531	
-0.382019	
-0.381897	
-0.38147	
-0.380432	
-0.381287	
-0.381226	
-0.38147	
-0.381409	
-0.381592	
-0.381531	
-0.381592	
-0.381409	
-0.381226	
-0.380554	
-0.381653	
-0.381592	
-0.381348	
-0.381958	
-0.381714	
-0.381348	
-0.381165	
-0.380798	
-0.381165	
-0.38031	
-0.381531	
-0.381104	
-0.381104	
-0.381287	
-0.381287	
-0.380859	
-0.380371	
-0.380371	
-0.380371	
-0.379883	
-0.381165	
-0.380676	
-0.380432	
-0.380432	
-0.38092	
-0.380798	
-0.381287	
-0.380432	
-0.380798	
-0.380432	
-0.382446	
-0.382202	
-0.382446	
-0.382385	
-0.384094	
-0.384338	
-0.386475	
-0.385376	
-0.38678	
-0.385986	
-0.389771	
-0.390625	
-0.391846	
-0.39325	
-0.395203	
-0.396301	
-0.398315	
-0.399475	
-0.401733	
-0.404236	
-0.406433	
-0.40802	
-0.410583	
-0.411987	
-0.413208	
-0.414917	
-0.415649	
-0.417175	
-0.416931	
-0.419067	
-0.41925	
-0.418945	
-0.418762	
-0.419067	
-0.417786	
-0.418518	
-0.415894	
-0.41571	
-0.415771	
-0.415649	
-0.41626	
-0.417114	
-0.418213	
-0.41925	
-0.420898	
-0.423035	
-0.425659	
-0.42749	
-0.431458	
-0.431763	
-0.433533	
-0.434692	
-0.437195	
-0.439026	
-0.441284	
-0.4422	
-0.444092	
-0.444397	
-0.447571	
-0.447754	
-0.448547	
-0.449036	
-0.449219	
-0.449707	
-0.450623	
-0.449158	
-0.448364	
-0.446228	
-0.447083	
-0.446106	
-0.444885	
-0.443359	
-0.442383	
-0.440186	
-0.440796	
-0.437622	
-0.437073	
-0.436157	
-0.435486	
-0.434509	
-0.433655	
-0.432922	
-0.43335	
-0.431335	
-0.431763	
-0.429932	
-0.430481	
-0.43158	
-0.430664	
-0.430847	
-0.430908	
-0.431702	
-0.432312	
-0.431702	
-0.432617	
-0.431641	
-0.43158	
-0.431763	
-0.430664	
-0.428955	
-0.42749	
-0.42627	
-0.424316	
-0.420532	
-0.418518	
-0.414856	
-0.410889	
-0.408081	
-0.403259	
-0.39978	
-0.395935	
-0.392578	
-0.388855	
-0.386475	
-0.381287	
-0.379089	
-0.375244	
-0.374512	
-0.37207	
-0.370667	
-0.370178	
-0.368591	
-0.367798	
-0.368774	
-0.367737	
-0.36853	
-0.367249	
-0.370117	
-0.370544	
-0.371277	
-0.372864	
-0.373169	
-0.372864	
-0.374268	
-0.371826	
-0.371399	
-0.369263	
-0.371033	
-0.369629	
-0.369324	
-0.369263	
-0.369324	
-0.368774	
-0.369934	
-0.368896	
-0.368713	
-0.368774	
-0.369995	
-0.370117	
-0.370789	
-0.371399	
-0.372925	
-0.373596	
-0.373779	
-0.373535	
-0.375	
-0.376343	
-0.376831	
-0.377563	
-0.377869	
-0.378357	
-0.379944	
-0.378906	
-0.379761	
-0.380066	
-0.380188	
-0.382324	
-0.382263	
-0.383484	
-0.383423	
-0.384155	
-0.384766	
-0.386292	
-0.385071	
-0.384583	
-0.383484	
-0.385315	
-0.384705	
-0.384949	
-0.384338	
-0.384521	
-0.384216	
-0.384705	
-0.383057	
-0.38269	
-0.383057	
-0.38269	
-0.382568	
-0.382019	
-0.38147	
-0.381775	
-0.380127	
-0.380127	
-0.378174	
-0.378174	
-0.378662	
-0.377625	
-0.377014	
-0.376587	
-0.376282	
-0.376831	
-0.375549	
-0.375366	
-0.374023	
-0.372864	
-0.374268	
-0.372986	
-0.372375	
-0.371704	
-0.371338	
-0.370422	
-0.371033	
-0.368774	
-0.367737	
-0.366089	
-0.365906	
-0.365112	
-0.363708	
-0.36261	
-0.361877	
-0.360046	
-0.359253	
-0.356567	
-0.356201	
-0.35498	
-0.35376	
-0.352722	
-0.35199	
-0.350708	
-0.351013	
-0.349182	
-0.349182	
-0.347107	
-0.346375	
-0.348083	
-0.347412	
-0.346802	
-0.347412	
-0.347168	
-0.346802	
-0.348083	
-0.347107	
-0.347656	
-0.347168	
-0.34845	
-0.349243	
-0.349854	
-0.350525	
-0.351318	
-0.351501	
-0.353027	
-0.352295	
-0.353149	
-0.354614	
-0.355225	
-0.356018	
-0.356628	
-0.358154	
-0.360107	
-0.360291	
-0.361084	
-0.361511	
-0.362183	
-0.36377	
-0.365173	
-0.364563	
-0.365845	
-0.366089	
-0.366211	
-0.368042	
-0.366638	
-0.366394	
-0.365417	
-0.366394	
-0.366638	
-0.366089	
-0.366333	
-0.366638	
-0.36676	
-0.367249	
-0.366272	
-0.366211	
-0.366943	
-0.366394	
-0.365845	
-0.366089	
-0.366089	
-0.366516	
-0.365295	
-0.365234	
-0.363892	
-0.364746	
-0.364807	
-0.364746	
-0.364563	
-0.36499	
-0.364929	
-0.364929	
-0.365601	
-0.364624	
-0.364746	
-0.363464	
-0.365112	
-0.364868	
-0.364624	
-0.36499	
-0.365234	
-0.365479	
-0.36676	
-0.365967	
-0.366211	
-0.366394	
-0.36676	
-0.366699	
-0.366516	
-0.367065	
-0.367615	
-0.366333	
-0.367371	
-0.366089	
-0.366516	
-0.367981	
-0.367249	
-0.367371	
-0.368347	
-0.368408	
-0.368408	
-0.369324	
-0.368652	
-0.368896	
-0.368958	
-0.370117	
-0.3703	
-0.370789	
-0.370911	
-0.371887	
-0.372498	
-0.373169	
-0.373047	
-0.373596	
-0.373413	
-0.374329	
-0.37439	
-0.374817	
-0.374573	
-0.375427	
-0.374634	
-0.37561	
-0.374817	
-0.375427	
-0.375305	
-0.375793	
-0.375671	
-0.375183	
-0.374756	
-0.375427	
-0.374207	
-0.375366	
-0.374207	
-0.374329	
-0.374878	
-0.374756	
-0.375732	
-0.375427	
-0.376282	
-0.377258	
-0.377625	
-0.377747	
-0.376587	
-0.376465	
-0.378418	
-0.378235	
-0.378662	
-0.378479	
-0.37915	
-0.378784	
-0.379944	
-0.3797	
-0.3797	
-0.380127	
-0.380371	
-0.380859	
-0.381775	
-0.381104	
-0.381287	
-0.381042	
-0.38147	
-0.380615	
-0.380371	
-0.381165	
-0.379944	
-0.380249	
-0.378845	
-0.380188	
-0.380554	
-0.381042	
-0.381104	
-0.379761	
-0.380249	
-0.380371	
-0.380249	
-0.381104	
-0.380554	
-0.380615	
-0.380615	
-0.380676	
-0.381104	
-0.379028	
-0.380615	
-0.380127	
-0.380981	
-0.381226	
-0.381042	
-0.381165	
-0.381897	
-0.380432	
-0.380188	
-0.378784	
-0.380432	
-0.379883	
-0.380005	
-0.378967	
-0.380432	
-0.3797	
-0.38092	
-0.380005	
-0.379639	
-0.379822	
-0.380676	
-0.380859	
-0.381165	
-0.380493	
-0.380615	
-0.380493	
-0.381165	
-0.381592	
-0.380676	
-0.381042	
-0.380188	
-0.380981	
-0.380981	
-0.381165	
-0.380737	
-0.380493	
-0.380981	
-0.381287	
-0.380676	
-0.381165	
-0.379761	
-0.38092	
-0.381348	
-0.381042	
-0.380493	
-0.380249	
-0.381104	
-0.381348	
-0.380676	
-0.381409	
-0.38147	
-0.381348	
-0.381836	
-0.381897	
-0.381836	
-0.382751	
-0.381775	
-0.382141	
-0.381287	
-0.382751	
-0.382751	
-0.383301	
-0.383301	
-0.383484	
-0.383301	
-0.384583	
-0.384155	
-0.383972	
-0.382813	
-0.38446	
-0.383606	
-0.383606	
-0.382385	
-0.383179	
-0.383728	
-0.384216	
-0.384338	
-0.383118	
-0.382263	
-0.382568	
-0.382935	
-0.383484	
-0.382996	
-0.382629	
-0.382874	
-0.383423	
-0.383423	
-0.38147	
-0.382141	
-0.382385	
-0.382507	
-0.38324	
-0.382813	
-0.382751	
-0.383301	
-0.383728	
-0.383057	
-0.382568	
-0.383667	
-0.38324	
-0.383545	
-0.384094	
-0.383667	
-0.38385	
-0.38269	
-0.384277	
-0.383911	
-0.384033	
-0.385315	
-0.384521	
-0.384644	
-0.383667	
-0.384277	
-0.384155	
-0.383606	
-0.38385	
-0.382446	
-0.382751	
-0.383301	
-0.382813	
-0.382263	
-0.382568	
-0.382568	
-0.382141	
-0.38269	
-0.382141	
-0.380615	
-0.380066	
-0.380249	
-0.380676	
-0.380676	
-0.381226	
-0.380798	
-0.381897	
-0.381897	
-0.382202	
-0.380737	
-0.382141	
-0.381226	
-0.382202	
-0.382263	
-0.382446	
-0.382385	
-0.383362	
-0.382629	
-0.383179	
-0.382813	
-0.383484	
-0.383301	
-0.382996	
-0.382507	
-0.382935	
-0.38269	
-0.383423	
-0.383057	
-0.382751	
-0.382507	
-0.382751	
-0.382263	
-0.38208	
-0.381714	
-0.38208	
-0.382507	
-0.382141	
-0.382446	
-0.382019	
-0.381531	
-0.383057	
-0.382263	
-0.381653	
-0.381775	
-0.381897	
-0.382385	
-0.381592	
-0.381836	
-0.380859	
-0.380371	
-0.381104	
-0.380615	
-0.380554	
-0.381226	
-0.380005	
-0.380066	
-0.378845	
-0.379028	
-0.378296	
-0.377808	
-0.378174	
-0.378174	
-0.377869	
-0.378845	
-0.378174	
-0.378479	
-0.378601	
-0.378784	
-0.377258	
-0.377563	
-0.378235	
-0.37854	
-0.378967	
-0.37915	
-0.379761	
-0.380005	
-0.380127	
-0.380554	
-0.379883	
-0.380554	
-0.379761	
-0.380493	
-0.380371	
-0.38031	
-0.380554	
-0.380859	
-0.380859	
-0.381042	
-0.381226	
-0.382141	
-0.380554	
-0.381714	
-0.381287	
-0.381775	
-0.381653	
-0.382019	
-0.382263	
-0.38269	
-0.382019	
-0.382568	
-0.381775	
-0.382568	
-0.382751	
-0.38324	
-0.382874	
-0.383118	
-0.382629	
-0.382324	
-0.38208	
-0.382629	
-0.38269	
-0.38208	
-0.383179	
-0.38269	
-0.38324	
-0.382324	
-0.382141	
-0.380737	
-0.381775	
-0.382141	
-0.381958	
-0.381836	
-0.382629	
-0.381348	
-0.382568	
-0.380981	
-0.381287	
-0.381104	
-0.380981	
-0.380615	
-0.38092	
-0.380798	
-0.381348	
-0.38031	
-0.380615	
-0.379272	
-0.380005	
-0.379333	
-0.379517	
-0.378967	
-0.378723	
-0.378235	
-0.379211	
-0.379089	
-0.378845	
-0.378357	
-0.378479	
-0.377991	
-0.378967	
-0.377686	
-0.378113	
-0.377319	
-0.378174	
-0.378967	
-0.378601	
-0.378601	
-0.378662	
-0.378113	
-0.37915	
-0.377808	
-0.37793	
-0.37793	
-0.37793	
-0.377808	
-0.377686	
-0.377136	
-0.377197	
-0.376709	
-0.376953	
-0.37561	
-0.376648	
-0.376892	
-0.376465	
-0.376648	
-0.376892	
-0.376343	
-0.376404	
-0.375427	
-0.375916	
-0.375977	
-0.376526	
-0.37738	
-0.37677	
-0.377075	
-0.376404	
-0.377502	
-0.377747	
-0.377869	
-0.378174	
-0.378784	
-0.378662	
-0.379578	
-0.379456	
-0.380188	
-0.379333	
-0.379395	
-0.378174	
-0.379883	
-0.379578	
-0.379517	
-0.379211	
-0.380188	
-0.3797	
-0.381165	
-0.380005	
-0.38031	
-0.379028	
-0.381165	
-0.379761	
-0.380005	
-0.379211	
-0.380493	
-0.380554	
-0.381836	
-0.38031	
-0.381042	
-0.380249	
-0.381897	
-0.380981	
-0.380676	
-0.380798	
-0.381409	
-0.381226	
-0.381531	
-0.380615	
-0.38092	
-0.379272	
-0.380859	
-0.379333	
-0.379761	
-0.380493	
-0.379456	
-0.379822	
-0.378418	
-0.379272	
-0.379272	
-0.379089	
-0.378845	
-0.377808	
-0.378662	
-0.379578	
-0.378601	
-0.379211	
-0.378723	
-0.378906	
-0.378967	
-0.379028	
-0.378967	
-0.377991	
-0.378784	
-0.379028	
-0.379028	
-0.379456	
-0.379028	
-0.379333	
-0.379395	
-0.379517	
-0.379028	
-0.378845	
-0.379089	
-0.379272	
-0.380005	
-0.380127	
-0.379639	
-0.379639	
-0.379395	
-0.380432	
-0.379211	
-0.379089	
-0.378784	
-0.379456	
-0.379272	
-0.38031	
-0.379395	
-0.379211	
-0.378052	
-0.379883	
-0.379578	
-0.379456	
-0.380066	
-0.379578	
-0.379089	
-0.379944	
-0.3797	
-0.379456	
-0.378418	
-0.379517	
-0.379761	
-0.379761	
-0.380615	
-0.380249	
-0.380005	
-0.380554	
-0.3797	
-0.380249	
-0.379761	
-0.380005	
-0.379944	
-0.380188	
-0.380432	
-0.38031	
-0.380737	
-0.381409	
-0.380249	
-0.380676	
-0.380798	
-0.380493	
-0.379272	
-0.380371	
-0.38031	
-0.379517	
-0.380737	
-0.380005	
-0.3797	
-0.379761	
-0.38031	
-0.3797	
-0.378601	
-0.380127	
-0.380615	
-0.380554	
-0.381226	
-0.381042	
-0.38147	
-0.380554	
-0.382263	
-0.381592	
-0.381348	
-0.381165	
-0.381714	
-0.381836	
-0.381287	
-0.381775	
-0.382019	
-0.381287	
-0.383057	
-0.381714	
-0.381653	
-0.383057	
-0.38208	
-0.382202	
-0.381104	
-0.381714	
-0.381592	
-0.381104	
-0.38147	
-0.380859	
-0.381287	
-0.381836	
-0.380676	
-0.381348	
-0.380554	
-0.380737	
-0.380737	
-0.380981	
-0.380737	
-0.380005	
-0.380798	
-0.381104	
-0.381104	
-0.38147	
-0.381775	
-0.381531	
-0.381958	
-0.381897	
-0.381653	
-0.380798	
-0.381836	
-0.381531	
-0.381409	
-0.381836	
-0.381653	
-0.381653	
-0.381042	
-0.381958	
-0.381775	
-0.382141	
-0.382019	
-0.382324	
-0.38269	
-0.384155	
-0.383057	
-0.382874	
-0.381042	
-0.383118	
-0.38324	
-0.383972	
-0.383667	
-0.384094	
-0.384155	
-0.386108	
-0.38446	
-0.384705	
-0.384033	
-0.385254	
-0.384766	
-0.385071	
-0.38501	
-0.385437	
-0.385071	
-0.385986	
-0.384888	
-0.385254	
-0.384766	
-0.384888	
-0.384338	
-0.384033	
-0.384216	
-0.383972	
-0.384399	
-0.383484	
-0.383362	
-0.384399	
-0.383789	
-0.38385	
-0.382507	
-0.38385	
-0.384033	
-0.38385	
-0.383911	
-0.382813	
-0.383606	
-0.383911	
-0.383362	
-0.383728	
-0.382568	
-0.383484	
-0.383606	
-0.383911	
-0.38385	
-0.382446	
-0.383484	
-0.383057	
-0.383667	
-0.383728	
-0.383728	
-0.383362	
-0.383728	
-0.38324	
-0.384277	
-0.382507	
-0.383667	
-0.38208	
-0.383545	
-0.383545	
-0.383728	
-0.383606	
-0.383911	
-0.383728	
-0.384949	
-0.383789	
-0.38385	
-0.382019	
-0.384033	
-0.384338	
-0.38385	
-0.38446	
-0.383911	
-0.384338	
-0.385864	
-0.384583	
-0.384766	
-0.382996	
-0.384583	
-0.385193	
-0.385315	
-0.385193	
-0.384644	
-0.385864	
-0.386536	
-0.385925	
-0.386597	
-0.38562	
-0.385803	
-0.386108	
-0.386475	
-0.386719	
-0.385803	
-0.387024	
-0.38678	
-0.386597	
-0.38739	
-0.387024	
-0.38678	
-0.387146	
-0.386902	
-0.386475	
-0.38562	
-0.38678	
-0.386292	
-0.38623	
-0.386292	
-0.385925	
-0.386597	
-0.387329	
-0.387268	
-0.387329	
-0.385986	
-0.387817	
-0.38678	
-0.388	
-0.387268	
-0.387939	
-0.387939	
-0.389038	
-0.388306	
-0.388611	
-0.38739	
-0.389099	
-0.387512	
-0.388855	
-0.387634	
-0.388245	
-0.388428	
-0.389587	
-0.388306	
-0.388916	
-0.386902	
-0.389282	
-0.386902	
-0.387939	
-0.38562	
-0.386597	
-0.385498	
-0.387329	
-0.386414	
-0.386658	
-0.385559	
-0.387024	
-0.385254	
-0.386719	
-0.385681	
-0.386353	
-0.385193	
-0.386658	
-0.385864	
-0.38623	
-0.385376	
-0.38678	
-0.385803	
-0.386353	
-0.385376	
-0.386047	
-0.385864	
-0.386658	
-0.386353	
-0.386475	
-0.385986	
-0.386536	
-0.385742	
-0.385803	
-0.384583	
-0.385193	
-0.385742	
-0.385925	
-0.385559	
-0.385742	
-0.38623	
-0.386902	
-0.386353	
-0.385559	
-0.38623	
-0.386963	
-0.387451	
-0.387695	
-0.387573	
-0.387329	
-0.388672	
-0.388489	
-0.387939	
-0.387146	
-0.388	
-0.388245	
-0.388611	
-0.388184	
-0.388428	
-0.388611	
-0.389465	
-0.389038	
-0.388428	
-0.388489	
-0.388367	
-0.388489	
-0.38855	
-0.388794	
-0.389099	
-0.388733	
-0.388916	
-0.388245	
-0.388733	
-0.387939	
-0.388123	
-0.387939	
-0.388611	
-0.388306	
-0.387878	
-0.388123	
-0.388306	
-0.388	
-0.388733	
-0.388245	
-0.388733	
-0.387451	
-0.388916	
-0.388672	
-0.388794	
-0.388672	
-0.388733	
-0.388428	
-0.38916	
-0.388123	
-0.388489	
-0.387268	
-0.388794	
-0.38855	
-0.389099	
-0.389099	
-0.388977	
-0.38855	
-0.388306	
-0.388367	
-0.388428	
-0.388672	
-0.388733	
-0.388123	
-0.388916	
-0.388245	
-0.388489	
-0.388123	
-0.387634	
-0.387878	
-0.387878	
-0.388123	
-0.388855	
-0.387939	
-0.388611	
-0.387634	
-0.388184	
-0.386963	
-0.388062	
-0.387817	
-0.387817	
-0.388367	
-0.389099	
-0.388367	
-0.388977	
-0.387634	
-0.388306	
-0.386841	
-0.388611	
-0.387878	
-0.387695	
-0.387756	
-0.388733	
-0.38739	
-0.388123	
-0.385681	
-0.387146	
-0.38562	
-0.386353	
-0.386047	
-0.386353	
-0.386047	
-0.387024	
-0.386292	
-0.387146	
-0.385681	
-0.386353	
-0.385498	
-0.385864	
-0.385437	
-0.386108	
-0.386536	
-0.387268	
-0.386719	
-0.387695	
-0.386963	
-0.387634	
-0.386963	
-0.387329	
-0.386292	
-0.386963	
-0.387512	
-0.387817	
-0.387451	
-0.388428	
-0.387817	
-0.388733	
-0.387878	
-0.387512	
-0.386536	
-0.387634	
-0.387268	
-0.387329	
-0.387207	
-0.387512	
-0.386963	
-0.388	
-0.386841	
-0.387146	
-0.386169	
-0.387024	
-0.387146	
-0.387146	
-0.387451	
-0.386963	
-0.387268	
-0.387695	
-0.386658	
-0.386597	
-0.386719	
-0.386475	
-0.386841	
-0.385925	
-0.386475	
-0.386536	
-0.386292	
-0.385925	
-0.384583	
-0.385315	
-0.385193	
-0.384766	
-0.38562	
-0.384521	
-0.384644	
-0.38446	
-0.384521	
-0.383972	
-0.38385	
-0.384155	
-0.384399	
-0.383789	
-0.385193	
-0.384155	
-0.384766	
-0.383911	
-0.38446	
-0.384094	
-0.385498	
-0.38501	
-0.385254	
-0.384094	
-0.386169	
-0.38562	
-0.38623	
-0.384033	
-0.385315	
-0.384705	
-0.386108	
-0.385132	
-0.385193	
-0.384766	
-0.386353	
-0.386108	
-0.386902	
-0.385864	
-0.386108	
-0.384827	
-0.38678	
-0.386108	
-0.385803	
-0.385071	
-0.386475	
-0.386169	
-0.387146	
-0.385925	
-0.385925	
-0.384766	
-0.387024	
-0.385986	
-0.386169	
-0.385437	
-0.386414	
-0.386414	
-0.38739	
-0.386169	
-0.38623	
-0.38501	
-0.386719	
-0.385803	
-0.385925	
-0.386047	
-0.385742	
-0.385986	
-0.387024	
-0.385254	
-0.38562	
-0.384338	
-0.386475	
-0.38501	
-0.385254	
-0.385925	
-0.385376	
-0.385254	
-0.386292	
-0.385193	
-0.384583	
-0.383789	
-0.384888	
-0.384277	
-0.384277	
-0.384521	
-0.384094	
-0.384033	
-0.383789	
-0.383972	
-0.383789	
-0.383545	
-0.383484	
-0.383118	
-0.382996	
-0.383728	
-0.38324	
-0.383057	
-0.382141	
-0.383118	
-0.383301	
-0.382935	
-0.383301	
-0.382629	
-0.383179	
-0.384766	
-0.383789	
-0.384155	
-0.38269	
-0.383606	
-0.384644	
-0.383728	
-0.383057	
-0.382385	
-0.382507	
-0.383362	
-0.382263	
-0.382324	
-0.381165	
-0.381775	
-0.382141	
-0.381592	
-0.38147	
-0.38147	
-0.381348	
-0.382141	
-0.381592	
-0.381836	
-0.380066	
-0.38147	
-0.381348	
-0.381409	
-0.381592	
-0.381348	
-0.381287	
-0.382263	
-0.382141	
-0.382996	
-0.382324	
-0.383362	
-0.383118	
-0.383972	
-0.383362	
-0.383606	
-0.383423	
-0.384155	
-0.383972	
-0.384399	
-0.383911	
-0.383545	
-0.382996	
-0.384888	
-0.383789	
-0.384277	
-0.383423	
-0.384155	
-0.384033	
-0.385193	
-0.384338	
-0.384033	
-0.383179	
-0.385071	
-0.38385	
-0.384277	
-0.383728	
-0.384766	
-0.384521	
-0.385315	
-0.384827	
-0.384888	
-0.384644	
-0.385559	
-0.384521	
-0.384155	
-0.38385	
-0.384644	
-0.384338	
-0.38446	
-0.383545	
-0.383667	
-0.382996	
-0.383545	
-0.381775	
-0.382446	
-0.381775	
-0.382446	
-0.382324	
-0.382385	
-0.381958	
-0.382446	
-0.38147	
-0.38269	
-0.380798	
-0.381897	
-0.380981	
-0.381714	
-0.382385	
-0.382141	
-0.381592	
-0.382141	
-0.380798	
-0.382568	
-0.380371	
-0.382141	
-0.381409	
-0.38269	
-0.38324	
-0.382568	
-0.38208	
-0.381897	
-0.381531	
-0.383179	
-0.381348	
-0.382446	
-0.382263	
-0.382813	
-0.383301	
-0.382874	
-0.382446	
-0.381226	
-0.380981	
-0.382568	
-0.382385	
-0.38208	
-0.382568	
-0.382385	
-0.38324	
-0.382141	
-0.382019	
-0.381409	
-0.381592	
-0.382263	
-0.382202	
-0.382019	
-0.383362	
-0.382507	
-0.382751	
-0.381958	
-0.382385	
-0.382263	
-0.382141	
-0.382568	
-0.382385	
-0.382324	
-0.38385	
-0.382446	
-0.382935	
-0.382202	
-0.382935	
-0.382996	
-0.382996	
-0.382874	
-0.382874	
-0.382813	
-0.383789	
-0.383118	
-0.382874	
-0.382263	
-0.38324	
-0.382813	
-0.382874	
-0.382385	
-0.382507	
-0.382385	
-0.383728	
-0.382935	
-0.382813	
-0.381775	
-0.383728	
-0.383179	
-0.383667	
-0.382996	
-0.384216	
-0.383667	
-0.385071	
-0.384705	
-0.384399	
-0.383789	
-0.385071	
-0.384583	
-0.385193	
-0.384155	
-0.384827	
-0.384705	
-0.385742	
-0.385376	
-0.384949	
-0.384583	
-0.38562	
-0.384705	
-0.384827	
-0.384155	
-0.384766	
-0.384094	
-0.384827	
-0.384705	
-0.38385	
-0.38385	
-0.383911	
-0.383789	
-0.383362	
-0.383362	
-0.383423	
-0.382751	
-0.384033	
-0.384399	
-0.383545	
-0.383728	
-0.382935	
-0.383728	
-0.384033	
-0.383911	
-0.384216	
-0.384033	
-0.385132	
-0.384827	
-0.384766	
-0.384521	
-0.383179	
-0.384338	
-0.384827	
-0.384399	
-0.38385	
-0.383606	
-0.384644	
-0.385254	
-0.384827	
-0.385132	
-0.38501	
-0.385132	
-0.385986	
-0.385193	
-0.385193	
-0.384766	
-0.385864	
-0.386597	
-0.386597	
-0.38623	
-0.386292	
-0.386353	
-0.38739	
-0.386536	
-0.38678	
-0.386658	
-0.387268	
-0.387817	
-0.387146	
-0.388123	
-0.388123	
-0.387024	
-0.388	
-0.387512	
-0.387512	
-0.386841	
-0.387268	
-0.38739	
-0.387329	
-0.386475	
-0.385925	
-0.385986	
-0.386292	
-0.386169	
-0.385742	
-0.386353	
-0.386292	
-0.386169	
-0.386169	
-0.385925	
-0.385742	
-0.384949	
-0.385193	
-0.385864	
-0.385376	
-0.385803	
-0.385315	
-0.385071	
-0.385986	
-0.385681	
-0.385559	
-0.384338	
-0.384827	
-0.385681	
-0.385315	
-0.386658	
-0.385986	
-0.385254	
-0.385681	
-0.385742	
-0.385315	
-0.383972	
-0.384644	
-0.385315	
-0.385254	
-0.386169	
-0.385559	
-0.385498	
-0.385498	
-0.385803	
-0.385498	
-0.384705	
-0.385071	
-0.385254	
-0.385742	
-0.386658	
-0.385681	
-0.386108	
-0.385193	
-0.385864	
-0.385803	
-0.386292	
-0.385376	
-0.386169	
-0.386169	
-0.38739	
-0.387634	
-0.386963	
-0.386353	
-0.386841	
-0.386841	
-0.387695	
-0.386414	
-0.387817	
-0.387451	
-0.388184	
-0.388672	
-0.388	
-0.387878	
-0.387817	
-0.387634	
-0.388489	
-0.387085	
-0.388733	
-0.388184	
-0.388733	
-0.389221	
-0.387695	
-0.388	
-0.387634	
-0.387146	
-0.387756	
-0.387024	
-0.387512	
-0.387207	
-0.388123	
-0.388611	
-0.388245	
-0.388855	
-0.388306	
-0.388611	
-0.388916	
-0.388794	
-0.389221	
-0.389099	
-0.389038	
-0.389648	
-0.389221	
-0.389282	
-0.389709	
	
