C:\DOCUMENTS AND SETTINGS\JASON\DESKTOP\UFRJ\UFRJ EPHYS\RSCI-BM 12 WK SERIES\070806-RSCI-BM-16\RSCI-BM-16-REMG\070806-RSCI-BM-16-REMG-0002.ACQ
0.025000 msec/sample
1 channel
Analog input
Volts
CH1	
2000	
-0.383301	
-0.382141	
-0.38385	
-0.383362	
-0.383606	
-0.383606	
-0.383728	
-0.383789	
-0.384583	
-0.384705	
-0.383301	
-0.382813	
-0.382935	
-0.383728	
-0.383545	
-0.383179	
-0.383179	
-0.382385	
-0.383057	
-0.383362	
-0.381836	
-0.381287	
-0.380859	
-0.382141	
-0.381653	
-0.38147	
-0.381287	
-0.381165	
-0.381287	
-0.380798	
-0.380981	
-0.380371	
-0.380371	
-0.381348	
-0.380371	
-0.380554	
-0.380737	
-0.380127	
-0.380249	
-0.379333	
-0.380737	
-0.379639	
-0.379822	
-0.380188	
-0.379944	
-0.379578	
-0.379211	
-0.379822	
-0.3797	
-0.3797	
-0.379211	
-0.378601	
-0.37793	
-0.379822	
-0.37915	
-0.378967	
-0.378906	
-0.37915	
-0.379028	
-0.380554	
-0.379395	
-0.378967	
-0.377258	
-0.379028	
-0.379089	
-0.378601	
-0.378723	
-0.379089	
-0.379639	
-0.381226	
-0.38092	
-0.380432	
-0.378662	
-0.379883	
-0.380493	
-0.380249	
-0.38031	
-0.380249	
-0.380615	
-0.381042	
-0.381165	
-0.380737	
-0.379944	
-0.379883	
-0.380432	
-0.381042	
-0.381165	
-0.38092	
-0.381042	
-0.381409	
-0.381226	
-0.38092	
-0.380554	
-0.38092	
-0.381287	
-0.381348	
-0.381042	
-0.381714	
-0.381226	
-0.381897	
-0.380859	
-0.381226	
-0.381531	
-0.381592	
-0.382751	
-0.381775	
-0.381897	
-0.381653	
-0.381653	
-0.382263	
-0.381226	
-0.382202	
-0.381653	
-0.381897	
-0.383484	
-0.382751	
-0.382874	
-0.382324	
-0.382874	
-0.383118	
-0.383423	
-0.383362	
-0.382202	
-0.382568	
-0.383545	
-0.382874	
-0.383057	
-0.382935	
-0.383728	
-0.383606	
-0.38501	
-0.384766	
-0.383972	
-0.382935	
-0.383728	
-0.384888	
-0.385315	
-0.385254	
-0.385681	
-0.385193	
-0.386719	
-0.386414	
-0.385376	
-0.383972	
-0.385498	
-0.38562	
-0.385864	
-0.385803	
-0.386536	
-0.385193	
-0.386536	
-0.385132	
-0.384766	
-0.382935	
-0.384155	
-0.384277	
-0.383972	
-0.38385	
-0.384399	
-0.383545	
-0.384338	
-0.382141	
-0.382813	
-0.381836	
-0.382324	
-0.38269	
-0.38208	
-0.381897	
-0.381409	
-0.381653	
-0.382141	
-0.380432	
-0.381409	
-0.380737	
-0.381104	
-0.381775	
-0.381165	
-0.381165	
-0.380371	
-0.38092	
-0.381226	
-0.380188	
-0.381042	
-0.38031	
-0.380676	
-0.379822	
-0.380188	
-0.380249	
-0.380005	
-0.380066	
-0.380127	
-0.380188	
-0.380798	
-0.379578	
-0.379944	
-0.379883	
-0.380249	
-0.372253	
-0.375244	
-0.379517	
-0.381409	
-0.381531	
-0.381042	
-0.38092	
-0.381165	
-0.381287	
-0.381287	
-0.38147	
-0.381592	
-0.38208	
-0.382141	
-0.382324	
-0.38208	
-0.381592	
-0.381226	
-0.382202	
-0.382568	
-0.382141	
-0.382019	
-0.382385	
-0.382324	
-0.383179	
-0.381897	
-0.381775	
-0.380737	
-0.381531	
-0.381775	
-0.382019	
-0.38208	
-0.382935	
-0.382324	
-0.383911	
-0.381226	
-0.38269	
-0.380798	
-0.382202	
-0.382568	
-0.38269	
-0.382996	
-0.382874	
-0.383362	
-0.384521	
-0.382813	
-0.38446	
-0.382324	
-0.383606	
-0.383789	
-0.383606	
-0.383728	
-0.383118	
-0.383789	
-0.384399	
-0.384155	
-0.384277	
-0.383484	
-0.384277	
-0.385254	
-0.384155	
-0.384338	
-0.383606	
-0.384949	
-0.385254	
-0.38501	
-0.384949	
-0.38446	
-0.385315	
-0.386108	
-0.385803	
-0.385742	
-0.385315	
-0.386169	
-0.386292	
-0.386475	
-0.385925	
-0.385681	
-0.385681	
-0.386414	
-0.386047	
-0.385864	
-0.385315	
-0.386414	
-0.385986	
-0.386902	
-0.384644	
-0.385986	
-0.384888	
-0.386658	
-0.386169	
-0.387085	
-0.387573	
-0.388855	
-0.388733	
-0.390503	
-0.388977	
-0.391418	
-0.390808	
-0.393494	
-0.393616	
-0.395996	
-0.396973	
-0.399353	
-0.399902	
-0.402588	
-0.4021	
-0.405334	
-0.405579	
-0.40918	
-0.410034	
-0.411011	
-0.411743	
-0.415222	
-0.41571	
-0.416443	
-0.417175	
-0.417542	
-0.418518	
-0.418274	
-0.418091	
-0.417969	
-0.417542	
-0.416748	
-0.416077	
-0.414673	
-0.414001	
-0.412842	
-0.412598	
-0.411499	
-0.412231	
-0.41217	
-0.413635	
-0.414246	
-0.416809	
-0.416687	
-0.419556	
-0.420044	
-0.422974	
-0.423584	
-0.425903	
-0.427063	
-0.429993	
-0.430298	
-0.433167	
-0.432007	
-0.434937	
-0.434082	
-0.437012	
-0.436829	
-0.438416	
-0.439209	
-0.440857	
-0.440613	
-0.442749	
-0.440796	
-0.442139	
-0.439697	
-0.440063	
-0.439331	
-0.438477	
-0.437012	
-0.436035	
-0.434753	
-0.433777	
-0.431519	
-0.431274	
-0.429382	
-0.429016	
-0.427856	
-0.42688	
-0.425354	
-0.424744	
-0.423706	
-0.423157	
-0.421997	
-0.421143	
-0.419617	
-0.420288	
-0.41925	
-0.419434	
-0.419128	
-0.419434	
-0.419495	
-0.419739	
-0.418579	
-0.418518	
-0.417603	
-0.417175	
-0.415405	
-0.414063	
-0.412659	
-0.41156	
-0.408569	
-0.406311	
-0.402161	
-0.400269	
-0.396118	
-0.393372	
-0.390259	
-0.387207	
-0.384094	
-0.382324	
-0.378296	
-0.375916	
-0.372864	
-0.370605	
-0.368103	
-0.366028	
-0.364746	
-0.362488	
-0.360535	
-0.359375	
-0.358521	
-0.3573	
-0.356384	
-0.35553	
-0.354187	
-0.353149	
-0.352844	
-0.351563	
-0.350525	
-0.34967	
-0.348999	
-0.348572	
-0.346985	
-0.345825	
-0.344788	
-0.344055	
-0.343994	
-0.342712	
-0.342834	
-0.342896	
-0.342773	
-0.342651	
-0.342407	
-0.34198	
-0.341614	
-0.341614	
-0.34137	
-0.341858	
-0.341858	
-0.34314	
-0.342651	
-0.34375	
-0.343201	
-0.343933	
-0.343384	
-0.345032	
-0.344238	
-0.345337	
-0.345337	
-0.346924	
-0.34613	
-0.347656	
-0.346252	
-0.348083	
-0.347046	
-0.349609	
-0.349304	
-0.350464	
-0.350708	
-0.352478	
-0.352173	
-0.352905	
-0.352356	
-0.353516	
-0.352844	
-0.353333	
-0.352295	
-0.352478	
-0.352173	
-0.353088	
-0.352722	
-0.353699	
-0.352966	
-0.352905	
-0.352234	
-0.35321	
-0.353394	
-0.353088	
-0.353577	
-0.353394	
-0.354065	
-0.354187	
-0.353577	
-0.353882	
-0.353149	
-0.354736	
-0.354919	
-0.355042	
-0.355896	
-0.355652	
-0.356384	
-0.35553	
-0.356323	
-0.355835	
-0.357361	
-0.356934	
-0.357666	
-0.357178	
-0.359131	
-0.359314	
-0.36084	
-0.359253	
-0.361328	
-0.359741	
-0.362	
-0.360962	
-0.362	
-0.362427	
-0.363037	
-0.363037	
-0.363464	
-0.363403	
-0.364197	
-0.363647	
-0.364319	
-0.364136	
-0.364807	
-0.365906	
-0.365784	
-0.366577	
-0.366699	
-0.367432	
-0.36731	
-0.366821	
-0.36792	
-0.36792	
-0.368591	
-0.368652	
-0.368896	
-0.369507	
-0.370178	
-0.369202	
-0.368835	
-0.369141	
-0.369263	
-0.369629	
-0.369324	
-0.369629	
-0.369446	
-0.370056	
-0.370239	
-0.370056	
-0.369446	
-0.370361	
-0.370178	
-0.370239	
-0.370178	
-0.37085	
-0.370972	
-0.371155	
-0.37146	
-0.37146	
-0.371033	
-0.371399	
-0.371704	
-0.37207	
-0.371704	
-0.372803	
-0.372498	
-0.373657	
-0.373047	
-0.373047	
-0.372742	
-0.373169	
-0.372986	
-0.373352	
-0.372986	
-0.373535	
-0.372864	
-0.373901	
-0.373474	
-0.373596	
-0.373047	
-0.373413	
-0.372986	
-0.37323	
-0.373291	
-0.373596	
-0.372925	
-0.373779	
-0.373413	
-0.373413	
-0.371643	
-0.37262	
-0.372742	
-0.372925	
-0.37262	
-0.373169	
-0.373108	
-0.37384	
-0.37323	
-0.37384	
-0.372192	
-0.373657	
-0.372559	
-0.37323	
-0.372498	
-0.372925	
-0.373108	
-0.373474	
-0.372314	
-0.372498	
-0.371033	
-0.371887	
-0.370911	
-0.371887	
-0.37146	
-0.372009	
-0.371948	
-0.372437	
-0.371643	
-0.371826	
-0.371399	
-0.372314	
-0.371704	
-0.372559	
-0.372559	
-0.373474	
-0.373352	
-0.37384	
-0.372986	
-0.37384	
-0.373657	
-0.374207	
-0.374084	
-0.374695	
-0.374878	
-0.375854	
-0.375366	
-0.37616	
-0.375366	
-0.376709	
-0.376038	
-0.376526	
-0.376343	
-0.377014	
-0.377197	
-0.378052	
-0.377319	
-0.377991	
-0.376831	
-0.378418	
-0.377319	
-0.378113	
-0.376953	
-0.378235	
-0.378601	
-0.379333	
-0.378662	
-0.379028	
-0.378052	
-0.379578	
-0.378723	
-0.379028	
-0.378052	
-0.379639	
-0.379395	
-0.380066	
-0.379822	
-0.379578	
-0.379517	
-0.380432	
-0.380066	
-0.380432	
-0.379272	
-0.380432	
-0.380005	
-0.380737	
-0.380554	
-0.380676	
-0.381287	
-0.381226	
-0.381042	
-0.381165	
-0.381165	
-0.381165	
-0.381287	
-0.382141	
-0.381958	
-0.381653	
-0.381775	
-0.381653	
-0.381226	
-0.381165	
-0.38092	
-0.380798	
-0.380615	
-0.380981	
-0.381226	
-0.380432	
-0.380554	
-0.379944	
-0.380371	
-0.380188	
-0.380127	
-0.380127	
-0.380188	
-0.380188	
-0.380676	
-0.38031	
-0.380066	
-0.379089	
-0.379333	
-0.379761	
-0.379578	
-0.379395	
-0.379456	
-0.379578	
-0.380371	
-0.379944	
-0.379944	
-0.37915	
-0.378723	
-0.3797	
-0.379517	
-0.379395	
-0.379211	
-0.379333	
-0.379761	
-0.379944	
-0.379456	
-0.378845	
-0.378296	
-0.379822	
-0.379517	
-0.379944	
-0.378906	
-0.380005	
-0.380005	
-0.380371	
-0.379578	
-0.379578	
-0.378784	
-0.38031	
-0.380066	
-0.380188	
-0.38031	
-0.381287	
-0.380981	
-0.381897	
-0.381836	
-0.381531	
-0.381531	
-0.381531	
-0.381531	
-0.381531	
-0.381775	
-0.382141	
-0.381592	
-0.382385	
-0.382507	
-0.381775	
-0.381958	
-0.381897	
-0.382446	
-0.38208	
-0.381836	
-0.382141	
-0.382141	
-0.382996	
-0.382996	
-0.382568	
-0.382385	
-0.382751	
-0.382874	
-0.383362	
-0.38269	
-0.383606	
-0.383789	
-0.383301	
-0.384155	
-0.383423	
-0.38324	
-0.382996	
-0.383606	
-0.38385	
-0.383606	
-0.384705	
-0.384033	
-0.383789	
-0.385254	
-0.383911	
-0.384521	
-0.384338	
-0.384827	
-0.384827	
-0.384033	
-0.38562	
-0.38501	
-0.384827	
-0.385254	
-0.384888	
-0.385681	
-0.385193	
-0.385681	
-0.385803	
-0.385315	
-0.38678	
-0.386658	
-0.386414	
-0.387146	
-0.386841	
-0.387085	
-0.387146	
-0.387634	
-0.387634	
-0.386841	
-0.389099	
-0.388428	
-0.387878	
-0.387634	
-0.387878	
-0.387756	
-0.388672	
-0.388123	
-0.387817	
-0.387085	
-0.389038	
-0.388123	
-0.387268	
-0.386841	
-0.386902	
-0.386292	
-0.387268	
-0.386597	
-0.386536	
-0.385559	
-0.386963	
-0.386597	
-0.385315	
-0.38501	
-0.384338	
-0.385071	
-0.385437	
-0.384827	
-0.384521	
-0.384399	
-0.38562	
-0.385376	
-0.383972	
-0.383606	
-0.383118	
-0.384399	
-0.384399	
-0.383972	
-0.383911	
-0.383606	
-0.385071	
-0.384583	
-0.383789	
-0.38324	
-0.382568	
-0.383484	
-0.383118	
-0.383911	
-0.383362	
-0.382996	
-0.384644	
-0.384216	
-0.383118	
-0.383118	
-0.382324	
-0.38324	
-0.382507	
-0.38385	
-0.383545	
-0.383545	
-0.38501	
-0.384888	
-0.384094	
-0.38501	
-0.383545	
-0.384644	
-0.384155	
-0.384888	
-0.385071	
-0.385437	
-0.385803	
-0.386292	
-0.385437	
-0.385742	
-0.384705	
-0.38562	
-0.385681	
-0.385315	
-0.385498	
-0.385254	
-0.386414	
-0.386169	
-0.385132	
-0.38501	
-0.385498	
-0.385437	
-0.385742	
-0.385681	
-0.385681	
-0.385864	
-0.386841	
-0.386475	
-0.385803	
-0.386108	
-0.385925	
-0.386658	
-0.386108	
-0.386597	
-0.386597	
-0.386902	
-0.387756	
-0.38739	
-0.387268	
-0.387512	
-0.386841	
-0.387695	
-0.387207	
-0.387451	
-0.387207	
-0.387878	
-0.38855	
-0.388489	
-0.388	
-0.387695	
-0.388062	
-0.388245	
-0.388123	
-0.388489	
-0.388184	
-0.388672	
-0.389771	
-0.389099	
-0.388672	
-0.388489	
-0.389099	
-0.389282	
-0.389709	
-0.389526	
-0.389771	
-0.390442	
-0.391113	
-0.390503	
-0.389709	
-0.389648	
-0.389465	
-0.390076	
-0.389954	
-0.389648	
-0.389771	
-0.390137	
-0.390686	
-0.39032	
-0.388916	
-0.388916	
-0.388184	
-0.389221	
-0.388611	
-0.388184	
-0.388306	
-0.388306	
-0.389221	
-0.388794	
-0.387756	
-0.387512	
-0.38739	
-0.388	
-0.387207	
-0.387451	
-0.387146	
-0.387634	
-0.38855	
-0.387634	
-0.386902	
-0.38562	
-0.386963	
-0.386963	
-0.386719	
-0.386658	
-0.386414	
-0.386658	
-0.387451	
-0.386719	
-0.386597	
-0.38446	
-0.38678	
-0.385925	
-0.38562	
-0.385498	
-0.385071	
-0.385559	
-0.386292	
-0.385986	
-0.385071	
-0.383728	
-0.385376	
-0.385193	
-0.384705	
-0.38446	
-0.384705	
-0.384888	
-0.386047	
-0.385254	
-0.384583	
-0.383545	
-0.385071	
-0.385681	
-0.384705	
-0.384277	
-0.383972	
-0.384766	
-0.385925	
-0.385559	
-0.384521	
-0.383911	
-0.38501	
-0.385315	
-0.384766	
-0.384216	
-0.384399	
-0.385437	
-0.386658	
-0.386475	
-0.385742	
-0.38562	
-0.386536	
-0.386841	
-0.386292	
-0.386658	
-0.38623	
-0.386963	
-0.387512	
-0.388489	
-0.386963	
-0.386414	
-0.387207	
-0.388123	
-0.387329	
-0.386963	
-0.387085	
-0.388123	
-0.388062	
-0.389343	
-0.387878	
-0.387817	
-0.388367	
-0.388672	
-0.387878	
-0.387451	
-0.388367	
-0.388733	
-0.389099	
-0.390137	
-0.388733	
-0.38855	
-0.388062	
-0.389343	
-0.389099	
-0.387817	
-0.389099	
-0.38916	
-0.389771	
-0.39093	
-0.389465	
-0.388916	
-0.388367	
-0.389832	
-0.389282	
-0.388428	
-0.38916	
-0.389221	
-0.389709	
-0.390076	
-0.38855	
-0.388123	
-0.387695	
-0.388733	
-0.387939	
-0.387024	
-0.387939	
-0.387939	
-0.388184	
-0.38916	
-0.387695	
-0.387695	
-0.387329	
-0.388062	
-0.387695	
-0.387146	
-0.387207	
-0.387695	
-0.387695	
-0.388428	
-0.38739	
-0.386902	
-0.387695	
-0.387573	
-0.387268	
-0.386169	
-0.387024	
-0.387085	
-0.387146	
-0.387634	
-0.386902	
-0.38678	
-0.387085	
-0.386658	
-0.386047	
-0.385376	
-0.386169	
-0.386597	
-0.38678	
-0.387085	
-0.386475	
-0.386353	
-0.386414	
-0.386414	
-0.385925	
-0.384216	
-0.385315	
-0.385315	
-0.385803	
-0.385864	
-0.385681	
-0.385376	
-0.385742	
-0.386108	
-0.385254	
-0.384644	
-0.385376	
-0.385376	
-0.385376	
-0.385437	
-0.384888	
-0.384583	
-0.384521	
-0.384277	
-0.384033	
-0.383484	
-0.383545	
-0.383118	
-0.382996	
-0.383484	
-0.383606	
-0.38269	
-0.382446	
-0.382385	
-0.382446	
-0.38208	
-0.382141	
-0.382141	
-0.382385	
-0.382935	
-0.383667	
-0.382507	
-0.383301	
-0.382568	
-0.384094	
-0.383667	
-0.38385	
-0.384521	
-0.383972	
-0.384949	
-0.385864	
-0.384766	
-0.384888	
-0.384216	
-0.385437	
-0.385132	
-0.385376	
-0.385803	
-0.386108	
-0.387329	
-0.387146	
-0.386414	
-0.386108	
-0.386047	
-0.386963	
-0.387146	
-0.386475	
-0.387024	
-0.387146	
-0.387817	
-0.387634	
-0.387207	
-0.385742	
-0.387024	
-0.387085	
-0.387146	
-0.387329	
-0.387634	
-0.387573	
-0.388611	
-0.388184	
-0.388245	
-0.386475	
-0.387817	
-0.388245	
-0.387695	
-0.388123	
-0.387878	
-0.388245	
-0.388672	
-0.388672	
-0.387512	
-0.386536	
-0.386597	
-0.387573	
-0.386902	
-0.386536	
-0.386353	
-0.386902	
-0.387756	
-0.387451	
-0.386353	
-0.386536	
-0.385376	
-0.387085	
-0.386108	
-0.386353	
-0.385742	
-0.38623	
-0.386841	
-0.387085	
-0.38623	
-0.386108	
-0.385498	
-0.38739	
-0.386353	
-0.386536	
-0.385193	
-0.38623	
-0.386597	
-0.386841	
-0.386047	
-0.385803	
-0.385193	
-0.386658	
-0.385071	
-0.385681	
-0.384094	
-0.385376	
-0.385193	
-0.386108	
-0.385254	
-0.38446	
-0.383789	
-0.385254	
-0.384827	
-0.384338	
-0.383423	
-0.384338	
-0.384583	
-0.385132	
-0.38446	
-0.383789	
-0.383545	
-0.384033	
-0.383667	
-0.383545	
-0.383301	
-0.383606	
-0.383606	
-0.384094	
-0.383606	
-0.383301	
-0.383423	
-0.38324	
-0.382996	
-0.382813	
-0.382202	
-0.381653	
-0.382507	
-0.382629	
-0.381958	
-0.381897	
-0.381653	
-0.382019	
-0.381592	
-0.38147	
-0.381592	
-0.381592	
-0.382446	
-0.382935	
-0.38269	
-0.382202	
-0.382507	
-0.382629	
-0.382507	
-0.382507	
-0.382996	
-0.38324	
-0.383301	
-0.384277	
-0.384277	
-0.383423	
-0.38385	
-0.383606	
-0.384094	
-0.383179	
-0.383789	
-0.384338	
-0.384583	
-0.385742	
-0.385498	
-0.384888	
-0.38446	
-0.384033	
-0.385193	
-0.38385	
-0.38501	
-0.384949	
-0.385132	
-0.386169	
-0.386047	
-0.385742	
-0.385559	
-0.38501	
-0.385803	
-0.385132	
-0.386108	
-0.386353	
-0.386414	
-0.387268	
-0.386902	
-0.386841	
-0.387085	
-0.38678	
-0.387024	
-0.385376	
-0.386719	
-0.38678	
-0.38739	
-0.387634	
-0.387695	
-0.386963	
-0.387756	
-0.387146	
-0.387512	
-0.386047	
-0.387085	
-0.386841	
-0.387573	
-0.387756	
-0.388428	
-0.38739	
-0.387695	
-0.38739	
-0.38739	
-0.386536	
-0.387085	
-0.387451	
-0.38739	
-0.387207	
-0.387085	
-0.386169	
-0.38678	
-0.385559	
-0.385986	
-0.38501	
-0.385193	
-0.385071	
-0.384827	
-0.385315	
-0.385925	
-0.385193	
-0.385193	
-0.383972	
-0.385437	
-0.384094	
-0.384277	
-0.383179	
-0.384399	
-0.384399	
-0.385254	
-0.38446	
-0.383972	
-0.382874	
-0.384399	
-0.383057	
-0.383667	
-0.38269	
-0.383667	
-0.38385	
-0.384766	
-0.383545	
-0.383057	
-0.381531	
-0.383057	
-0.382568	
-0.38269	
-0.382019	
-0.383118	
-0.382813	
-0.38385	
-0.383728	
-0.382996	
-0.38147	
-0.381775	
-0.381897	
-0.382385	
-0.382141	
-0.38269	
-0.382446	
-0.384338	
-0.383728	
-0.383057	
-0.381653	
-0.383057	
-0.383972	
-0.383972	
-0.383789	
-0.384216	
-0.384338	
-0.385864	
-0.384216	
-0.384338	
-0.382874	
-0.384094	
-0.383911	
-0.384155	
-0.384338	
-0.384216	
-0.384338	
-0.385742	
-0.384644	
-0.384338	
-0.383362	
-0.384338	
-0.384338	
-0.384399	
-0.384521	
-0.384277	
-0.38501	
-0.385437	
-0.385254	
-0.384766	
-0.385071	
-0.38501	
-0.384949	
-0.385071	
-0.38501	
-0.38562	
-0.385437	
-0.385437	
-0.385803	
-0.385681	
-0.385803	
-0.385132	
-0.385742	
-0.385742	
-0.385437	
-0.386047	
-0.386108	
-0.386536	
-0.386475	
-0.386169	
-0.38623	
-0.385742	
-0.386536	
-0.385925	
-0.38623	
-0.38623	
-0.386292	
-0.386963	
-0.387268	
-0.387146	
-0.387634	
-0.387024	
-0.388428	
-0.386353	
-0.387878	
-0.387756	
-0.388428	
-0.388855	
-0.389465	
-0.389099	
-0.389221	
-0.388062	
-0.389709	
-0.388245	
-0.389587	
-0.387634	
-0.389465	
-0.389587	
-0.390625	
-0.388977	
-0.388977	
-0.386841	
-0.388733	
-0.387451	
-0.387878	
-0.386658	
-0.387695	
-0.387207	
-0.388916	
-0.387817	
-0.386963	
-0.38501	
-0.385864	
-0.385864	
-0.385864	
-0.385925	
-0.385437	
-0.385498	
-0.386169	
-0.38623	
-0.385132	
-0.383484	
-0.383606	
-0.384705	
-0.384338	
-0.384155	
-0.38446	
-0.38446	
-0.385132	
-0.385071	
-0.383972	
-0.383057	
-0.383301	
-0.383911	
-0.383667	
-0.382996	
-0.38324	
-0.383606	
-0.384399	
-0.38385	
-0.383057	
-0.382935	
-0.382874	
-0.38324	
-0.383179	
-0.382507	
-0.38324	
-0.383362	
-0.383484	
-0.384094	
-0.383545	
-0.384521	
-0.383789	
-0.384155	
-0.383667	
-0.384338	
-0.384766	
-0.384583	
-0.384766	
-0.385803	
-0.384827	
-0.385437	
-0.384033	
-0.38501	
-0.383545	
-0.384827	
-0.384949	
-0.385071	
-0.385315	
-0.385986	
-0.384644	
-0.384827	
-0.38324	
-0.385498	
-0.383972	
-0.384583	
-0.384094	
-0.384949	
-0.385071	
-0.386292	
-0.38446	
-0.385254	
-0.384399	
-0.385925	
-0.384766	
-0.385559	
-0.38446	
-0.38562	
-0.385742	
-0.386963	
-0.386169	
-0.385803	
-0.384766	
-0.386658	
-0.386108	
-0.386353	
-0.385132	
-0.386475	
-0.386719	
-0.388123	
-0.387146	
-0.38678	
-0.384949	
-0.386414	
-0.38678	
-0.386963	
-0.385864	
-0.386963	
-0.387146	
-0.388184	
-0.388184	
-0.387756	
-0.386719	
-0.387268	
-0.388245	
-0.387756	
-0.387695	
-0.388428	
-0.388733	
-0.389343	
-0.389526	
-0.388916	
-0.388611	
-0.387878	
-0.388794	
-0.387817	
-0.388489	
-0.38855	
-0.388794	
-0.388733	
-0.389465	
-0.388123	
-0.388428	
-0.387512	
-0.387573	
-0.386719	
-0.387085	
-0.387268	
-0.387451	
-0.387268	
-0.387695	
-0.386536	
-0.387268	
-0.385742	
-0.386108	
-0.385193	
-0.386169	
-0.386169	
-0.385803	
-0.385803	
-0.387085	
-0.385193	
-0.385925	
-0.38385	
-0.385132	
-0.384033	
-0.384521	
-0.385193	
-0.384766	
-0.385071	
-0.385925	
-0.384644	
-0.384949	
-0.383057	
-0.384094	
-0.383728	
-0.383789	
-0.383484	
-0.383484	
-0.383972	
-0.38446	
-0.383667	
-0.383301	
-0.382324	
-0.383057	
-0.38269	
-0.382751	
-0.382751	
-0.382813	
-0.382813	
-0.383789	
-0.383606	
-0.38269	
-0.382019	
-0.382568	
-0.382935	
-0.382385	
-0.382813	
-0.382996	
-0.382629	
-0.383484	
-0.383362	
-0.382813	
-0.381775	
-0.381165	
-0.382263	
-0.382263	
-0.382446	
-0.382874	
-0.383179	
-0.383728	
-0.38446	
-0.383911	
-0.383179	
-0.383545	
-0.384155	
-0.383972	
-0.384338	
-0.384521	
-0.384644	
-0.385559	
-0.385864	
-0.38501	
-0.384705	
-0.384216	
-0.384888	
-0.384705	
-0.385193	
-0.385193	
-0.385498	
-0.385559	
-0.386841	
-0.385986	
-0.386475	
-0.38501	
-0.385498	
-0.384827	
-0.384949	
-0.385803	
-0.385925	
-0.386353	
-0.387634	
-0.38623	
-0.387207	
-0.386414	
-0.38678	
-0.38562	
-0.385254	
-0.386719	
-0.38678	
-0.386658	
-0.387634	
-0.38623	
-0.387878	
-0.386169	
-0.386353	
-0.385986	
-0.386292	
-0.38678	
-0.386719	
-0.386841	
-0.387512	
-0.386536	
-0.386108	
-0.38501	
-0.385803	
-0.385071	
-0.385132	
-0.385071	
-0.385559	
-0.385376	
-0.386475	
-0.385986	
-0.385132	
-0.384277	
-0.384521	
-0.384827	
-0.38501	
-0.385132	
-0.38501	
-0.384888	
-0.385559	
-0.385803	
-0.384521	
-0.383789	
-0.383362	
-0.384644	
-0.384583	
-0.384399	
-0.384155	
-0.384216	
-0.384705	
-0.385071	
-0.384155	
-0.384277	
-0.382751	
-0.383484	
-0.382874	
-0.383667	
-0.383545	
-0.383423	
-0.38385	
-0.38501	
-0.383545	
-0.383911	
-0.381897	
-0.383057	
-0.381531	
-0.382874	
-0.382629	
-0.382935	
-0.38324	
-0.383484	
-0.382874	
-0.382874	
-0.38208	
-0.382507	
-0.381714	
-0.382568	
-0.382507	
-0.382324	
-0.382324	
-0.382507	
-0.381958	
-0.381836	
-0.381714	
-0.381226	
-0.380676	
-0.380615	
-0.380676	
-0.380432	
-0.379944	
-0.380615	
-0.380188	
-0.379883	
-0.379639	
-0.379089	
-0.378967	
-0.378479	
-0.379456	
-0.37915	
-0.379395	
-0.380554	
-0.380432	
-0.38031	
-0.380737	
-0.379822	
-0.380371	
-0.379517	
-0.381165	
-0.380737	
-0.381165	
-0.382202	
-0.382568	
-0.381775	
-0.381714	
-0.380798	
-0.382263	
-0.381409	
-0.38269	
-0.382324	
-0.382813	
-0.383484	
-0.384705	
-0.383606	
-0.382874	
-0.382141	
-0.383606	
-0.383728	
-0.383911	
-0.383789	
-0.383972	
-0.385193	
-0.385132	
-0.383972	
-0.384094	
-0.38324	
-0.384277	
-0.383972	
-0.38446	
-0.38501	
-0.384949	
-0.385803	
-0.385498	
-0.385132	
-0.385742	
-0.384521	
-0.384949	
-0.383911	
-0.385193	
-0.38501	
-0.38501	
-0.385315	
-0.385132	
-0.384827	
-0.385071	
-0.384338	
-0.384155	
-0.382263	
-0.384216	
-0.383545	
-0.38385	
-0.38385	
-0.383972	
-0.384277	
-0.384705	
-0.383911	
-0.38324	
-0.382446	
-0.383423	
-0.383362	
-0.383789	
-0.383606	
-0.384033	
-0.385132	
-0.384338	
-0.384033	
-0.382446	
-0.383057	
-0.383179	
-0.383301	
-0.383484	
-0.383545	
-0.384094	
-0.384583	
-0.383362	
-0.383484	
-0.380981	
-0.382507	
-0.381714	
-0.382874	
-0.382629	
-0.382324	
-0.383057	
-0.383301	
-0.382996	
-0.381531	
-0.380371	
-0.381348	
-0.380615	
-0.38208	
-0.381287	
-0.381653	
-0.382507	
-0.382446	
-0.381653	
-0.381165	
-0.380554	
-0.380798	
-0.380371	
-0.381104	
-0.381042	
-0.381409	
-0.381958	
-0.381348	
-0.380737	
-0.380249	
-0.380005	
-0.380127	
-0.380127	
-0.379761	
-0.3797	
-0.379211	
-0.379883	
-0.380066	
-0.379639	
-0.378662	
-0.378784	
-0.379089	
-0.378967	
-0.379028	
-0.379395	
-0.37915	
-0.380127	
-0.379822	
-0.380127	
-0.379395	
-0.380005	
-0.380249	
-0.380188	
-0.380615	
-0.380554	
-0.380554	
-0.38147	
-0.381287	
-0.382324	
-0.381226	
-0.381104	
-0.380188	
-0.381165	
-0.381409	
-0.381714	
-0.382019	
-0.382629	
-0.382263	
-0.383789	
-0.382935	
-0.38269	
-0.380981	
-0.381714	
-0.382874	
-0.382813	
-0.382874	
-0.383545	
-0.383301	
-0.384399	
-0.383911	
-0.383789	
-0.381897	
-0.382385	
-0.38385	
-0.384338	
-0.384033	
-0.384338	
-0.384094	
-0.385254	
-0.384949	
-0.385071	
-0.383057	
-0.38324	
-0.383484	
-0.384399	
-0.384277	
-0.384521	
-0.384277	
-0.385559	
-0.384949	
	
