C:\DOCUMENTS AND SETTINGS\JASON\DESKTOP\UFRJ\UFRJ EPHYS\RSCI-BM 12 WK SERIES\070806-RSCI-BM-16\RSCI-BM-16-REMG\070806-RSCI-BM-16-REMG-0010.ACQ
0.025000 msec/sample
1 channel
Analog input
Volts
CH1	
2000	
-0.381714	
-0.381531	
-0.382141	
-0.38147	
-0.381042	
-0.380798	
-0.381592	
-0.38147	
-0.381653	
-0.381165	
-0.380554	
-0.380493	
-0.380371	
-0.380432	
-0.378906	
-0.380005	
-0.379761	
-0.379822	
-0.379822	
-0.37915	
-0.378357	
-0.378906	
-0.378906	
-0.378662	
-0.377258	
-0.378113	
-0.378296	
-0.379272	
-0.378967	
-0.378357	
-0.377258	
-0.378479	
-0.377869	
-0.37793	
-0.377136	
-0.37793	
-0.378357	
-0.379211	
-0.379028	
-0.37915	
-0.377869	
-0.379028	
-0.378052	
-0.378418	
-0.378235	
-0.378723	
-0.378723	
-0.378967	
-0.378967	
-0.379211	
-0.378967	
-0.378784	
-0.378052	
-0.37854	
-0.378479	
-0.379028	
-0.378784	
-0.378906	
-0.378357	
-0.379517	
-0.37915	
-0.378906	
-0.378906	
-0.378723	
-0.378784	
-0.378601	
-0.379028	
-0.379211	
-0.379333	
-0.37915	
-0.378601	
-0.379456	
-0.37854	
-0.37854	
-0.377686	
-0.37854	
-0.378906	
-0.378784	
-0.378845	
-0.378479	
-0.37854	
-0.379456	
-0.378601	
-0.378479	
-0.378052	
-0.379272	
-0.379822	
-0.379333	
-0.379639	
-0.378296	
-0.379456	
-0.380249	
-0.379761	
-0.379395	
-0.379211	
-0.380493	
-0.381836	
-0.381714	
-0.38147	
-0.379883	
-0.380981	
-0.380798	
-0.381897	
-0.380981	
-0.382202	
-0.382568	
-0.383667	
-0.384094	
-0.383911	
-0.382019	
-0.383423	
-0.382507	
-0.383972	
-0.382813	
-0.383789	
-0.383545	
-0.384583	
-0.384583	
-0.384644	
-0.383301	
-0.383789	
-0.383057	
-0.383728	
-0.383911	
-0.384338	
-0.383728	
-0.384705	
-0.384827	
-0.384766	
-0.384399	
-0.384277	
-0.383728	
-0.38324	
-0.383545	
-0.383301	
-0.38324	
-0.383484	
-0.382813	
-0.382568	
-0.382751	
-0.382813	
-0.382019	
-0.381897	
-0.381775	
-0.382019	
-0.381958	
-0.382019	
-0.382141	
-0.382019	
-0.381226	
-0.382019	
-0.38147	
-0.38147	
-0.381104	
-0.381348	
-0.381348	
-0.381287	
-0.381287	
-0.380737	
-0.380859	
-0.38147	
-0.38092	
-0.380432	
-0.379761	
-0.380554	
-0.380798	
-0.380493	
-0.380798	
-0.379822	
-0.380432	
-0.380737	
-0.379578	
-0.3797	
-0.378906	
-0.379944	
-0.380005	
-0.380005	
-0.380127	
-0.379639	
-0.380432	
-0.380066	
-0.380249	
-0.379395	
-0.379822	
-0.380676	
-0.380371	
-0.381104	
-0.380432	
-0.379944	
-0.380249	
-0.380249	
-0.380493	
-0.379517	
-0.380432	
-0.380493	
-0.380981	
-0.381226	
-0.37262	
-0.365234	
-0.365417	
-0.364929	
-0.365906	
-0.365051	
-0.375	
-0.38031	
-0.381958	
-0.382202	
-0.381836	
-0.381714	
-0.382202	
-0.382446	
-0.382324	
-0.38269	
-0.382935	
-0.383362	
-0.383606	
-0.384216	
-0.383606	
-0.383362	
-0.383789	
-0.383789	
-0.383545	
-0.383728	
-0.384216	
-0.384583	
-0.384644	
-0.384583	
-0.384583	
-0.384888	
-0.385193	
-0.38501	
-0.384644	
-0.384827	
-0.385498	
-0.385437	
-0.385315	
-0.385254	
-0.385193	
-0.384949	
-0.385132	
-0.384583	
-0.384216	
-0.384094	
-0.38446	
-0.384827	
-0.385498	
-0.385315	
-0.384705	
-0.385193	
-0.384766	
-0.384338	
-0.383301	
-0.383179	
-0.383789	
-0.383789	
-0.383911	
-0.38385	
-0.382935	
-0.382507	
-0.381714	
-0.382202	
-0.381287	
-0.381592	
-0.381897	
-0.382263	
-0.383301	
-0.383057	
-0.381714	
-0.38147	
-0.38147	
-0.381897	
-0.380676	
-0.381165	
-0.381836	
-0.38269	
-0.38269	
-0.382385	
-0.381958	
-0.382874	
-0.383423	
-0.382202	
-0.381653	
-0.380798	
-0.382324	
-0.383362	
-0.382507	
-0.382141	
-0.382019	
-0.383118	
-0.384155	
-0.383606	
-0.38385	
-0.383667	
-0.385437	
-0.387146	
-0.386841	
-0.387146	
-0.387085	
-0.388977	
-0.391052	
-0.391296	
-0.392334	
-0.393982	
-0.395508	
-0.398315	
-0.398315	
-0.399414	
-0.400452	
-0.402466	
-0.404907	
-0.405823	
-0.408386	
-0.410522	
-0.412659	
-0.413574	
-0.414673	
-0.416016	
-0.416992	
-0.418762	
-0.418335	
-0.419189	
-0.419922	
-0.420105	
-0.421387	
-0.420227	
-0.419495	
-0.41803	
-0.417969	
-0.418823	
-0.417847	
-0.419312	
-0.420227	
-0.42218	
-0.423523	
-0.425293	
-0.42749	
-0.430237	
-0.433777	
-0.435242	
-0.437866	
-0.438843	
-0.442261	
-0.444824	
-0.44574	
-0.448059	
-0.448547	
-0.450928	
-0.45282	
-0.453186	
-0.454529	
-0.455017	
-0.455933	
-0.458435	
-0.457703	
-0.457031	
-0.454773	
-0.455078	
-0.455383	
-0.453491	
-0.452942	
-0.451843	
-0.4505	
-0.450378	
-0.447449	
-0.445068	
-0.443848	
-0.443115	
-0.441284	
-0.439453	
-0.438538	
-0.437622	
-0.436218	
-0.435364	
-0.433899	
-0.432373	
-0.432983	
-0.431885	
-0.431091	
-0.430603	
-0.430359	
-0.431519	
-0.431519	
-0.430786	
-0.430603	
-0.429871	
-0.429626	
-0.429199	
-0.427734	
-0.42688	
-0.424683	
-0.42334	
-0.422058	
-0.418823	
-0.415771	
-0.412476	
-0.40918	
-0.406372	
-0.395142	
-0.384888	
-0.380066	
-0.377686	
-0.375977	
-0.371887	
-0.376465	
-0.378967	
-0.37738	
-0.375793	
-0.37207	
-0.3703	
-0.367554	
-0.366028	
-0.365295	
-0.363464	
-0.361389	
-0.359192	
-0.357849	
-0.358643	
-0.356079	
-0.355652	
-0.353699	
-0.353943	
-0.35437	
-0.352356	
-0.350464	
-0.347717	
-0.34729	
-0.34613	
-0.343811	
-0.343872	
-0.343323	
-0.342651	
-0.343018	
-0.341553	
-0.340637	
-0.340332	
-0.340576	
-0.339478	
-0.339355	
-0.3396	
-0.339539	
-0.340393	
-0.340637	
-0.34021	
-0.340698	
-0.340515	
-0.342529	
-0.341797	
-0.342834	
-0.342224	
-0.343994	
-0.34613	
-0.344727	
-0.345093	
-0.344238	
-0.346008	
-0.346436	
-0.345764	
-0.347107	
-0.347595	
-0.348267	
-0.348999	
-0.349548	
-0.349304	
-0.349792	
-0.35083	
-0.350891	
-0.351379	
-0.351807	
-0.352173	
-0.353638	
-0.353455	
-0.35321	
-0.352417	
-0.353577	
-0.354736	
-0.353394	
-0.354736	
-0.354187	
-0.35553	
-0.356262	
-0.355347	
-0.355408	
-0.355469	
-0.356201	
-0.355652	
-0.356201	
-0.356445	
-0.356812	
-0.35791	
-0.358032	
-0.358032	
-0.357605	
-0.357666	
-0.360474	
-0.360291	
-0.361633	
-0.361267	
-0.363525	
-0.365906	
-0.366455	
-0.367676	
-0.369385	
-0.371399	
-0.373108	
-0.374939	
-0.37616	
-0.377441	
-0.38031	
-0.382324	
-0.383362	
-0.384216	
-0.385681	
-0.389832	
-0.390137	
-0.391296	
-0.391907	
-0.393799	
-0.396118	
-0.395508	
-0.395325	
-0.394775	
-0.396301	
-0.397034	
-0.395447	
-0.396851	
-0.396606	
-0.399109	
-0.400391	
-0.401733	
-0.403259	
-0.405701	
-0.408569	
-0.410706	
-0.413208	
-0.415588	
-0.417664	
-0.422119	
-0.422424	
-0.423645	
-0.424866	
-0.42688	
-0.429199	
-0.428833	
-0.430176	
-0.430664	
-0.432129	
-0.432678	
-0.432068	
-0.432678	
-0.432312	
-0.433838	
-0.432922	
-0.432434	
-0.43103	
-0.430542	
-0.431274	
-0.429077	
-0.428101	
-0.426086	
-0.426147	
-0.42627	
-0.422913	
-0.42334	
-0.422424	
-0.42157	
-0.420959	
-0.419739	
-0.419373	
-0.418091	
-0.417664	
-0.416626	
-0.416321	
-0.415466	
-0.415405	
-0.416077	
-0.415222	
-0.414551	
-0.413574	
-0.412292	
-0.413086	
-0.411072	
-0.4104	
-0.40802	
-0.408081	
-0.408752	
-0.40625	
-0.404114	
-0.402588	
-0.400818	
-0.398376	
-0.395569	
-0.392944	
-0.390076	
-0.388062	
-0.38501	
-0.382324	
-0.379456	
-0.376709	
-0.374573	
-0.37146	
-0.369568	
-0.366699	
-0.364014	
-0.361816	
-0.359497	
-0.356934	
-0.354309	
-0.35199	
-0.351013	
-0.348145	
-0.347107	
-0.34552	
-0.345398	
-0.345703	
-0.345642	
-0.344666	
-0.343994	
-0.342957	
-0.344727	
-0.342407	
-0.342896	
-0.34259	
-0.342896	
-0.343689	
-0.342224	
-0.342102	
-0.339722	
-0.34198	
-0.341003	
-0.341553	
-0.341125	
-0.341064	
-0.341553	
-0.341614	
-0.341492	
-0.341675	
-0.342285	
-0.34375	
-0.343445	
-0.344116	
-0.343628	
-0.345947	
-0.347351	
-0.348083	
-0.3479	
-0.347656	
-0.34906	
-0.349304	
-0.350037	
-0.350647	
-0.352051	
-0.352661	
-0.354553	
-0.354187	
-0.355042	
-0.354919	
-0.357056	
-0.356384	
-0.357361	
-0.356873	
-0.358459	
-0.359436	
-0.35968	
-0.359009	
-0.359131	
-0.358826	
-0.358826	
-0.358765	
-0.358887	
-0.359497	
-0.359436	
-0.360291	
-0.358643	
-0.358521	
-0.357117	
-0.358704	
-0.3573	
-0.356995	
-0.356384	
-0.356812	
-0.357178	
-0.357788	
-0.356934	
-0.356812	
-0.355042	
-0.355957	
-0.354919	
-0.355591	
-0.355835	
-0.356201	
-0.356873	
-0.356018	
-0.356506	
-0.355408	
-0.357605	
-0.356812	
-0.357788	
-0.357056	
-0.358093	
-0.358887	
-0.360413	
-0.35968	
-0.360779	
-0.359802	
-0.361206	
-0.360962	
-0.361938	
-0.362183	
-0.362061	
-0.363647	
-0.363831	
-0.363647	
-0.362915	
-0.364136	
-0.364319	
-0.365112	
-0.365173	
-0.365784	
-0.366272	
-0.367981	
-0.366821	
-0.367126	
-0.366333	
-0.369019	
-0.368103	
-0.369019	
-0.368652	
-0.369751	
-0.370667	
-0.371765	
-0.370911	
-0.370789	
-0.3703	
-0.372131	
-0.370911	
-0.371155	
-0.371155	
-0.371765	
-0.37207	
-0.372803	
-0.371521	
-0.371155	
-0.370483	
-0.370911	
-0.3703	
-0.370728	
-0.370728	
-0.37146	
-0.372192	
-0.371399	
-0.371094	
-0.37085	
-0.371704	
-0.371216	
-0.371216	
-0.370667	
-0.372253	
-0.372375	
-0.373291	
-0.372742	
-0.373047	
-0.372192	
-0.374268	
-0.373718	
-0.374451	
-0.374695	
-0.37561	
-0.376587	
-0.377441	
-0.376892	
-0.375977	
-0.377563	
-0.377502	
-0.377869	
-0.378296	
-0.378845	
-0.37915	
-0.380127	
-0.37915	
-0.378845	
-0.379761	
-0.380432	
-0.3797	
-0.378723	
-0.379395	
-0.380371	
-0.380066	
-0.381409	
-0.380615	
-0.379944	
-0.380127	
-0.381165	
-0.380554	
-0.380676	
-0.380737	
-0.380981	
-0.381409	
-0.381531	
-0.380676	
-0.379578	
-0.379578	
-0.380127	
-0.38031	
-0.379883	
-0.380127	
-0.380188	
-0.380981	
-0.380188	
-0.379517	
-0.379639	
-0.379822	
-0.379456	
-0.379456	
-0.379211	
-0.379639	
-0.379272	
-0.380493	
-0.37915	
-0.378906	
-0.378479	
-0.379761	
-0.378845	
-0.377747	
-0.378357	
-0.379089	
-0.379211	
-0.380066	
-0.378235	
-0.378235	
-0.378479	
-0.378906	
-0.378296	
-0.377136	
-0.378601	
-0.378174	
-0.379639	
-0.378906	
-0.377563	
-0.377014	
-0.377869	
-0.377747	
-0.377441	
-0.377502	
-0.377563	
-0.377625	
-0.377991	
-0.377258	
-0.377502	
-0.37738	
-0.378418	
-0.377625	
-0.377441	
-0.377258	
-0.378113	
-0.378723	
-0.379395	
-0.378662	
-0.378296	
-0.378662	
-0.379456	
-0.379395	
-0.378113	
-0.379883	
-0.379272	
-0.380432	
-0.381348	
-0.3797	
-0.379578	
-0.380005	
-0.380188	
-0.379944	
-0.379883	
-0.380432	
-0.380859	
-0.381348	
-0.381592	
-0.381531	
-0.382141	
-0.383667	
-0.382874	
-0.38269	
-0.382813	
-0.383179	
-0.384888	
-0.384521	
-0.383728	
-0.382751	
-0.383606	
-0.384033	
-0.38385	
-0.382385	
-0.383789	
-0.384155	
-0.384277	
-0.384949	
-0.383911	
-0.384155	
-0.383789	
-0.384644	
-0.383911	
-0.384277	
-0.384827	
-0.385071	
-0.385437	
-0.385315	
-0.384277	
-0.384277	
-0.385376	
-0.384888	
-0.384399	
-0.383667	
-0.384949	
-0.385925	
-0.385803	
-0.384583	
-0.384399	
-0.383789	
-0.385559	
-0.384033	
-0.382935	
-0.383972	
-0.384155	
-0.383728	
-0.383789	
-0.382813	
-0.382751	
-0.383789	
-0.382996	
-0.382629	
-0.381775	
-0.382751	
-0.382996	
-0.382813	
-0.383118	
-0.38208	
-0.382507	
-0.38269	
-0.382568	
-0.382507	
-0.382813	
-0.382935	
-0.384094	
-0.384033	
-0.384155	
-0.382935	
-0.382629	
-0.383728	
-0.38324	
-0.38324	
-0.382263	
-0.383484	
-0.383545	
-0.383667	
-0.383423	
-0.383118	
-0.383362	
-0.383362	
-0.383423	
-0.382202	
-0.38269	
-0.38324	
-0.383057	
-0.383057	
-0.381714	
-0.38269	
-0.383423	
-0.382568	
-0.382446	
-0.381287	
-0.382507	
-0.382324	
-0.381897	
-0.382385	
-0.382141	
-0.381775	
-0.38269	
-0.381897	
-0.38208	
-0.38147	
-0.381714	
-0.381165	
-0.381226	
-0.381897	
-0.380737	
-0.380066	
-0.379883	
-0.380554	
-0.379761	
-0.378967	
-0.380615	
-0.379822	
-0.380615	
-0.379272	
-0.379761	
-0.379272	
-0.380127	
-0.379578	
-0.378479	
-0.378662	
-0.380371	
-0.380005	
-0.38092	
-0.379883	
-0.380371	
-0.380188	
-0.380493	
-0.380127	
-0.380432	
-0.38092	
-0.380737	
-0.381104	
-0.381226	
-0.381287	
-0.381897	
-0.38147	
-0.381775	
-0.381409	
-0.38208	
-0.383057	
-0.382935	
-0.383179	
-0.383057	
-0.383423	
-0.38324	
-0.382751	
-0.383362	
-0.382813	
-0.383667	
-0.384155	
-0.383667	
-0.384766	
-0.384766	
-0.384094	
-0.383362	
-0.383789	
-0.384216	
-0.383301	
-0.383301	
-0.38324	
-0.383484	
-0.384094	
-0.383789	
-0.383118	
-0.382751	
-0.384399	
-0.383301	
-0.383606	
-0.382813	
-0.383728	
-0.383911	
-0.383728	
-0.38324	
-0.383362	
-0.383606	
-0.384155	
-0.383484	
-0.383545	
-0.384033	
-0.383423	
-0.383423	
-0.382996	
-0.383179	
-0.384033	
-0.383484	
-0.383789	
-0.382324	
-0.383545	
-0.384338	
-0.38385	
-0.384033	
-0.383911	
-0.383484	
-0.384033	
-0.382874	
-0.383911	
-0.384216	
-0.384094	
-0.384583	
-0.383911	
-0.384705	
-0.384949	
-0.384155	
-0.382935	
-0.383423	
-0.383484	
-0.383667	
-0.383972	
-0.384033	
-0.383606	
-0.383911	
-0.383789	
-0.383301	
-0.383057	
-0.383545	
-0.382568	
-0.382446	
-0.38208	
-0.38208	
-0.38208	
-0.38147	
-0.381348	
-0.382202	
-0.380859	
-0.381348	
-0.37915	
-0.380005	
-0.379578	
-0.379883	
-0.379761	
-0.378723	
-0.378906	
-0.378784	
-0.377136	
-0.378906	
-0.378418	
-0.378296	
-0.377747	
-0.378235	
-0.378723	
-0.379028	
-0.378296	
-0.376892	
-0.377747	
-0.37854	
-0.37793	
-0.377869	
-0.377686	
-0.377808	
-0.378967	
-0.378113	
-0.377991	
-0.377319	
-0.378418	
-0.378357	
-0.378723	
-0.379272	
-0.378723	
-0.3797	
-0.379395	
-0.379761	
-0.380859	
-0.380188	
-0.38031	
-0.379272	
-0.38031	
-0.381165	
-0.381042	
-0.380737	
-0.380432	
-0.380676	
-0.380798	
-0.379883	
-0.380981	
-0.38092	
-0.381348	
-0.381042	
-0.381714	
-0.381775	
-0.38208	
-0.382019	
-0.381165	
-0.381836	
-0.382263	
-0.381897	
-0.382263	
-0.381165	
-0.382263	
-0.382935	
-0.382446	
-0.382751	
-0.381409	
-0.382751	
-0.382751	
-0.382996	
-0.383118	
-0.381836	
-0.382935	
-0.383362	
-0.383057	
-0.38385	
-0.381958	
-0.382751	
-0.382385	
-0.382874	
-0.38324	
-0.382507	
-0.38269	
-0.382751	
-0.382629	
-0.382629	
-0.381958	
-0.382446	
-0.38269	
-0.382629	
-0.38269	
-0.382629	
-0.38269	
-0.383484	
-0.382629	
-0.382568	
-0.382568	
-0.382874	
-0.382568	
-0.382507	
-0.382263	
-0.382385	
-0.382507	
-0.382324	
-0.38208	
-0.381287	
-0.380981	
-0.381348	
-0.380859	
-0.380554	
-0.379517	
-0.379761	
-0.379944	
-0.3797	
-0.379944	
-0.37854	
-0.379211	
-0.3797	
-0.378967	
-0.379578	
-0.377808	
-0.378723	
-0.379883	
-0.378296	
-0.379089	
-0.375916	
-0.378357	
-0.378418	
-0.37793	
-0.378357	
-0.377502	
-0.378296	
-0.378418	
-0.378357	
-0.378357	
-0.377869	
-0.378784	
-0.378479	
-0.378723	
-0.378845	
-0.37854	
-0.378967	
-0.378296	
-0.378784	
-0.377869	
-0.378479	
-0.378784	
-0.379028	
-0.379822	
-0.379272	
-0.380066	
-0.380371	
-0.380249	
-0.380371	
-0.379578	
-0.380676	
-0.380676	
-0.381042	
-0.381226	
-0.38092	
-0.38147	
-0.382141	
-0.381531	
-0.382202	
-0.379517	
-0.381836	
-0.380798	
-0.381958	
-0.381836	
-0.381409	
-0.381897	
-0.382629	
-0.38092	
-0.381531	
-0.380127	
-0.38092	
-0.381104	
-0.380981	
-0.381287	
-0.380615	
-0.381287	
-0.380554	
-0.381165	
-0.38031	
-0.381287	
-0.380676	
-0.381653	
-0.381287	
-0.382141	
-0.380127	
-0.381287	
-0.380432	
-0.381836	
-0.381042	
-0.381042	
-0.381165	
-0.382751	
-0.381775	
-0.382141	
-0.381042	
-0.382813	
-0.381592	
-0.381958	
-0.381165	
-0.382324	
-0.382019	
-0.38324	
-0.382324	
-0.38324	
-0.38208	
-0.384094	
-0.382935	
-0.383728	
-0.38208	
-0.383179	
-0.38269	
-0.384399	
-0.384155	
-0.384033	
-0.384277	
-0.385132	
-0.384094	
-0.384888	
-0.383667	
-0.384521	
-0.383728	
-0.38446	
-0.384705	
-0.384094	
-0.384705	
-0.384399	
-0.384399	
-0.384521	
-0.384277	
-0.38446	
-0.384216	
-0.383789	
-0.38385	
-0.383362	
-0.384094	
-0.382996	
-0.383301	
-0.382141	
-0.382813	
-0.382568	
-0.382874	
-0.382141	
-0.382629	
-0.38147	
-0.382629	
-0.380371	
-0.381348	
-0.380127	
-0.381531	
-0.380981	
-0.381775	
-0.381226	
-0.381958	
-0.380005	
-0.382568	
-0.380432	
-0.380981	
-0.379333	
-0.381165	
-0.380371	
-0.38147	
-0.381226	
-0.381592	
-0.381409	
-0.381836	
-0.381348	
-0.381653	
-0.381958	
-0.381836	
-0.380737	
-0.381714	
-0.381531	
-0.381287	
-0.381714	
-0.38147	
-0.381958	
-0.38208	
-0.381226	
-0.381897	
-0.380859	
-0.381714	
-0.382019	
-0.381714	
-0.382446	
-0.381104	
-0.382019	
-0.382141	
-0.381897	
-0.381592	
-0.382446	
-0.382141	
-0.382568	
-0.38092	
-0.382874	
-0.381104	
-0.381653	
-0.379944	
-0.382141	
-0.381348	
-0.382629	
-0.381287	
-0.381775	
-0.380676	
-0.382202	
-0.381714	
-0.381653	
-0.381897	
-0.381653	
-0.381409	
-0.38208	
-0.382141	
-0.381897	
-0.381775	
-0.381958	
-0.381897	
-0.382202	
-0.382751	
-0.382324	
-0.382935	
-0.383057	
-0.383667	
-0.383362	
-0.384399	
-0.383484	
-0.383728	
-0.38501	
-0.384338	
-0.384583	
-0.384277	
-0.385071	
-0.386353	
-0.385254	
-0.386719	
-0.38501	
-0.385864	
-0.385803	
-0.386047	
-0.386475	
-0.386597	
-0.386658	
-0.387146	
-0.386108	
-0.388184	
-0.385315	
-0.386658	
-0.384766	
-0.386353	
-0.386353	
-0.387207	
-0.387085	
-0.387695	
-0.386169	
-0.388489	
-0.386902	
-0.387085	
-0.386169	
-0.386902	
-0.386108	
-0.386963	
-0.385681	
-0.385986	
-0.385742	
-0.385803	
-0.385559	
-0.385254	
-0.384949	
-0.385193	
-0.384827	
-0.384827	
-0.384521	
-0.384277	
-0.385132	
-0.38446	
-0.38446	
-0.384644	
-0.384521	
-0.384399	
-0.38324	
-0.384277	
-0.384033	
-0.384155	
-0.384399	
-0.383484	
-0.383606	
-0.38385	
-0.383667	
-0.383301	
-0.383118	
-0.383484	
-0.383606	
-0.383179	
-0.383972	
-0.382507	
-0.382629	
-0.381531	
-0.382813	
-0.382446	
-0.382996	
-0.382568	
-0.383606	
-0.382324	
-0.384033	
-0.381104	
-0.382568	
-0.381042	
-0.382446	
-0.382446	
-0.38385	
-0.383118	
-0.383423	
-0.382141	
-0.384216	
-0.382813	
-0.383057	
-0.382568	
-0.382996	
-0.383301	
-0.383301	
-0.382996	
-0.382629	
-0.38324	
-0.383179	
-0.382385	
-0.382629	
-0.382629	
-0.382935	
-0.382874	
-0.382935	
-0.382935	
-0.382507	
-0.383423	
-0.382996	
-0.383362	
-0.384399	
-0.384583	
-0.384766	
-0.384888	
-0.385071	
-0.385864	
-0.384949	
-0.386169	
-0.385071	
-0.385681	
-0.386108	
-0.38623	
-0.386414	
-0.385681	
-0.386597	
-0.387573	
-0.385864	
-0.387695	
-0.385864	
-0.387634	
-0.386353	
-0.386963	
-0.387329	
-0.387817	
-0.387634	
-0.387878	
-0.386841	
-0.388977	
-0.387024	
-0.38739	
-0.385315	
-0.387329	
-0.387207	
-0.387329	
-0.387329	
-0.386963	
-0.387207	
-0.388245	
-0.387207	
-0.387634	
-0.386169	
-0.386841	
-0.386902	
-0.387268	
-0.386536	
-0.385742	
-0.38562	
-0.386169	
-0.385437	
-0.385071	
-0.384827	
-0.385254	
-0.384705	
-0.384705	
-0.384827	
-0.384583	
-0.384583	
-0.384277	
-0.384399	
-0.384216	
-0.38446	
-0.384277	
-0.384338	
-0.384644	
-0.385376	
-0.384155	
-0.384399	
-0.383545	
-0.384827	
-0.385437	
-0.384705	
-0.38501	
-0.384521	
-0.384827	
-0.38562	
-0.384033	
-0.385498	
-0.384338	
-0.384827	
-0.385376	
-0.384705	
-0.384888	
-0.385193	
-0.38446	
-0.384827	
-0.383423	
-0.385193	
-0.384399	
-0.384338	
-0.38446	
-0.38446	
-0.38446	
-0.384583	
-0.384705	
-0.384277	
-0.384094	
-0.385193	
-0.384094	
-0.383972	
-0.382263	
-0.38385	
-0.383606	
-0.38385	
-0.384277	
-0.383423	
-0.38324	
-0.384155	
-0.383118	
-0.383118	
-0.380493	
-0.382629	
-0.381775	
-0.382263	
-0.382751	
-0.381531	
-0.381836	
-0.381287	
-0.381592	
-0.381653	
-0.38092	
-0.381409	
-0.380737	
-0.381348	
-0.381714	
-0.38092	
-0.381653	
-0.381653	
-0.381531	
-0.381775	
-0.381287	
-0.381653	
-0.381104	
-0.38208	
-0.381836	
-0.381592	
-0.38269	
-0.382751	
-0.382629	
-0.382813	
-0.382813	
-0.382996	
-0.384155	
-0.383972	
-0.383362	
-0.383362	
-0.38501	
-0.384766	
-0.384216	
-0.383179	
-0.38446	
-0.384521	
-0.385437	
-0.385315	
-0.384888	
-0.383972	
-0.385376	
-0.385376	
-0.385071	
-0.383667	
-0.384766	
-0.384827	
-0.385254	
-0.385681	
-0.384583	
-0.383362	
-0.385681	
-0.384155	
-0.384216	
-0.383423	
-0.384399	
-0.384094	
-0.384888	
-0.38446	
-0.384216	
-0.383667	
-0.384827	
-0.384094	
-0.384583	
-0.382996	
-0.383667	
-0.383667	
-0.384766	
-0.383972	
-0.383362	
-0.384033	
-0.384827	
-0.384216	
-0.384583	
-0.383545	
-0.383667	
-0.383606	
-0.384766	
-0.384277	
-0.383911	
-0.384094	
-0.384338	
-0.384094	
-0.383789	
-0.38446	
-0.384399	
-0.38446	
-0.385437	
-0.38385	
-0.383972	
-0.383972	
-0.384155	
-0.384094	
-0.382568	
-0.38446	
-0.383972	
-0.383728	
-0.384216	
-0.383972	
-0.383545	
-0.384277	
-0.383179	
-0.383789	
-0.381897	
-0.383057	
-0.382568	
-0.382874	
-0.382324	
-0.38208	
-0.381592	
-0.383179	
-0.381897	
-0.381958	
-0.379761	
-0.380798	
-0.379944	
-0.381775	
-0.380188	
-0.380005	
-0.378296	
-0.380249	
-0.379089	
-0.379822	
-0.378296	
-0.379028	
-0.377991	
-0.380066	
-0.37915	
-0.378845	
-0.378235	
-0.378967	
-0.379211	
-0.379089	
-0.378662	
-0.378479	
-0.378845	
-0.379883	
-0.378418	
-0.378174	
-0.377258	
-0.37854	
-0.378235	
-0.37793	
-0.378967	
-0.37854	
-0.379456	
-0.380005	
-0.379456	
-0.379272	
-0.380432	
-0.380432	
-0.38031	
-0.379578	
-0.379883	
-0.380188	
-0.380798	
-0.380676	
-0.380493	
-0.38031	
-0.38208	
-0.380676	
-0.381042	
-0.379395	
-0.380798	
-0.380676	
-0.38147	
-0.381409	
-0.381409	
-0.381042	
-0.38324	
-0.381409	
-0.382263	
-0.38031	
-0.381836	
-0.380981	
-0.38269	
-0.382141	
-0.381958	
-0.381714	
-0.383301	
-0.38269	
-0.383301	
-0.382263	
-0.382446	
-0.38147	
-0.383789	
-0.382874	
-0.382813	
-0.381042	
-0.382385	
-0.382629	
-0.382874	
-0.382385	
-0.382385	
-0.382324	
-0.384216	
-0.382263	
-0.381775	
-0.380798	
-0.382568	
-0.382751	
-0.381897	
-0.381897	
-0.381958	
-0.38269	
-0.383728	
-0.382324	
-0.382141	
-0.381958	
-0.382629	
-0.382324	
-0.381714	
-0.382568	
-0.381958	
-0.382568	
-0.38269	
-0.381714	
-0.38208	
-0.38269	
-0.381409	
-0.381042	
-0.378906	
-0.380188	
-0.3797	
-0.380005	
-0.379517	
-0.379395	
-0.379089	
-0.381348	
-0.379395	
-0.379272	
-0.377197	
-0.37854	
-0.378418	
-0.378967	
-0.378174	
-0.378418	
-0.377747	
-0.379395	
-0.378052	
-0.37854	
-0.377441	
-0.377747	
-0.377075	
-0.37793	
-0.377441	
-0.377869	
-0.377441	
-0.378235	
-0.377441	
-0.378723	
-0.377808	
-0.377563	
-0.376953	
-0.378662	
-0.378235	
-0.377563	
-0.377136	
-0.377747	
-0.378113	
-0.378418	
-0.377991	
-0.378418	
-0.37854	
-0.380188	
-0.379272	
-0.379089	
-0.378601	
-0.379822	
-0.380249	
-0.379272	
-0.380127	
-0.380127	
-0.380737	
-0.381653	
-0.380188	
-0.381165	
-0.380615	
-0.380798	
-0.381104	
-0.380127	
-0.381042	
-0.381042	
-0.38092	
-0.382141	
-0.381287	
-0.380859	
-0.380371	
-0.380371	
-0.380737	
-0.378784	
-0.380249	
-0.379578	
-0.380737	
-0.38092	
-0.380615	
-0.380127	
-0.381348	
-0.380859	
-0.381042	
-0.3797	
-0.380615	
-0.379944	
-0.380981	
-0.380798	
-0.380737	
-0.380554	
-0.38147	
-0.380615	
-0.381287	
-0.380005	
-0.380737	
-0.381042	
-0.38147	
-0.38147	
-0.381348	
-0.380859	
-0.381836	
-0.381531	
-0.381226	
-0.381531	
-0.381592	
-0.382141	
-0.382385	
-0.382263	
-0.382263	
-0.381897	
-0.38269	
-0.38269	
-0.382446	
-0.383057	
-0.383118	
-0.383789	
-0.38446	
-0.383484	
-0.383545	
-0.383789	
-0.384216	
-0.384155	
-0.383118	
-0.383728	
-0.383789	
-0.38385	
-0.385193	
	
