C:\DOCUMENTS AND SETTINGS\JASON\DESKTOP\UFRJ\UFRJ EPHYS\RSCI-BM 12 WK SERIES\070806-RSCI-BM-16\RSCI-BM-16-REMG\070806-RSCI-BM-16-REMG-0014.ACQ
0.025000 msec/sample
1 channel
Analog input
Volts
CH1	
2000	
-0.379822	
-0.380371	
-0.379822	
-0.3797	
-0.380737	
-0.379456	
-0.3797	
-0.378723	
-0.380066	
-0.379517	
-0.37915	
-0.380554	
-0.379883	
-0.380066	
-0.379456	
-0.37915	
-0.379272	
-0.378601	
-0.379395	
-0.379395	
-0.379395	
-0.380432	
-0.380493	
-0.380859	
-0.38092	
-0.380127	
-0.380249	
-0.380127	
-0.380371	
-0.380798	
-0.380249	
-0.381104	
-0.381653	
-0.380981	
-0.381348	
-0.380249	
-0.380615	
-0.381348	
-0.380615	
-0.380798	
-0.379578	
-0.381348	
-0.381714	
-0.381226	
-0.381348	
-0.379578	
-0.380188	
-0.38208	
-0.381042	
-0.38092	
-0.380371	
-0.381348	
-0.381104	
-0.381592	
-0.380371	
-0.380798	
-0.380005	
-0.380981	
-0.380737	
-0.380798	
-0.381042	
-0.381104	
-0.381409	
-0.38092	
-0.380493	
-0.380859	
-0.381226	
-0.381409	
-0.381165	
-0.380615	
-0.381226	
-0.381104	
-0.380859	
-0.380615	
-0.380127	
-0.380432	
-0.380737	
-0.380554	
-0.380493	
-0.380432	
-0.381653	
-0.380798	
-0.380371	
-0.379883	
-0.380127	
-0.379578	
-0.379089	
-0.379761	
-0.379639	
-0.379639	
-0.380432	
-0.379944	
-0.380371	
-0.379272	
-0.378845	
-0.378296	
-0.378784	
-0.378967	
-0.379028	
-0.377563	
-0.379028	
-0.379578	
-0.379089	
-0.378845	
-0.37738	
-0.377625	
-0.37915	
-0.378845	
-0.378235	
-0.378052	
-0.378662	
-0.379456	
-0.378235	
-0.378235	
-0.376953	
-0.377502	
-0.37793	
-0.377319	
-0.377319	
-0.377502	
-0.377747	
-0.378357	
-0.377136	
-0.377747	
-0.377563	
-0.377869	
-0.377991	
-0.377808	
-0.377808	
-0.378357	
-0.378601	
-0.379089	
-0.379456	
-0.37915	
-0.378662	
-0.378723	
-0.379456	
-0.379456	
-0.379333	
-0.379761	
-0.379822	
-0.380066	
-0.379944	
-0.379333	
-0.379456	
-0.379211	
-0.379822	
-0.380005	
-0.379822	
-0.381165	
-0.380493	
-0.380737	
-0.380005	
-0.37915	
-0.378845	
-0.380188	
-0.379517	
-0.379761	
-0.378662	
-0.3797	
-0.379578	
-0.379639	
-0.379456	
-0.378418	
-0.378662	
-0.379822	
-0.379517	
-0.379089	
-0.378235	
-0.379578	
-0.379883	
-0.379517	
-0.378906	
-0.377747	
-0.378845	
-0.379211	
-0.378967	
-0.37854	
-0.378845	
-0.37854	
-0.379089	
-0.378418	
-0.377869	
-0.377625	
-0.377197	
-0.37793	
-0.377869	
-0.37738	
-0.377808	
-0.377869	
-0.378784	
-0.378174	
-0.377747	
-0.376709	
-0.376343	
-0.377991	
-0.377869	
-0.370605	
-0.36499	
-0.363586	
-0.365051	
-0.364075	
-0.364136	
-0.372131	
-0.377991	
-0.379517	
-0.379333	
-0.378906	
-0.380066	
-0.379517	
-0.379395	
-0.379333	
-0.378967	
-0.378784	
-0.379578	
-0.379089	
-0.379395	
-0.378967	
-0.379211	
-0.380432	
-0.378967	
-0.379456	
-0.378357	
-0.379211	
-0.379822	
-0.379456	
-0.379517	
-0.378784	
-0.379761	
-0.380371	
-0.379211	
-0.379028	
-0.377991	
-0.379211	
-0.379578	
-0.378662	
-0.379028	
-0.379333	
-0.379395	
-0.379761	
-0.379333	
-0.378845	
-0.377625	
-0.378662	
-0.378662	
-0.378662	
-0.378174	
-0.379028	
-0.378479	
-0.3797	
-0.37793	
-0.377625	
-0.377991	
-0.377441	
-0.377991	
-0.378113	
-0.377563	
-0.378723	
-0.378052	
-0.378418	
-0.378784	
-0.377319	
-0.377563	
-0.377441	
-0.377747	
-0.377563	
-0.37738	
-0.377869	
-0.378052	
-0.377808	
-0.377808	
-0.377258	
-0.377686	
-0.378235	
-0.378113	
-0.377869	
-0.378113	
-0.378357	
-0.378967	
-0.378357	
-0.378784	
-0.378357	
-0.378418	
-0.380615	
-0.379822	
-0.38031	
-0.379944	
-0.380554	
-0.382446	
-0.381287	
-0.38147	
-0.380066	
-0.381653	
-0.383667	
-0.383606	
-0.384766	
-0.386108	
-0.386475	
-0.388794	
-0.388062	
-0.38916	
-0.389404	
-0.392578	
-0.393494	
-0.39447	
-0.396423	
-0.398071	
-0.400391	
-0.401978	
-0.403931	
-0.405701	
-0.408508	
-0.411926	
-0.412292	
-0.414185	
-0.415588	
-0.417664	
-0.420349	
-0.420532	
-0.421814	
-0.421936	
-0.424072	
-0.4245	
-0.424316	
-0.424805	
-0.424255	
-0.424927	
-0.424194	
-0.424255	
-0.423584	
-0.425293	
-0.427246	
-0.42804	
-0.429382	
-0.431824	
-0.434143	
-0.438721	
-0.439819	
-0.442261	
-0.443176	
-0.446289	
-0.448669	
-0.450195	
-0.451965	
-0.454346	
-0.455933	
-0.457336	
-0.457703	
-0.458496	
-0.459045	
-0.460266	
-0.4599	
-0.459595	
-0.459351	
-0.459412	
-0.459412	
-0.457703	
-0.456665	
-0.45459	
-0.453979	
-0.453491	
-0.451111	
-0.449463	
-0.447205	
-0.446533	
-0.445923	
-0.443359	
-0.442566	
-0.439697	
-0.438782	
-0.439453	
-0.437744	
-0.43689	
-0.436584	
-0.435303	
-0.435974	
-0.433838	
-0.433411	
-0.432007	
-0.433044	
-0.432861	
-0.432739	
-0.432312	
-0.432617	
-0.432373	
-0.431702	
-0.429199	
-0.42804	
-0.426758	
-0.426086	
-0.423828	
-0.422119	
-0.419556	
-0.417114	
-0.414124	
-0.409912	
-0.406128	
-0.401733	
-0.398438	
-0.395996	
-0.391724	
-0.388428	
-0.384338	
-0.382507	
-0.380432	
-0.377136	
-0.374573	
-0.371094	
-0.369141	
-0.36853	
-0.366089	
-0.364624	
-0.362854	
-0.361511	
-0.361267	
-0.358948	
-0.3573	
-0.354553	
-0.354492	
-0.354187	
-0.35321	
-0.351868	
-0.351624	
-0.349854	
-0.349487	
-0.347778	
-0.345825	
-0.344299	
-0.345093	
-0.344482	
-0.344055	
-0.343994	
-0.343933	
-0.343933	
-0.343689	
-0.343811	
-0.342773	
-0.343628	
-0.345215	
-0.344727	
-0.345398	
-0.346069	
-0.346497	
-0.348145	
-0.34729	
-0.347717	
-0.347107	
-0.349487	
-0.349182	
-0.350708	
-0.350769	
-0.351685	
-0.3526	
-0.352722	
-0.352905	
-0.352783	
-0.35376	
-0.35498	
-0.354553	
-0.355225	
-0.355652	
-0.356628	
-0.358093	
-0.356445	
-0.35675	
-0.355164	
-0.35675	
-0.356323	
-0.356873	
-0.356262	
-0.356689	
-0.357178	
-0.357117	
-0.356934	
-0.356567	
-0.356812	
-0.357666	
-0.357117	
-0.357178	
-0.357788	
-0.358032	
-0.359497	
-0.357849	
-0.357422	
-0.356201	
-0.35791	
-0.357788	
-0.357666	
-0.357788	
-0.358521	
-0.359009	
-0.358337	
-0.358459	
-0.358032	
-0.357971	
-0.359009	
-0.358765	
-0.359009	
-0.359436	
-0.359192	
-0.361023	
-0.359741	
-0.359741	
-0.359436	
-0.361084	
-0.361206	
-0.361938	
-0.361938	
-0.362793	
-0.363586	
-0.363281	
-0.363525	
-0.363159	
-0.363953	
-0.365112	
-0.364319	
-0.364868	
-0.36499	
-0.365906	
-0.367676	
-0.365967	
-0.366089	
-0.364746	
-0.366821	
-0.36676	
-0.367065	
-0.367432	
-0.36792	
-0.367676	
-0.367371	
-0.367188	
-0.36731	
-0.367126	
-0.368408	
-0.367493	
-0.36792	
-0.367065	
-0.367859	
-0.369385	
-0.368469	
-0.368286	
-0.366516	
-0.367859	
-0.369446	
-0.369507	
-0.369202	
-0.369934	
-0.369568	
-0.369995	
-0.368713	
-0.369324	
-0.369629	
-0.369995	
-0.369934	
-0.370117	
-0.370117	
-0.370483	
-0.37085	
-0.370544	
-0.370911	
-0.3703	
-0.370972	
-0.371826	
-0.371582	
-0.371765	
-0.371948	
-0.372742	
-0.373901	
-0.373535	
-0.372864	
-0.371765	
-0.372131	
-0.373901	
-0.373108	
-0.37323	
-0.373047	
-0.373657	
-0.373962	
-0.373413	
-0.372925	
-0.373901	
-0.374512	
-0.373962	
-0.374329	
-0.374268	
-0.375488	
-0.375977	
-0.375366	
-0.373962	
-0.374084	
-0.375793	
-0.376282	
-0.37616	
-0.376282	
-0.376404	
-0.377747	
-0.377319	
-0.377319	
-0.376404	
-0.376221	
-0.376526	
-0.377625	
-0.376526	
-0.376465	
-0.37561	
-0.377197	
-0.377991	
-0.37677	
-0.375977	
-0.375488	
-0.375977	
-0.376892	
-0.376282	
-0.376404	
-0.376221	
-0.377014	
-0.376465	
-0.376343	
-0.374695	
-0.375549	
-0.374573	
-0.375977	
-0.376221	
-0.37616	
-0.376892	
-0.377258	
-0.376831	
-0.376404	
-0.375916	
-0.376831	
-0.376892	
-0.377075	
-0.376587	
-0.377075	
-0.378296	
-0.377319	
-0.37738	
-0.375854	
-0.376709	
-0.376831	
-0.377563	
-0.377014	
-0.37677	
-0.376282	
-0.377075	
-0.377563	
-0.377014	
-0.375793	
-0.375427	
-0.374573	
-0.376465	
-0.375	
-0.375244	
-0.375488	
-0.376465	
-0.376038	
-0.375	
-0.373962	
-0.374756	
-0.375183	
-0.375122	
-0.374817	
-0.374878	
-0.375366	
-0.375427	
-0.375183	
-0.373901	
-0.374939	
-0.374695	
-0.375854	
-0.375	
-0.375366	
-0.375244	
-0.376221	
-0.375793	
-0.375305	
-0.374634	
-0.375	
-0.375793	
-0.376465	
-0.37561	
-0.37561	
-0.375488	
-0.376709	
-0.377014	
-0.37561	
-0.376038	
-0.375183	
-0.376709	
-0.376892	
-0.377136	
-0.377075	
-0.37793	
-0.37793	
-0.378296	
-0.376526	
-0.377747	
-0.376709	
-0.378296	
-0.377747	
-0.378113	
-0.377625	
-0.379272	
-0.378784	
-0.37854	
-0.377869	
-0.377747	
-0.378418	
-0.379333	
-0.378418	
-0.379211	
-0.378479	
-0.379639	
-0.379578	
-0.378479	
-0.378601	
-0.378174	
-0.379395	
-0.378906	
-0.378784	
-0.378967	
-0.379822	
-0.379333	
-0.380005	
-0.377869	
-0.378662	
-0.37854	
-0.379456	
-0.378967	
-0.379333	
-0.379089	
-0.380981	
-0.379578	
-0.38031	
-0.378479	
-0.379333	
-0.378601	
-0.38031	
-0.379883	
-0.379395	
-0.378662	
-0.380371	
-0.380005	
-0.379517	
-0.379333	
-0.379028	
-0.3797	
-0.379395	
-0.379456	
-0.378906	
-0.379883	
-0.379272	
-0.3797	
-0.378479	
-0.378845	
-0.37738	
-0.378967	
-0.378906	
-0.378906	
-0.378296	
-0.380432	
-0.378479	
-0.379333	
-0.375854	
-0.378113	
-0.377014	
-0.378662	
-0.378174	
-0.37793	
-0.37677	
-0.378479	
-0.377747	
-0.377991	
-0.377625	
-0.37738	
-0.377502	
-0.378174	
-0.377991	
-0.377319	
-0.377808	
-0.377258	
-0.377686	
-0.376831	
-0.376953	
-0.376831	
-0.377197	
-0.376953	
-0.377319	
-0.376953	
-0.379089	
-0.377075	
-0.378601	
-0.375366	
-0.377747	
-0.376099	
-0.377991	
-0.37793	
-0.378235	
-0.378052	
-0.380005	
-0.379333	
-0.380066	
-0.378845	
-0.379456	
-0.378967	
-0.380066	
-0.379639	
-0.379639	
-0.379272	
-0.379395	
-0.380066	
-0.379395	
-0.379639	
-0.379456	
-0.380066	
-0.380188	
-0.380066	
-0.380066	
-0.381042	
-0.3797	
-0.38092	
-0.377563	
-0.3797	
-0.377808	
-0.379395	
-0.379456	
-0.378906	
-0.379333	
-0.380493	
-0.379395	
-0.380432	
-0.378967	
-0.378906	
-0.378418	
-0.379639	
-0.379089	
-0.378967	
-0.379456	
-0.379333	
-0.380005	
-0.378967	
-0.379028	
-0.378418	
-0.378662	
-0.379639	
-0.378418	
-0.378906	
-0.378784	
-0.378296	
-0.379456	
-0.375916	
-0.377869	
-0.375977	
-0.378052	
-0.379089	
-0.378357	
-0.378174	
-0.378662	
-0.378662	
-0.379517	
-0.378113	
-0.378235	
-0.378052	
-0.378967	
-0.379211	
-0.379028	
-0.379211	
-0.378784	
-0.379333	
-0.378418	
-0.378723	
-0.378723	
-0.37915	
-0.379517	
-0.379089	
-0.379333	
-0.380493	
-0.379395	
-0.379578	
-0.377441	
-0.379333	
-0.37854	
-0.379456	
-0.380615	
-0.3797	
-0.380005	
-0.380432	
-0.380249	
-0.38092	
-0.380066	
-0.380066	
-0.378357	
-0.380737	
-0.381042	
-0.380676	
-0.38092	
-0.379944	
-0.380859	
-0.381104	
-0.380554	
-0.380005	
-0.37915	
-0.380249	
-0.380554	
-0.380859	
-0.38147	
-0.380188	
-0.380371	
-0.378662	
-0.380066	
-0.379333	
-0.379822	
-0.380127	
-0.380127	
-0.379578	
-0.379761	
-0.379272	
-0.379761	
-0.379272	
-0.378967	
-0.377869	
-0.378784	
-0.379089	
-0.379089	
-0.378418	
-0.378418	
-0.379028	
-0.378479	
-0.378662	
-0.378418	
-0.378235	
-0.37854	
-0.378906	
-0.379028	
-0.379822	
-0.378479	
-0.378845	
-0.377686	
-0.378845	
-0.378662	
-0.377869	
-0.378967	
-0.380005	
-0.379639	
-0.380371	
-0.378967	
-0.380249	
-0.380432	
-0.38031	
-0.379822	
-0.381409	
-0.381592	
-0.382263	
-0.381897	
-0.38147	
-0.381714	
-0.381897	
-0.381287	
-0.381287	
-0.381287	
-0.381226	
-0.381775	
-0.381653	
-0.382324	
-0.381226	
-0.381775	
-0.381165	
-0.381348	
-0.381226	
-0.381042	
-0.381287	
-0.38147	
-0.381226	
-0.382446	
-0.38092	
-0.381897	
-0.382263	
-0.381836	
-0.381531	
-0.38092	
-0.382263	
-0.38269	
-0.382629	
-0.38324	
-0.381653	
-0.383728	
-0.381958	
-0.382813	
-0.381836	
-0.382507	
-0.382813	
-0.383423	
-0.382874	
-0.383545	
-0.381958	
-0.382996	
-0.381897	
-0.382874	
-0.382568	
-0.382813	
-0.382751	
-0.38324	
-0.383179	
-0.38269	
-0.382935	
-0.382629	
-0.38269	
-0.382507	
-0.381958	
-0.383728	
-0.383667	
-0.383606	
-0.384033	
-0.383057	
-0.383911	
-0.383728	
-0.383667	
-0.383057	
-0.382996	
-0.383057	
-0.383179	
-0.383118	
-0.382751	
-0.382141	
-0.38269	
-0.381836	
-0.381836	
-0.380615	
-0.382568	
-0.381958	
-0.382629	
-0.382385	
-0.382507	
-0.381104	
-0.38269	
-0.380798	
-0.38208	
-0.380981	
-0.381958	
-0.381958	
-0.382813	
-0.382996	
-0.382874	
-0.381958	
-0.381958	
-0.381775	
-0.381714	
-0.381653	
-0.382141	
-0.381897	
-0.381836	
-0.38208	
-0.381836	
-0.382385	
-0.382019	
-0.382141	
-0.381653	
-0.382202	
-0.382507	
-0.382507	
-0.382629	
-0.382568	
-0.381958	
-0.38269	
-0.381775	
-0.381958	
-0.380981	
-0.381897	
-0.381653	
-0.382141	
-0.382874	
-0.383057	
-0.381775	
-0.382813	
-0.381653	
-0.38208	
-0.380493	
-0.382324	
-0.382751	
-0.382874	
-0.383057	
-0.383667	
-0.382141	
-0.383545	
-0.382751	
-0.382568	
-0.382813	
-0.383179	
-0.383423	
-0.384583	
-0.383911	
-0.38385	
-0.382874	
-0.383606	
-0.383423	
-0.383484	
-0.384216	
-0.384338	
-0.384521	
-0.385376	
-0.384949	
-0.384277	
-0.385193	
-0.384338	
-0.384644	
-0.383606	
-0.384705	
-0.38501	
-0.385193	
-0.385864	
-0.385681	
-0.385071	
-0.38501	
-0.384216	
-0.384949	
-0.384705	
-0.385742	
-0.385864	
-0.386414	
-0.386536	
-0.386414	
-0.385132	
-0.386292	
-0.384644	
-0.385071	
-0.384216	
-0.384888	
-0.385681	
-0.385742	
-0.385315	
-0.384766	
-0.383728	
-0.384338	
-0.383911	
-0.383484	
-0.38324	
-0.383423	
-0.38324	
-0.383972	
-0.383789	
-0.382935	
-0.383423	
-0.382813	
-0.38324	
-0.381592	
-0.382629	
-0.382813	
-0.382874	
-0.383667	
-0.383301	
-0.382874	
-0.382935	
-0.382629	
-0.382874	
-0.382507	
-0.382935	
-0.383423	
-0.38385	
-0.384216	
-0.384216	
-0.383728	
-0.383179	
-0.382568	
-0.382996	
-0.382507	
-0.383667	
-0.383362	
-0.384338	
-0.384155	
-0.384399	
-0.382935	
-0.384094	
-0.383118	
-0.383484	
-0.384033	
-0.384888	
-0.384644	
-0.385559	
-0.385254	
-0.385376	
-0.386047	
-0.38501	
-0.385193	
-0.384033	
-0.385559	
-0.385559	
-0.385742	
-0.385925	
-0.385498	
-0.385193	
-0.385803	
-0.385742	
-0.385254	
-0.384827	
-0.384888	
-0.384766	
-0.385132	
-0.38501	
-0.385193	
-0.384338	
-0.384277	
-0.384155	
-0.384338	
-0.384033	
-0.384216	
-0.384277	
-0.385254	
-0.384644	
-0.385193	
-0.383118	
-0.383972	
-0.383545	
-0.384094	
-0.383606	
-0.384033	
-0.384583	
-0.384705	
-0.384399	
-0.384644	
-0.384277	
-0.384827	
-0.383667	
-0.383118	
-0.383301	
-0.384338	
-0.384155	
-0.384094	
-0.384094	
-0.384033	
-0.384644	
-0.384338	
-0.383667	
-0.383423	
-0.383789	
-0.383911	
-0.384094	
-0.384399	
-0.384155	
-0.383667	
-0.384277	
-0.384155	
-0.383911	
-0.383789	
-0.383972	
-0.384827	
-0.38501	
-0.384521	
-0.384827	
-0.383667	
-0.38446	
-0.383545	
-0.384583	
-0.384521	
-0.384827	
-0.38501	
-0.385376	
-0.385559	
-0.385559	
-0.385437	
-0.384155	
-0.384155	
-0.384583	
-0.384888	
-0.385376	
-0.385559	
-0.385559	
-0.386047	
-0.385376	
-0.386169	
-0.385376	
-0.384949	
-0.384338	
-0.384338	
-0.384949	
-0.385071	
-0.385132	
-0.385071	
-0.38446	
-0.38501	
-0.38501	
-0.384338	
-0.383789	
-0.382874	
-0.383179	
-0.384094	
-0.383545	
-0.383545	
-0.382141	
-0.382935	
-0.382874	
-0.383362	
-0.383423	
-0.38324	
-0.38324	
-0.383911	
-0.383728	
-0.383789	
-0.38324	
-0.382813	
-0.382629	
-0.382751	
-0.383179	
-0.382813	
-0.383057	
-0.383301	
-0.38385	
-0.383057	
-0.383179	
-0.382507	
-0.38269	
-0.382263	
-0.382019	
-0.382141	
-0.382629	
-0.38269	
-0.382935	
-0.381775	
-0.382324	
-0.382202	
-0.381836	
-0.38092	
-0.381226	
-0.381714	
-0.382874	
-0.38208	
-0.382568	
-0.381104	
-0.38269	
-0.381653	
-0.38147	
-0.381042	
-0.381348	
-0.381775	
-0.382324	
-0.381958	
-0.382568	
-0.381775	
-0.38208	
-0.381348	
-0.381653	
-0.381226	
-0.381531	
-0.381165	
-0.381104	
-0.381775	
-0.38147	
-0.381836	
-0.381104	
-0.381287	
-0.380859	
-0.380554	
-0.381348	
-0.381653	
-0.381226	
-0.382996	
-0.381531	
-0.382507	
-0.382446	
-0.382141	
-0.381836	
-0.380981	
-0.382324	
-0.383118	
-0.382813	
-0.383118	
-0.381531	
-0.383301	
-0.382446	
-0.382629	
-0.38208	
-0.38208	
-0.382874	
-0.383301	
-0.38324	
-0.383606	
-0.38269	
-0.382629	
-0.382568	
-0.382751	
-0.382813	
-0.382629	
-0.383362	
-0.382507	
-0.383423	
-0.382935	
-0.382996	
-0.381897	
-0.382507	
-0.382202	
-0.382202	
-0.38269	
-0.382507	
-0.382324	
-0.383606	
-0.382202	
-0.38324	
-0.381653	
-0.382996	
-0.382324	
-0.382385	
-0.382996	
-0.382935	
-0.383484	
-0.383728	
-0.381897	
-0.383301	
-0.381958	
-0.382385	
-0.381104	
-0.381958	
-0.382935	
-0.383362	
-0.382385	
-0.383057	
-0.381348	
-0.382629	
-0.382629	
-0.381714	
-0.380859	
-0.380798	
-0.381653	
-0.382324	
-0.381531	
-0.381042	
-0.381165	
-0.381226	
-0.381592	
-0.380737	
-0.380432	
-0.380554	
-0.38092	
-0.380859	
-0.381042	
-0.380066	
-0.380371	
-0.379211	
-0.38031	
-0.379944	
-0.379639	
-0.379822	
-0.380432	
-0.380005	
-0.38147	
-0.380188	
-0.379517	
-0.378906	
-0.380005	
-0.379517	
-0.379395	
-0.379333	
-0.379639	
-0.379028	
-0.380066	
-0.378601	
-0.379395	
-0.379272	
-0.379089	
-0.379089	
-0.378662	
-0.379944	
-0.380859	
-0.380188	
-0.380066	
-0.378845	
-0.381104	
-0.381287	
-0.380615	
-0.380127	
-0.380493	
-0.381409	
-0.381714	
-0.382324	
-0.381042	
-0.380981	
-0.381409	
-0.381653	
-0.381409	
-0.380554	
-0.381958	
-0.381714	
-0.381836	
-0.382751	
-0.381531	
-0.381348	
-0.381714	
-0.381775	
-0.381714	
-0.380859	
-0.381653	
-0.381775	
-0.381409	
-0.381531	
-0.38092	
-0.380798	
-0.380615	
-0.380981	
-0.381165	
-0.380798	
-0.38147	
-0.381042	
-0.381287	
-0.381958	
-0.380615	
-0.381042	
-0.380188	
-0.38092	
-0.380127	
-0.3797	
-0.380676	
-0.38092	
-0.380737	
-0.380554	
-0.379272	
-0.379944	
-0.380737	
-0.379822	
-0.37793	
-0.378967	
-0.378967	
-0.380188	
-0.38031	
-0.379272	
-0.379211	
-0.38031	
-0.379272	
-0.37915	
-0.379028	
-0.379456	
-0.379517	
-0.38031	
-0.3797	
-0.379761	
-0.380005	
-0.380127	
-0.380005	
-0.379761	
-0.379456	
-0.380188	
-0.380493	
-0.380676	
-0.381042	
-0.380371	
-0.379822	
-0.379822	
-0.380249	
-0.379639	
-0.379211	
-0.380005	
-0.380554	
-0.381165	
-0.380981	
-0.380493	
-0.379517	
-0.38092	
-0.380371	
-0.380188	
-0.380554	
-0.380127	
-0.38092	
-0.380371	
-0.380249	
-0.3797	
-0.380859	
-0.380737	
-0.380554	
-0.380005	
-0.380432	
-0.380432	
-0.381592	
-0.380554	
-0.38031	
-0.379089	
-0.381104	
-0.379944	
-0.380127	
-0.379272	
-0.380676	
-0.380188	
-0.38092	
-0.380493	
-0.379822	
-0.377869	
-0.380188	
-0.379517	
-0.3797	
-0.377625	
-0.379456	
-0.379456	
-0.380432	
-0.380005	
-0.378845	
-0.37793	
-0.379517	
-0.379333	
-0.378967	
-0.37793	
-0.379272	
-0.379333	
-0.379761	
-0.379639	
-0.378723	
-0.379333	
-0.378906	
-0.379089	
-0.378845	
-0.378906	
-0.379639	
-0.379822	
-0.3797	
-0.379761	
-0.379395	
-0.379944	
-0.379761	
-0.380249	
-0.379639	
-0.380554	
-0.381104	
-0.381836	
-0.381836	
-0.381348	
-0.381042	
-0.381775	
-0.38147	
-0.381165	
-0.38031	
-0.381348	
-0.381287	
-0.382751	
-0.381836	
-0.381104	
-0.379944	
-0.38147	
-0.38147	
-0.381042	
-0.379639	
-0.381226	
-0.381348	
-0.382629	
-0.381958	
-0.380798	
-0.380249	
-0.382507	
-0.381592	
-0.38147	
-0.380981	
-0.382019	
-0.382202	
-0.382385	
-0.381836	
-0.381836	
-0.381958	
-0.382935	
-0.382446	
-0.382202	
-0.382751	
-0.382507	
-0.383301	
-0.382935	
-0.382629	
-0.381775	
-0.382507	
-0.382446	
-0.382324	
-0.382263	
-0.38324	
-0.383362	
-0.383728	
-0.382629	
-0.382874	
-0.381653	
-0.383728	
-0.382935	
-0.382874	
-0.38147	
-0.383118	
-0.383667	
-0.38501	
-0.384705	
-0.38324	
-0.382324	
-0.38446	
-0.383484	
-0.383484	
-0.382507	
-0.383423	
-0.383789	
-0.384399	
-0.383301	
-0.382324	
-0.381897	
-0.382996	
-0.382446	
-0.381775	
-0.381653	
-0.382263	
-0.382263	
-0.382568	
-0.382019	
-0.381653	
-0.38208	
-0.381653	
-0.381958	
-0.381226	
-0.381836	
-0.381958	
-0.38208	
-0.382385	
-0.381775	
-0.381104	
-0.382019	
-0.381653	
-0.381836	
-0.381104	
-0.381958	
-0.381714	
-0.382202	
-0.382202	
-0.381287	
-0.380798	
-0.381897	
-0.381897	
-0.381653	
-0.380249	
-0.381653	
-0.382019	
-0.38324	
-0.382507	
-0.382019	
-0.380066	
-0.381897	
-0.381592	
-0.381287	
-0.380493	
-0.381531	
-0.381897	
-0.383362	
-0.382568	
-0.381714	
-0.380615	
-0.382202	
-0.381897	
-0.381409	
-0.38208	
-0.381897	
-0.381958	
-0.382996	
-0.382019	
-0.381897	
-0.381958	
-0.382324	
-0.382324	
-0.381836	
-0.382568	
-0.382507	
-0.382324	
-0.38269	
-0.382568	
-0.382507	
-0.383484	
-0.383179	
-0.382813	
-0.382629	
-0.383667	
-0.383667	
-0.384033	
-0.38385	
-0.383789	
-0.383179	
-0.38446	
-0.383972	
-0.383789	
-0.382141	
-0.383728	
-0.383789	
-0.385071	
-0.38501	
-0.384033	
-0.38269	
-0.384583	
-0.384216	
-0.384155	
-0.383423	
-0.384705	
-0.385193	
-0.386719	
-0.386108	
-0.384949	
-0.383728	
-0.384766	
-0.384338	
-0.38385	
-0.384216	
-0.384399	
-0.384399	
-0.384705	
-0.38446	
-0.383911	
-0.383789	
-0.383484	
-0.382874	
-0.382568	
-0.382385	
-0.382507	
-0.382874	
-0.382935	
-0.382141	
-0.382141	
-0.382935	
-0.382141	
-0.382385	
-0.381531	
-0.382019	
-0.381958	
-0.382568	
-0.382202	
-0.381653	
-0.381287	
-0.383423	
-0.38208	
-0.381958	
-0.379639	
-0.382507	
-0.382324	
-0.383789	
-0.383057	
-0.382629	
-0.381226	
-0.384094	
-0.382751	
-0.382385	
-0.381653	
-0.382874	
-0.382813	
-0.384155	
-0.383484	
-0.382263	
-0.381287	
-0.38269	
-0.383057	
-0.382996	
-0.383118	
-0.383362	
-0.383606	
-0.385254	
-0.384705	
-0.38385	
-0.384277	
-0.383484	
-0.384155	
-0.384155	
-0.384583	
-0.384521	
-0.385071	
-0.38501	
-0.38501	
-0.384216	
-0.384521	
-0.384277	
-0.384644	
-0.383789	
-0.384338	
-0.384216	
-0.384644	
-0.383911	
-0.383789	
-0.382996	
-0.384338	
-0.383606	
-0.383423	
-0.381714	
-0.383301	
-0.383789	
-0.384583	
-0.383484	
-0.382996	
-0.381653	
-0.384949	
-0.383362	
-0.383362	
-0.382507	
-0.383484	
-0.383545	
-0.384949	
-0.383789	
-0.383179	
-0.381226	
-0.382813	
-0.382874	
-0.382996	
-0.382935	
-0.383118	
-0.383484	
-0.384521	
-0.383972	
-0.382996	
-0.383118	
-0.38269	
-0.382874	
-0.382813	
-0.38269	
-0.383118	
-0.383728	
-0.383118	
-0.383423	
-0.382263	
-0.383423	
-0.383057	
-0.383057	
-0.382874	
-0.383301	
-0.383484	
-0.383728	
-0.383911	
-0.383545	
-0.382996	
-0.385071	
-0.383606	
-0.383545	
-0.381958	
-0.383911	
-0.384216	
-0.385254	
-0.384338	
-0.383972	
-0.383118	
-0.385376	
-0.384033	
-0.383972	
-0.382996	
-0.384583	
-0.384216	
-0.385376	
-0.384949	
-0.384216	
-0.383057	
-0.384155	
-0.384521	
-0.38385	
-0.383911	
-0.384094	
-0.384399	
-0.384705	
-0.384521	
-0.383423	
-0.383545	
-0.382813	
-0.383423	
-0.382568	
-0.383179	
-0.382629	
-0.38269	
-0.382446	
-0.382263	
-0.382019	
-0.382141	
-0.382141	
-0.382141	
-0.381409	
-0.382507	
-0.382019	
-0.382507	
-0.382141	
-0.382263	
-0.381775	
-0.382629	
-0.38208	
-0.381836	
-0.38031	
-0.382019	
-0.382202	
-0.38324	
-0.382202	
-0.382202	
-0.380493	
-0.383545	
-0.382019	
-0.381531	
-0.380188	
-0.381287	
-0.381836	
-0.382629	
-0.381836	
-0.381409	
-0.380798	
-0.380859	
-0.380737	
-0.380493	
-0.380859	
-0.380676	
-0.380676	
-0.381775	
-0.381714	
-0.380615	
-0.379883	
-0.380554	
-0.380737	
-0.380737	
-0.380554	
-0.380554	
-0.380798	
	
