C:\DOCUMENTS AND SETTINGS\JASON\DESKTOP\UFRJ\UFRJ EPHYS\RSCI-BM 12 WK SERIES\070806-RSCI-BM-16\RSCI-BM-16-REMG\070806-RSCI-BM-16-REMG-0015.ACQ
0.025000 msec/sample
1 channel
Analog input
Volts
CH1	
2000	
-0.38147	
-0.382568	
-0.381165	
-0.381165	
-0.380127	
-0.381836	
-0.382935	
-0.382202	
-0.381592	
-0.381042	
-0.383057	
-0.384094	
-0.382324	
-0.381897	
-0.381653	
-0.382874	
-0.383118	
-0.382385	
-0.382324	
-0.382507	
-0.383606	
-0.383301	
-0.382935	
-0.381775	
-0.382446	
-0.383179	
-0.382813	
-0.382446	
-0.382263	
-0.382446	
-0.383423	
-0.381958	
-0.381714	
-0.380066	
-0.381531	
-0.382202	
-0.381104	
-0.380859	
-0.38031	
-0.380737	
-0.381836	
-0.380005	
-0.379639	
-0.377808	
-0.379333	
-0.38031	
-0.379028	
-0.378662	
-0.376892	
-0.37915	
-0.380615	
-0.37854	
-0.378601	
-0.376831	
-0.379211	
-0.380554	
-0.378906	
-0.378906	
-0.376709	
-0.379272	
-0.380188	
-0.379639	
-0.378906	
-0.378113	
-0.380066	
-0.380676	
-0.380188	
-0.380371	
-0.380432	
-0.381409	
-0.38208	
-0.381348	
-0.381104	
-0.380981	
-0.38208	
-0.382324	
-0.381897	
-0.381531	
-0.382568	
-0.383423	
-0.383606	
-0.382874	
-0.382141	
-0.383118	
-0.383728	
-0.383667	
-0.383484	
-0.382813	
-0.38385	
-0.384766	
-0.38385	
-0.383545	
-0.381226	
-0.38385	
-0.384033	
-0.383545	
-0.383118	
-0.383118	
-0.383057	
-0.384888	
-0.382996	
-0.382385	
-0.380676	
-0.382324	
-0.383606	
-0.382629	
-0.382446	
-0.381409	
-0.382568	
-0.383362	
-0.38208	
-0.381897	
-0.381958	
-0.382629	
-0.383789	
-0.382324	
-0.382263	
-0.380127	
-0.382874	
-0.382874	
-0.381836	
-0.382202	
-0.38208	
-0.382568	
-0.384705	
-0.382813	
-0.382813	
-0.380981	
-0.383423	
-0.383484	
-0.382935	
-0.382751	
-0.382141	
-0.383606	
-0.384277	
-0.383545	
-0.383057	
-0.383423	
-0.384521	
-0.384094	
-0.38324	
-0.382751	
-0.382874	
-0.384094	
-0.384155	
-0.383728	
-0.383606	
-0.383728	
-0.385498	
-0.38446	
-0.383972	
-0.381531	
-0.384155	
-0.384277	
-0.384155	
-0.384399	
-0.383667	
-0.384277	
-0.385925	
-0.384399	
-0.384338	
-0.381714	
-0.38385	
-0.384216	
-0.384033	
-0.383667	
-0.382874	
-0.383911	
-0.385498	
-0.383362	
-0.383484	
-0.38269	
-0.383972	
-0.38501	
-0.383484	
-0.383179	
-0.381348	
-0.383545	
-0.384094	
-0.383545	
-0.383057	
-0.382568	
-0.382751	
-0.384277	
-0.382446	
-0.381897	
-0.381897	
-0.382507	
-0.382629	
-0.381897	
-0.380981	
-0.380493	
-0.381348	
-0.381592	
-0.381042	
-0.380371	
-0.380676	
-0.374146	
-0.367737	
-0.365173	
-0.364441	
-0.365234	
-0.366455	
-0.375061	
-0.380676	
-0.38147	
-0.381165	
-0.382507	
-0.381409	
-0.38092	
-0.38031	
-0.381348	
-0.381836	
-0.381531	
-0.381287	
-0.381348	
-0.38208	
-0.383118	
-0.382019	
-0.381836	
-0.381531	
-0.382751	
-0.384033	
-0.382629	
-0.383362	
-0.381775	
-0.383972	
-0.38446	
-0.383667	
-0.383484	
-0.38324	
-0.384094	
-0.385681	
-0.384033	
-0.384277	
-0.382446	
-0.385071	
-0.385193	
-0.384033	
-0.383545	
-0.382996	
-0.384644	
-0.385315	
-0.384094	
-0.384033	
-0.382874	
-0.38446	
-0.384399	
-0.383057	
-0.381836	
-0.382385	
-0.382629	
-0.382202	
-0.382019	
-0.381836	
-0.38208	
-0.38324	
-0.381775	
-0.381836	
-0.379517	
-0.381592	
-0.381836	
-0.381653	
-0.381409	
-0.381104	
-0.381836	
-0.383057	
-0.381348	
-0.38147	
-0.38031	
-0.381226	
-0.381409	
-0.381348	
-0.381226	
-0.380737	
-0.381531	
-0.381653	
-0.380737	
-0.380493	
-0.381104	
-0.381348	
-0.381714	
-0.380981	
-0.381042	
-0.380127	
-0.381165	
-0.381653	
-0.381348	
-0.381592	
-0.381531	
-0.382996	
-0.385193	
-0.384094	
-0.384705	
-0.38324	
-0.38678	
-0.388062	
-0.387878	
-0.388428	
-0.390198	
-0.391296	
-0.393372	
-0.393311	
-0.395203	
-0.39679	
-0.39978	
-0.39978	
-0.40155	
-0.403687	
-0.406006	
-0.408813	
-0.410217	
-0.411865	
-0.41272	
-0.416321	
-0.417786	
-0.418396	
-0.419312	
-0.421631	
-0.423218	
-0.424744	
-0.424927	
-0.425232	
-0.425781	
-0.42627	
-0.425049	
-0.424377	
-0.424377	
-0.424866	
-0.42627	
-0.425598	
-0.426819	
-0.426453	
-0.430298	
-0.431824	
-0.434326	
-0.435486	
-0.439514	
-0.441589	
-0.444397	
-0.445496	
-0.447205	
-0.449097	
-0.452759	
-0.452454	
-0.453003	
-0.452332	
-0.45575	
-0.456787	
-0.457153	
-0.457214	
-0.457275	
-0.458557	
-0.45929	
-0.457581	
-0.456848	
-0.456238	
-0.455261	
-0.455383	
-0.453003	
-0.451416	
-0.449341	
-0.449402	
-0.44751	
-0.446411	
-0.444824	
-0.444092	
-0.443298	
-0.443787	
-0.440857	
-0.439697	
-0.4375	
-0.439758	
-0.43811	
-0.437317	
-0.435364	
-0.436707	
-0.436646	
-0.43689	
-0.435608	
-0.435852	
-0.436218	
-0.438538	
-0.436279	
-0.435364	
-0.433289	
-0.433533	
-0.432861	
-0.431213	
-0.429382	
-0.427124	
-0.425964	
-0.424194	
-0.419678	
-0.416504	
-0.412598	
-0.409424	
-0.406372	
-0.401489	
-0.397705	
-0.39325	
-0.391052	
-0.386841	
-0.382629	
-0.378906	
-0.376953	
-0.374573	
-0.373108	
-0.369507	
-0.36731	
-0.363464	
-0.364563	
-0.361389	
-0.359863	
-0.356567	
-0.356445	
-0.355347	
-0.355408	
-0.352844	
-0.350891	
-0.34967	
-0.350525	
-0.347717	
-0.345886	
-0.343323	
-0.343262	
-0.342957	
-0.341858	
-0.340637	
-0.340515	
-0.341431	
-0.342163	
-0.340515	
-0.339722	
-0.339844	
-0.340088	
-0.340637	
-0.340393	
-0.340088	
-0.340027	
-0.342896	
-0.341919	
-0.342712	
-0.34259	
-0.34375	
-0.344482	
-0.34552	
-0.345032	
-0.345459	
-0.346741	
-0.348267	
-0.347351	
-0.34729	
-0.34668	
-0.348572	
-0.349609	
-0.349731	
-0.350037	
-0.349792	
-0.352356	
-0.351501	
-0.352173	
-0.352295	
-0.352905	
-0.35376	
-0.354736	
-0.354126	
-0.353943	
-0.354187	
-0.356079	
-0.354187	
-0.353699	
-0.352539	
-0.35437	
-0.354431	
-0.354126	
-0.354004	
-0.353882	
-0.355408	
-0.355042	
-0.355042	
-0.354797	
-0.355103	
-0.355347	
-0.356628	
-0.355042	
-0.355225	
-0.354248	
-0.356262	
-0.354492	
-0.354065	
-0.352661	
-0.354492	
-0.355225	
-0.354736	
-0.354858	
-0.354614	
-0.355896	
-0.355591	
-0.355347	
-0.355652	
-0.356262	
-0.356995	
-0.358582	
-0.357483	
-0.357422	
-0.357239	
-0.359558	
-0.358154	
-0.35791	
-0.35675	
-0.359009	
-0.359619	
-0.359436	
-0.359802	
-0.359985	
-0.361206	
-0.361267	
-0.361023	
-0.361816	
-0.362122	
-0.362671	
-0.364624	
-0.363464	
-0.364075	
-0.363525	
-0.365845	
-0.364502	
-0.363953	
-0.363953	
-0.365295	
-0.366028	
-0.36615	
-0.366455	
-0.366455	
-0.36731	
-0.368225	
-0.367126	
-0.367371	
-0.367065	
-0.367981	
-0.369141	
-0.367859	
-0.36792	
-0.367554	
-0.368652	
-0.367859	
-0.366882	
-0.367126	
-0.367981	
-0.368225	
-0.369141	
-0.368286	
-0.36792	
-0.367371	
-0.369141	
-0.36792	
-0.368103	
-0.36792	
-0.368347	
-0.368103	
-0.368958	
-0.368286	
-0.368286	
-0.369019	
-0.369629	
-0.36853	
-0.368652	
-0.367676	
-0.369324	
-0.370239	
-0.369263	
-0.369019	
-0.369202	
-0.369995	
-0.369873	
-0.368835	
-0.368774	
-0.369385	
-0.369812	
-0.370605	
-0.370605	
-0.370789	
-0.370789	
-0.372986	
-0.371826	
-0.372314	
-0.371399	
-0.372925	
-0.373413	
-0.374084	
-0.373901	
-0.373291	
-0.372681	
-0.37439	
-0.373779	
-0.373718	
-0.373657	
-0.374084	
-0.374573	
-0.374451	
-0.374023	
-0.374329	
-0.374084	
-0.375	
-0.373169	
-0.373718	
-0.373047	
-0.374146	
-0.374939	
-0.374329	
-0.373779	
-0.37384	
-0.374756	
-0.374695	
-0.374695	
-0.37384	
-0.374695	
-0.374634	
-0.374939	
-0.374634	
-0.37439	
-0.374451	
-0.375183	
-0.374573	
-0.374573	
-0.374207	
-0.374695	
-0.375	
-0.375793	
-0.374695	
-0.375122	
-0.373474	
-0.375977	
-0.37439	
-0.375	
-0.373474	
-0.375366	
-0.375793	
-0.376526	
-0.375671	
-0.375427	
-0.375549	
-0.377075	
-0.375305	
-0.375366	
-0.374207	
-0.375122	
-0.376709	
-0.375793	
-0.37561	
-0.375122	
-0.37561	
-0.37616	
-0.37561	
-0.375305	
-0.375977	
-0.37616	
-0.376465	
-0.375854	
-0.376282	
-0.375427	
-0.376221	
-0.374756	
-0.375916	
-0.375488	
-0.375977	
-0.37738	
-0.377563	
-0.377014	
-0.376526	
-0.377136	
-0.378235	
-0.377258	
-0.377441	
-0.376587	
-0.377625	
-0.379089	
-0.378479	
-0.378723	
-0.37854	
-0.378906	
-0.379089	
-0.378418	
-0.37854	
-0.37854	
-0.379272	
-0.380066	
-0.379089	
-0.380188	
-0.378479	
-0.380371	
-0.378418	
-0.379456	
-0.378296	
-0.379395	
-0.380188	
-0.379333	
-0.37915	
-0.377869	
-0.378662	
-0.379456	
-0.378723	
-0.37793	
-0.377686	
-0.377991	
-0.378357	
-0.377441	
-0.377136	
-0.37677	
-0.377319	
-0.377258	
-0.376587	
-0.376282	
-0.375244	
-0.37677	
-0.377014	
-0.376221	
-0.37616	
-0.375549	
-0.377197	
-0.376099	
-0.376587	
-0.375305	
-0.376831	
-0.37793	
-0.376953	
-0.377441	
-0.376953	
-0.377625	
-0.378113	
-0.377686	
-0.37793	
-0.378052	
-0.378845	
-0.379517	
-0.379333	
-0.379822	
-0.379272	
-0.380371	
-0.38031	
-0.380432	
-0.380615	
-0.380066	
-0.381714	
-0.381836	
-0.381042	
-0.380554	
-0.38092	
-0.382019	
-0.381775	
-0.381714	
-0.381042	
-0.382141	
-0.382446	
-0.381897	
-0.382263	
-0.382507	
-0.382629	
-0.383484	
-0.382507	
-0.382263	
-0.380859	
-0.382263	
-0.382263	
-0.381958	
-0.38208	
-0.381104	
-0.381714	
-0.38208	
-0.381348	
-0.38147	
-0.380859	
-0.382324	
-0.381775	
-0.381348	
-0.381104	
-0.380188	
-0.381653	
-0.38092	
-0.381531	
-0.381531	
-0.381287	
-0.381531	
-0.381653	
-0.38147	
-0.381348	
-0.381409	
-0.381714	
-0.381653	
-0.381775	
-0.381897	
-0.383118	
-0.382446	
-0.382324	
-0.381958	
-0.381958	
-0.382446	
-0.382874	
-0.382446	
-0.382019	
-0.381165	
-0.383484	
-0.383118	
-0.382874	
-0.382324	
-0.381958	
-0.383362	
-0.384033	
-0.383362	
-0.383118	
-0.382385	
-0.383301	
-0.384155	
-0.383301	
-0.383179	
-0.38324	
-0.383301	
-0.384155	
-0.383484	
-0.382874	
-0.384338	
-0.38385	
-0.384216	
-0.383667	
-0.383911	
-0.383911	
-0.383545	
-0.383789	
-0.383118	
-0.382507	
-0.384644	
-0.38385	
-0.383301	
-0.383545	
-0.383179	
-0.383484	
-0.38446	
-0.383484	
-0.383301	
-0.382202	
-0.383179	
-0.383972	
-0.383606	
-0.383301	
-0.382324	
-0.382751	
-0.384766	
-0.382751	
-0.38269	
-0.382019	
-0.382385	
-0.382874	
-0.381592	
-0.38208	
-0.381897	
-0.381714	
-0.382507	
-0.38147	
-0.380859	
-0.381592	
-0.381348	
-0.38092	
-0.381104	
-0.380859	
-0.380615	
-0.380981	
-0.380981	
-0.380798	
-0.380798	
-0.380737	
-0.381104	
-0.380676	
-0.38092	
-0.380493	
-0.380798	
-0.382202	
-0.381165	
-0.381409	
-0.380981	
-0.38147	
-0.38208	
-0.38092	
-0.381653	
-0.380676	
-0.381958	
-0.383972	
-0.382507	
-0.38269	
-0.380737	
-0.38324	
-0.384155	
-0.38446	
-0.38385	
-0.383362	
-0.383606	
-0.38501	
-0.384216	
-0.383972	
-0.383972	
-0.384888	
-0.384277	
-0.384644	
-0.384644	
-0.384521	
-0.384888	
-0.38446	
-0.384583	
-0.384888	
-0.384888	
-0.384399	
-0.383423	
-0.384033	
-0.383423	
-0.383667	
-0.38385	
-0.38324	
-0.382996	
-0.382568	
-0.382385	
-0.382813	
-0.382996	
-0.382385	
-0.381592	
-0.381531	
-0.383789	
-0.382141	
-0.382507	
-0.380493	
-0.382263	
-0.382813	
-0.382996	
-0.381775	
-0.381165	
-0.382019	
-0.38324	
-0.382141	
-0.38208	
-0.381897	
-0.38208	
-0.381897	
-0.382263	
-0.381531	
-0.381653	
-0.381836	
-0.382263	
-0.382507	
-0.382629	
-0.382019	
-0.382263	
-0.381165	
-0.381897	
-0.381409	
-0.381714	
-0.382202	
-0.381897	
-0.381958	
-0.381775	
-0.382507	
-0.382629	
-0.382568	
-0.382263	
-0.381836	
-0.381836	
-0.383911	
-0.382507	
-0.382507	
-0.381287	
-0.382507	
-0.383301	
-0.383057	
-0.382385	
-0.381592	
-0.381836	
-0.384155	
-0.382629	
-0.383057	
-0.381592	
-0.382629	
-0.382385	
-0.38324	
-0.382446	
-0.382446	
-0.382813	
-0.382935	
-0.38208	
-0.382629	
-0.382263	
-0.382751	
-0.382813	
-0.382385	
-0.382019	
-0.381897	
-0.38324	
-0.382202	
-0.382263	
-0.380981	
-0.382141	
-0.382385	
-0.382202	
-0.381897	
-0.382019	
-0.381897	
-0.382507	
-0.381653	
-0.381775	
-0.38092	
-0.381409	
-0.381348	
-0.381592	
-0.381226	
-0.379639	
-0.380188	
-0.381775	
-0.380798	
-0.38147	
-0.379822	
-0.38092	
-0.381165	
-0.38147	
-0.381042	
-0.380066	
-0.381226	
-0.381287	
-0.381104	
-0.380066	
-0.380554	
-0.38092	
-0.381348	
-0.381287	
-0.38092	
-0.381348	
-0.382446	
-0.381775	
-0.381958	
-0.38147	
-0.382507	
-0.381958	
-0.382874	
-0.382874	
-0.382935	
-0.383484	
-0.384338	
-0.383972	
-0.384644	
-0.382935	
-0.384338	
-0.383545	
-0.385681	
-0.384644	
-0.384521	
-0.384155	
-0.385681	
-0.384949	
-0.385437	
-0.384521	
-0.384644	
-0.385193	
-0.385193	
-0.384216	
-0.383423	
-0.384888	
-0.384521	
-0.384338	
-0.382935	
-0.383789	
-0.383545	
-0.383972	
-0.382935	
-0.382629	
-0.381653	
-0.383179	
-0.38208	
-0.381653	
-0.38031	
-0.381165	
-0.381165	
-0.381836	
-0.381104	
-0.381042	
-0.380798	
-0.381775	
-0.38092	
-0.380615	
-0.3797	
-0.380188	
-0.379944	
-0.380798	
-0.380127	
-0.379944	
-0.379395	
-0.380432	
-0.379944	
-0.380798	
-0.380127	
-0.380493	
-0.380615	
-0.381714	
-0.380981	
-0.38031	
-0.381958	
-0.38147	
-0.381409	
-0.381531	
-0.381653	
-0.381348	
-0.382324	
-0.382141	
-0.381958	
-0.381104	
-0.382813	
-0.381958	
-0.38208	
-0.380615	
-0.381592	
-0.381592	
-0.382507	
-0.381958	
-0.38147	
-0.38147	
-0.38324	
-0.381714	
-0.38147	
-0.380371	
-0.381714	
-0.381348	
-0.382202	
-0.381348	
-0.38147	
-0.380798	
-0.381836	
-0.381226	
-0.381348	
-0.381165	
-0.381226	
-0.381348	
-0.381531	
-0.381226	
-0.380005	
-0.381165	
-0.380554	
-0.380493	
-0.380554	
-0.379944	
-0.380249	
-0.380859	
-0.380615	
-0.380188	
-0.379944	
-0.381409	
-0.379944	
-0.38031	
-0.3797	
-0.38031	
-0.380371	
-0.380127	
-0.380249	
-0.379761	
-0.380066	
-0.381409	
-0.380554	
-0.380188	
-0.378906	
-0.380615	
-0.380615	
-0.381226	
-0.380615	
-0.380188	
-0.379822	
-0.381165	
-0.381042	
-0.380737	
-0.380493	
-0.380981	
-0.381226	
-0.381409	
-0.380737	
-0.379944	
-0.381592	
-0.380859	
-0.381409	
-0.381165	
-0.381409	
-0.381653	
-0.380981	
-0.382141	
-0.381958	
-0.382385	
-0.383606	
-0.382996	
-0.38269	
-0.382202	
-0.383179	
-0.383118	
-0.383301	
-0.383362	
-0.382935	
-0.382263	
-0.384644	
-0.383667	
-0.383728	
-0.382324	
-0.383728	
-0.383728	
-0.384521	
-0.383545	
-0.383484	
-0.383667	
-0.384644	
-0.38385	
-0.383362	
-0.382996	
-0.383423	
-0.384155	
-0.38324	
-0.383057	
-0.382202	
-0.38324	
-0.382935	
-0.382385	
-0.382629	
-0.382019	
-0.381836	
-0.382019	
-0.381409	
-0.380798	
-0.38092	
-0.381409	
-0.380432	
-0.380493	
-0.380859	
-0.380676	
-0.380432	
-0.380981	
-0.380249	
-0.379883	
-0.379089	
-0.381714	
-0.380188	
-0.38031	
-0.378662	
-0.380066	
-0.380676	
-0.38092	
-0.380493	
-0.379578	
-0.380676	
-0.382568	
-0.381165	
-0.381653	
-0.380554	
-0.382202	
-0.383179	
-0.382019	
-0.382263	
-0.38208	
-0.382507	
-0.383118	
-0.382385	
-0.382874	
-0.382141	
-0.382507	
-0.382568	
-0.382629	
-0.382324	
-0.382324	
-0.383118	
-0.382751	
-0.382813	
-0.383118	
-0.382996	
-0.38324	
-0.383057	
-0.382813	
-0.38269	
-0.38269	
-0.383728	
-0.383057	
-0.38324	
-0.382568	
-0.383423	
-0.383118	
-0.383911	
-0.38324	
-0.382629	
-0.382324	
-0.385071	
-0.383606	
-0.383484	
-0.380737	
-0.382751	
-0.383728	
-0.383789	
-0.382751	
-0.381287	
-0.382629	
-0.383606	
-0.382629	
-0.382629	
-0.381836	
-0.382629	
-0.383545	
-0.382813	
-0.38269	
-0.382568	
-0.383362	
-0.383057	
-0.382935	
-0.382568	
-0.38269	
-0.382751	
-0.38269	
-0.382751	
-0.38269	
-0.381958	
-0.383362	
-0.382507	
-0.382629	
-0.383118	
-0.382813	
-0.382446	
-0.382507	
-0.382813	
-0.38269	
-0.382874	
-0.384033	
-0.38269	
-0.38269	
-0.38208	
-0.382996	
-0.383118	
-0.383057	
-0.382568	
-0.382324	
-0.383301	
-0.384949	
-0.383667	
-0.383789	
-0.381653	
-0.383728	
-0.384705	
-0.383972	
-0.383789	
-0.382751	
-0.384277	
-0.38562	
-0.384521	
-0.384277	
-0.383789	
-0.384033	
-0.385437	
-0.384277	
-0.384277	
-0.383423	
-0.384399	
-0.385193	
-0.384521	
-0.384521	
-0.384216	
-0.38446	
-0.384521	
-0.384155	
-0.384033	
-0.384277	
-0.384338	
-0.383789	
-0.383545	
-0.384216	
-0.383179	
-0.38385	
-0.381958	
-0.382813	
-0.381958	
-0.38208	
-0.382996	
-0.381409	
-0.381165	
-0.380981	
-0.381165	
-0.381836	
-0.380676	
-0.38092	
-0.378479	
-0.380554	
-0.381348	
-0.380554	
-0.38092	
-0.378479	
-0.380493	
-0.382202	
-0.380188	
-0.380432	
-0.3797	
-0.381287	
-0.382263	
-0.381226	
-0.381409	
-0.379578	
-0.382141	
-0.381653	
-0.381775	
-0.381592	
-0.382507	
-0.383118	
-0.384033	
-0.383362	
-0.383606	
-0.383301	
-0.38385	
-0.383423	
-0.383789	
-0.383423	
-0.38446	
-0.385071	
-0.384888	
-0.38501	
-0.385315	
-0.385132	
-0.385742	
-0.383728	
-0.38501	
-0.383972	
-0.385193	
-0.38562	
-0.385376	
-0.385498	
-0.386047	
-0.385437	
-0.386414	
-0.384888	
-0.384705	
-0.383362	
-0.384583	
-0.384888	
-0.383911	
-0.384521	
-0.383484	
-0.384521	
-0.385132	
-0.384033	
-0.383423	
-0.383423	
-0.383728	
-0.385315	
-0.384033	
-0.383972	
-0.382141	
-0.384521	
-0.384033	
-0.383728	
-0.38324	
-0.384216	
-0.384521	
-0.385498	
-0.384033	
-0.384705	
-0.383606	
-0.384888	
-0.383423	
-0.384583	
-0.383789	
-0.384705	
-0.384644	
-0.385193	
-0.384644	
-0.384583	
-0.384094	
-0.385437	
-0.384705	
-0.384705	
-0.383728	
-0.38446	
-0.385315	
-0.38562	
-0.385376	
-0.384521	
-0.385803	
-0.38678	
-0.385559	
-0.384705	
-0.384338	
-0.385437	
-0.385742	
-0.38501	
-0.385864	
-0.384766	
-0.38562	
-0.385071	
-0.385681	
-0.385498	
-0.385376	
-0.385986	
-0.38678	
-0.385742	
-0.385986	
-0.384216	
-0.385559	
-0.385559	
-0.384827	
-0.384705	
-0.385132	
-0.385315	
-0.38678	
-0.385498	
-0.384888	
-0.382507	
-0.385986	
-0.384583	
-0.384766	
-0.383789	
-0.384888	
-0.384583	
-0.385925	
-0.385498	
-0.383972	
-0.384155	
-0.384277	
-0.383484	
-0.383667	
-0.382507	
-0.383728	
-0.383667	
-0.383545	
-0.383667	
-0.38269	
-0.38269	
-0.382935	
-0.382141	
-0.382263	
-0.381226	
-0.382324	
-0.38208	
-0.382263	
-0.382263	
-0.381714	
-0.381653	
-0.382568	
-0.381958	
-0.381104	
-0.381042	
-0.381836	
-0.382324	
-0.382385	
-0.381714	
-0.381775	
-0.382202	
-0.382629	
-0.382629	
-0.382202	
-0.382751	
-0.382568	
-0.384277	
-0.383606	
-0.383179	
-0.381042	
-0.382568	
-0.383606	
-0.383911	
-0.383057	
-0.384644	
-0.384644	
-0.386658	
-0.385254	
-0.384705	
-0.384033	
-0.385681	
-0.384888	
-0.384949	
-0.384094	
-0.385071	
-0.385559	
-0.385681	
-0.385376	
-0.384705	
-0.385132	
-0.386475	
-0.385498	
-0.385254	
-0.383789	
-0.38446	
-0.38501	
-0.384399	
-0.384155	
-0.383118	
-0.383362	
-0.383972	
-0.382874	
-0.382507	
-0.382324	
-0.382568	
-0.383789	
-0.383301	
-0.38269	
-0.381897	
-0.382263	
-0.38324	
-0.382507	
-0.382385	
-0.382446	
-0.382568	
-0.383972	
-0.383301	
-0.38269	
-0.380493	
-0.381897	
-0.382141	
-0.382446	
-0.381592	
-0.38208	
-0.382202	
-0.383545	
-0.382568	
-0.38208	
-0.38092	
-0.383667	
-0.382385	
-0.382019	
-0.380981	
-0.382263	
-0.382263	
-0.382996	
-0.382019	
-0.38208	
-0.381958	
-0.383179	
-0.382263	
-0.382507	
-0.382141	
-0.382751	
-0.382751	
-0.383484	
-0.382446	
-0.382568	
-0.382751	
-0.383301	
-0.382813	
-0.382568	
-0.38208	
-0.383057	
-0.383484	
-0.383057	
-0.382446	
-0.382141	
-0.38208	
-0.383728	
-0.382629	
-0.382507	
-0.381653	
-0.382874	
-0.383911	
-0.383484	
-0.382141	
-0.381165	
-0.382202	
-0.383179	
-0.382446	
-0.381958	
-0.382019	
-0.382202	
-0.383911	
-0.382507	
-0.381836	
-0.381409	
-0.382813	
-0.382568	
-0.382263	
-0.381165	
-0.381897	
-0.382263	
-0.382568	
-0.381775	
-0.381348	
-0.3797	
-0.38208	
-0.381104	
-0.38092	
-0.379822	
-0.380676	
-0.381287	
-0.381836	
-0.380615	
-0.380249	
-0.379089	
-0.381775	
-0.380798	
-0.380371	
-0.380127	
-0.380127	
-0.381836	
-0.381348	
-0.379822	
-0.379089	
-0.379944	
-0.381287	
-0.380371	
-0.380615	
-0.379639	
-0.381165	
-0.382324	
-0.381897	
-0.381409	
-0.381104	
-0.38208	
-0.382568	
-0.381897	
-0.382324	
-0.381409	
-0.383118	
-0.383728	
-0.383362	
-0.383484	
-0.38324	
-0.384644	
-0.384583	
-0.384033	
-0.383728	
-0.384033	
-0.384521	
-0.384949	
-0.384766	
-0.384155	
-0.38385	
-0.385132	
-0.384399	
-0.383972	
-0.382751	
-0.384155	
-0.384216	
-0.384766	
-0.383667	
-0.382935	
-0.382263	
-0.384216	
-0.383057	
-0.38269	
-0.381592	
-0.382385	
-0.38208	
-0.38269	
-0.38092	
-0.379578	
-0.379822	
-0.381287	
-0.380249	
-0.380127	
-0.380371	
-0.380371	
-0.381348	
-0.380981	
-0.379578	
-0.379517	
-0.37915	
-0.380554	
-0.380127	
-0.379089	
-0.378357	
-0.379456	
-0.380066	
-0.379517	
-0.379028	
-0.378784	
-0.379639	
-0.380066	
-0.379944	
-0.379761	
-0.380371	
-0.380798	
-0.38147	
-0.380371	
-0.379944	
-0.379517	
-0.381592	
-0.380554	
-0.380554	
-0.380188	
-0.380737	
-0.381531	
-0.381409	
-0.381165	
-0.379578	
-0.380737	
-0.381958	
-0.380981	
-0.38092	
-0.379089	
-0.380737	
-0.38147	
-0.38092	
-0.380554	
-0.380005	
-0.38031	
-0.382141	
-0.380493	
-0.380005	
-0.379089	
-0.380493	
-0.38092	
-0.381104	
-0.380371	
-0.379761	
-0.379639	
-0.381104	
-0.380127	
-0.379883	
-0.379944	
-0.380127	
-0.380127	
-0.379761	
-0.379089	
-0.378235	
-0.379028	
-0.379211	
-0.379333	
-0.379272	
-0.379456	
-0.380432	
-0.380005	
-0.379456	
-0.378784	
-0.379395	
-0.380066	
-0.37915	
-0.379272	
-0.378296	
-0.379272	
-0.380432	
-0.379578	
-0.379211	
-0.378357	
-0.379028	
-0.380798	
-0.379517	
-0.379211	
-0.377258	
-0.379578	
-0.380188	
-0.380432	
-0.379578	
-0.379333	
-0.379333	
-0.380798	
-0.379639	
-0.379395	
-0.378784	
-0.379944	
-0.380615	
-0.381042	
-0.379883	
-0.378967	
-0.379395	
-0.381287	
-0.38092	
-0.380676	
-0.380737	
-0.381531	
-0.382141	
-0.382019	
-0.38147	
-0.381165	
-0.381897	
-0.382446	
-0.382141	
-0.381348	
-0.382141	
-0.382629	
-0.382996	
-0.38208	
-0.382019	
-0.38269	
-0.383179	
-0.382568	
-0.382446	
-0.381409	
-0.383118	
-0.383606	
-0.382813	
-0.382568	
-0.381287	
-0.381897	
-0.383179	
-0.38208	
-0.381714	
-0.380676	
-0.381653	
-0.383301	
-0.38147	
-0.381104	
-0.379944	
-0.380676	
-0.381836	
-0.380188	
-0.380127	
-0.378845	
-0.379883	
-0.380493	
-0.379822	
-0.379333	
-0.378906	
-0.378662	
-0.379883	
-0.378967	
-0.379028	
-0.377747	
-0.379395	
-0.379822	
-0.380066	
-0.378662	
-0.378052	
-0.37854	
-0.379089	
-0.378784	
-0.378357	
-0.379089	
-0.380066	
-0.380676	
-0.38092	
-0.379883	
-0.380249	
-0.381714	
-0.380676	
-0.38092	
-0.379944	
-0.381348	
-0.381592	
-0.381592	
-0.381775	
-0.380676	
-0.380981	
-0.381958	
-0.381409	
-0.381409	
-0.380737	
-0.381287	
-0.382019	
-0.381836	
-0.381409	
-0.380493	
-0.381897	
-0.382019	
-0.381714	
-0.381592	
-0.381531	
-0.382324	
-0.383179	
-0.381836	
-0.381348	
-0.380371	
-0.381531	
-0.382507	
-0.38208	
-0.381592	
-0.380859	
-0.382324	
-0.383057	
-0.382874	
-0.38147	
-0.381531	
-0.38092	
-0.382202	
-0.38147	
-0.380859	
-0.381409	
-0.381165	
-0.381287	
-0.381592	
-0.380615	
-0.381165	
-0.382141	
-0.38147	
-0.38092	
-0.380066	
-0.381714	
-0.38208	
-0.381775	
-0.381409	
-0.381042	
-0.381287	
-0.38269	
-0.381104	
-0.380676	
-0.380615	
-0.381653	
-0.382629	
-0.381714	
-0.381348	
-0.380798	
-0.381165	
-0.382324	
-0.381714	
-0.38147	
-0.380859	
-0.38147	
-0.382996	
-0.381775	
-0.38147	
-0.379395	
-0.381409	
-0.38208	
-0.381653	
-0.381348	
	
