C:\DOCUMENTS AND SETTINGS\JASON\DESKTOP\UFRJ\UFRJ EPHYS\RSCI-BM 12 WK SERIES\070806-RSCI-BM-16\RSCI-BM-16-REMG\070806-RSCI-BM-16-REMG-0007.ACQ
0.025000 msec/sample
1 channel
Analog input
Volts
CH1	
2000	
-0.380371	
-0.379395	
-0.379456	
-0.377747	
-0.379089	
-0.379089	
-0.378906	
-0.379272	
-0.379211	
-0.379578	
-0.379944	
-0.379639	
-0.379028	
-0.378784	
-0.379211	
-0.379211	
-0.380066	
-0.379395	
-0.379944	
-0.380127	
-0.380615	
-0.38031	
-0.379944	
-0.380005	
-0.379517	
-0.38031	
-0.381042	
-0.380737	
-0.380798	
-0.38092	
-0.381348	
-0.381653	
-0.380432	
-0.380798	
-0.3797	
-0.380676	
-0.381104	
-0.380676	
-0.380554	
-0.380371	
-0.38092	
-0.381348	
-0.379639	
-0.380249	
-0.378845	
-0.380066	
-0.380615	
-0.38031	
-0.379456	
-0.379517	
-0.38031	
-0.380676	
-0.379395	
-0.379395	
-0.377686	
-0.379272	
-0.380188	
-0.379272	
-0.379272	
-0.378784	
-0.379395	
-0.380798	
-0.378418	
-0.379089	
-0.377136	
-0.378906	
-0.379639	
-0.37854	
-0.378357	
-0.378662	
-0.378723	
-0.379883	
-0.377075	
-0.378601	
-0.376404	
-0.378601	
-0.3797	
-0.378845	
-0.379333	
-0.38031	
-0.379822	
-0.381531	
-0.378784	
-0.380554	
-0.378479	
-0.380737	
-0.381226	
-0.381165	
-0.381226	
-0.382019	
-0.381348	
-0.382507	
-0.380676	
-0.38147	
-0.380371	
-0.381531	
-0.381775	
-0.381409	
-0.381348	
-0.382324	
-0.381714	
-0.381531	
-0.380127	
-0.380371	
-0.380798	
-0.38092	
-0.38031	
-0.380493	
-0.380127	
-0.381653	
-0.380798	
-0.381653	
-0.380371	
-0.380127	
-0.380798	
-0.380859	
-0.381226	
-0.381042	
-0.381165	
-0.382324	
-0.381592	
-0.38208	
-0.38092	
-0.381531	
-0.381775	
-0.38208	
-0.382019	
-0.381775	
-0.381653	
-0.383118	
-0.381836	
-0.381714	
-0.380676	
-0.381653	
-0.38147	
-0.382324	
-0.381958	
-0.381531	
-0.381287	
-0.382568	
-0.381714	
-0.381226	
-0.380798	
-0.381531	
-0.38208	
-0.382935	
-0.381958	
-0.382324	
-0.381287	
-0.382751	
-0.382568	
-0.381592	
-0.381592	
-0.382324	
-0.382751	
-0.383118	
-0.382263	
-0.382324	
-0.381775	
-0.383423	
-0.382996	
-0.382141	
-0.38147	
-0.381653	
-0.382507	
-0.383057	
-0.382019	
-0.381775	
-0.381348	
-0.38269	
-0.382385	
-0.381226	
-0.380371	
-0.380249	
-0.381653	
-0.382202	
-0.38147	
-0.381226	
-0.381714	
-0.382202	
-0.382263	
-0.381653	
-0.381714	
-0.381165	
-0.382507	
-0.382324	
-0.382019	
-0.381714	
-0.382385	
-0.382385	
-0.38269	
-0.381531	
-0.381592	
-0.380432	
-0.381592	
-0.381836	
-0.381409	
-0.373413	
-0.367615	
-0.366516	
-0.368164	
-0.366333	
-0.366882	
-0.37323	
-0.38092	
-0.381531	
-0.381409	
-0.381226	
-0.381714	
-0.381104	
-0.382629	
-0.379639	
-0.380859	
-0.379089	
-0.381287	
-0.381348	
-0.381165	
-0.380493	
-0.382446	
-0.381775	
-0.38269	
-0.379944	
-0.381226	
-0.3797	
-0.381714	
-0.381287	
-0.381531	
-0.381348	
-0.382568	
-0.382141	
-0.383057	
-0.381165	
-0.381958	
-0.381042	
-0.382935	
-0.382751	
-0.38269	
-0.381775	
-0.384521	
-0.383362	
-0.384216	
-0.381775	
-0.383057	
-0.383118	
-0.384399	
-0.383179	
-0.383179	
-0.382629	
-0.384521	
-0.383057	
-0.383606	
-0.381104	
-0.382385	
-0.38147	
-0.382263	
-0.38147	
-0.381409	
-0.380676	
-0.381836	
-0.380737	
-0.381348	
-0.379639	
-0.380005	
-0.379761	
-0.380432	
-0.379944	
-0.379822	
-0.380127	
-0.381287	
-0.380005	
-0.380249	
-0.378601	
-0.379395	
-0.3797	
-0.3797	
-0.379517	
-0.379639	
-0.372559	
-0.366821	
-0.36499	
-0.364868	
-0.363892	
-0.364563	
-0.37384	
-0.380066	
-0.380432	
-0.380493	
-0.381226	
-0.381958	
-0.382202	
-0.381592	
-0.381897	
-0.382019	
-0.383362	
-0.38385	
-0.384888	
-0.385559	
-0.386841	
-0.387939	
-0.389648	
-0.38916	
-0.391296	
-0.391357	
-0.39563	
-0.395874	
-0.397339	
-0.39801	
-0.402039	
-0.402832	
-0.405945	
-0.405579	
-0.40863	
-0.410095	
-0.412231	
-0.413696	
-0.414917	
-0.416199	
-0.418274	
-0.419189	
-0.419128	
-0.419861	
-0.419861	
-0.421875	
-0.421204	
-0.420715	
-0.419128	
-0.420776	
-0.420044	
-0.421204	
-0.417786	
-0.419373	
-0.419861	
-0.421143	
-0.422546	
-0.424316	
-0.427002	
-0.430115	
-0.431946	
-0.433472	
-0.434875	
-0.4375	
-0.43988	
-0.441284	
-0.442871	
-0.444763	
-0.446838	
-0.448486	
-0.449768	
-0.449463	
-0.451233	
-0.451538	
-0.453064	
-0.452942	
-0.453064	
-0.452515	
-0.454041	
-0.452454	
-0.452698	
-0.449219	
-0.448853	
-0.44635	
-0.447632	
-0.444702	
-0.443237	
-0.440613	
-0.440674	
-0.438782	
-0.438843	
-0.436096	
-0.434387	
-0.431335	
-0.432556	
-0.431091	
-0.430237	
-0.429443	
-0.428894	
-0.428345	
-0.428894	
-0.427246	
-0.427307	
-0.427734	
-0.428467	
-0.429016	
-0.429199	
-0.43042	
-0.430969	
-0.430847	
-0.430603	
-0.429749	
-0.429565	
-0.429077	
-0.427795	
-0.42627	
-0.424377	
-0.422791	
-0.420776	
-0.417725	
-0.414978	
-0.412048	
-0.409973	
-0.407959	
-0.405457	
-0.402893	
-0.400146	
-0.398865	
-0.397095	
-0.395203	
-0.391785	
-0.389709	
-0.388245	
-0.387756	
-0.384949	
-0.382568	
-0.380005	
-0.379944	
-0.378296	
-0.376648	
-0.374084	
-0.373047	
-0.372437	
-0.373291	
-0.373047	
-0.373108	
-0.372437	
-0.374817	
-0.375793	
-0.377136	
-0.375793	
-0.376709	
-0.377319	
-0.380981	
-0.381531	
-0.38324	
-0.383728	
-0.386169	
-0.387939	
-0.388977	
-0.388367	
-0.388184	
-0.389221	
-0.391602	
-0.391357	
-0.392334	
-0.393616	
-0.39447	
-0.395996	
-0.396423	
-0.39679	
-0.396667	
-0.397522	
-0.396973	
-0.396851	
-0.396545	
-0.397217	
-0.396973	
-0.396973	
-0.396484	
-0.395813	
-0.395386	
-0.395935	
-0.395447	
-0.395386	
-0.395203	
-0.395813	
-0.396118	
-0.395996	
-0.395325	
-0.395203	
-0.394897	
-0.395813	
-0.39502	
-0.395508	
-0.394592	
-0.395569	
-0.394836	
-0.394592	
-0.392151	
-0.391785	
-0.390503	
-0.390625	
-0.38855	
-0.387085	
-0.384705	
-0.385132	
-0.382568	
-0.382385	
-0.379456	
-0.377686	
-0.375305	
-0.376892	
-0.374695	
-0.372864	
-0.372009	
-0.370728	
-0.3703	
-0.369324	
-0.366638	
-0.364319	
-0.363098	
-0.362854	
-0.361511	
-0.360474	
-0.359802	
-0.358398	
-0.357727	
-0.356079	
-0.353943	
-0.352783	
-0.352295	
-0.350708	
-0.349182	
-0.347168	
-0.346741	
-0.346191	
-0.345337	
-0.343628	
-0.34314	
-0.341919	
-0.343567	
-0.342468	
-0.342224	
-0.342041	
-0.342468	
-0.342102	
-0.342346	
-0.339905	
-0.340759	
-0.339844	
-0.340759	
-0.340942	
-0.341003	
-0.341248	
-0.341187	
-0.342102	
-0.341064	
-0.340881	
-0.340637	
-0.341431	
-0.340759	
-0.341492	
-0.341431	
-0.342712	
-0.342957	
-0.344727	
-0.342957	
-0.344299	
-0.34375	
-0.345764	
-0.346436	
-0.346863	
-0.347839	
-0.349304	
-0.350159	
-0.350891	
-0.350525	
-0.350525	
-0.352417	
-0.353394	
-0.35437	
-0.354736	
-0.356201	
-0.356506	
-0.35791	
-0.3573	
-0.357971	
-0.358093	
-0.359924	
-0.359619	
-0.359497	
-0.359863	
-0.360657	
-0.360352	
-0.360962	
-0.358948	
-0.35968	
-0.358521	
-0.360046	
-0.360107	
-0.359924	
-0.360596	
-0.360901	
-0.361877	
-0.360657	
-0.360352	
-0.359558	
-0.360779	
-0.360474	
-0.360046	
-0.360107	
-0.360535	
-0.360962	
-0.361206	
-0.360046	
-0.360962	
-0.360168	
-0.361633	
-0.36145	
-0.361633	
-0.362	
-0.362427	
-0.362732	
-0.364136	
-0.362305	
-0.362488	
-0.362	
-0.36377	
-0.364136	
-0.364136	
-0.364807	
-0.366028	
-0.36676	
-0.365479	
-0.365967	
-0.36499	
-0.367798	
-0.36731	
-0.367554	
-0.366882	
-0.36792	
-0.368774	
-0.369629	
-0.368774	
-0.369202	
-0.369019	
-0.370911	
-0.3703	
-0.370361	
-0.370483	
-0.371277	
-0.371521	
-0.372803	
-0.370972	
-0.371826	
-0.370911	
-0.37262	
-0.371887	
-0.37207	
-0.372192	
-0.373047	
-0.372986	
-0.374023	
-0.372314	
-0.371826	
-0.37207	
-0.372986	
-0.372986	
-0.372681	
-0.373047	
-0.373108	
-0.373779	
-0.373657	
-0.372498	
-0.371887	
-0.373901	
-0.373474	
-0.373657	
-0.37262	
-0.374268	
-0.374023	
-0.374268	
-0.374023	
-0.373962	
-0.37384	
-0.374634	
-0.374329	
-0.37439	
-0.374207	
-0.375366	
-0.375793	
-0.376038	
-0.373962	
-0.374573	
-0.37616	
-0.375977	
-0.376221	
-0.375671	
-0.376343	
-0.377197	
-0.377075	
-0.37793	
-0.376709	
-0.376526	
-0.376648	
-0.377136	
-0.37738	
-0.377319	
-0.377686	
-0.377869	
-0.378296	
-0.378235	
-0.376953	
-0.377014	
-0.377808	
-0.378113	
-0.377747	
-0.378296	
-0.379333	
-0.378479	
-0.379211	
-0.377258	
-0.378235	
-0.378418	
-0.378174	
-0.378174	
-0.377441	
-0.37793	
-0.379089	
-0.377991	
-0.378418	
-0.377075	
-0.377808	
-0.37854	
-0.377869	
-0.377991	
-0.377808	
-0.378357	
-0.378357	
-0.378723	
-0.378479	
-0.377502	
-0.377625	
-0.376648	
-0.377197	
-0.377136	
-0.377319	
-0.377808	
-0.377869	
-0.37854	
-0.377625	
-0.376648	
-0.376221	
-0.375854	
-0.376587	
-0.376038	
-0.376221	
-0.376343	
-0.376465	
-0.375854	
-0.375	
-0.373901	
-0.375732	
-0.375183	
-0.374939	
-0.37439	
-0.375366	
-0.376587	
-0.37677	
-0.376282	
-0.375122	
-0.375366	
-0.376343	
-0.376709	
-0.376526	
-0.37738	
-0.377319	
-0.377625	
-0.378784	
-0.377808	
-0.377441	
-0.37738	
-0.377747	
-0.378296	
-0.377808	
-0.378357	
-0.378479	
-0.37854	
-0.379211	
-0.378174	
-0.377625	
-0.378113	
-0.377319	
-0.377808	
-0.377075	
-0.378174	
-0.378296	
-0.378845	
-0.378174	
-0.378052	
-0.378357	
-0.379456	
-0.377197	
-0.377991	
-0.378357	
-0.379028	
-0.380005	
-0.380005	
-0.379517	
-0.379028	
-0.379272	
-0.380066	
-0.380249	
-0.38031	
-0.381042	
-0.381104	
-0.381592	
-0.382141	
-0.381165	
-0.38092	
-0.379456	
-0.381104	
-0.381348	
-0.38092	
-0.381287	
-0.381592	
-0.381897	
-0.382263	
-0.381836	
-0.382019	
-0.382446	
-0.381775	
-0.381897	
-0.38147	
-0.382263	
-0.383057	
-0.383545	
-0.383301	
-0.383728	
-0.382935	
-0.383606	
-0.382324	
-0.382751	
-0.383301	
-0.383728	
-0.384399	
-0.384827	
-0.384094	
-0.384583	
-0.383667	
-0.383911	
-0.383789	
-0.383789	
-0.384094	
-0.383972	
-0.384827	
-0.384094	
-0.383606	
-0.382385	
-0.383667	
-0.38324	
-0.383118	
-0.382935	
-0.383423	
-0.383362	
-0.384338	
-0.383911	
-0.383362	
-0.381653	
-0.383118	
-0.383118	
-0.383362	
-0.382263	
-0.382996	
-0.383606	
-0.385071	
-0.383667	
-0.383667	
-0.381653	
-0.383057	
-0.381897	
-0.382202	
-0.382019	
-0.382385	
-0.38269	
-0.38324	
-0.382629	
-0.382141	
-0.381653	
-0.381104	
-0.379883	
-0.38092	
-0.381287	
-0.381409	
-0.38092	
-0.381287	
-0.381287	
-0.381165	
-0.380859	
-0.380371	
-0.380737	
-0.379944	
-0.380859	
-0.381042	
-0.381348	
-0.381104	
-0.38092	
-0.381165	
-0.381714	
-0.381531	
-0.381348	
-0.380981	
-0.38147	
-0.381287	
-0.381836	
-0.381836	
-0.381592	
-0.38092	
-0.38147	
-0.381409	
-0.381409	
-0.38208	
-0.381348	
-0.381897	
-0.38324	
-0.38208	
-0.38269	
-0.38147	
-0.38208	
-0.381836	
-0.382202	
-0.382385	
-0.382568	
-0.382507	
-0.383362	
-0.383118	
-0.382935	
-0.382019	
-0.381409	
-0.381348	
-0.38092	
-0.381897	
-0.381348	
-0.380798	
-0.381409	
-0.38147	
-0.380615	
-0.379333	
-0.37854	
-0.378662	
-0.37854	
-0.379272	
-0.379211	
-0.379028	
-0.379395	
-0.379761	
-0.378906	
-0.378784	
-0.377625	
-0.377991	
-0.37854	
-0.377991	
-0.378113	
-0.378662	
-0.378418	
-0.378479	
-0.377869	
-0.377808	
-0.377563	
-0.377502	
-0.377869	
-0.378113	
-0.378418	
-0.37915	
-0.378784	
-0.378357	
-0.37738	
-0.378296	
-0.377686	
-0.378235	
-0.378113	
-0.378479	
-0.378662	
-0.380249	
-0.379028	
-0.378967	
-0.37793	
-0.379028	
-0.379456	
-0.379272	
-0.380127	
-0.380493	
-0.380432	
-0.381836	
-0.380798	
-0.381042	
-0.380432	
-0.380371	
-0.380676	
-0.379761	
-0.381042	
-0.381165	
-0.381226	
-0.383179	
-0.381104	
-0.381287	
-0.380005	
-0.380676	
-0.380676	
-0.380188	
-0.381042	
-0.380676	
-0.381165	
-0.382141	
-0.380432	
-0.38147	
-0.379761	
-0.380554	
-0.379944	
-0.380615	
-0.380737	
-0.380188	
-0.380676	
-0.381409	
-0.381042	
-0.381836	
-0.380188	
-0.380188	
-0.378906	
-0.380676	
-0.380676	
-0.380676	
-0.380676	
-0.380676	
-0.381165	
-0.381409	
-0.38031	
-0.379944	
-0.379028	
-0.380371	
-0.380188	
-0.380432	
-0.380249	
-0.380066	
-0.38092	
-0.381042	
-0.379883	
-0.37854	
-0.379578	
-0.379944	
-0.379944	
-0.379639	
-0.380249	
-0.379822	
-0.381042	
-0.37915	
-0.379944	
-0.378479	
-0.380188	
-0.379944	
-0.380432	
-0.38031	
-0.381226	
-0.380737	
-0.380981	
-0.379089	
-0.380188	
-0.380066	
-0.381042	
-0.380676	
-0.380981	
-0.380859	
-0.382202	
-0.38092	
-0.381653	
-0.379578	
-0.380493	
-0.380188	
-0.381287	
-0.381226	
-0.381592	
-0.381653	
-0.382874	
-0.381775	
-0.383057	
-0.380676	
-0.381592	
-0.380249	
-0.381836	
-0.382446	
-0.382568	
-0.38269	
-0.383179	
-0.383362	
-0.383911	
-0.382446	
-0.381165	
-0.381287	
-0.382324	
-0.382385	
-0.38208	
-0.382446	
-0.382019	
-0.382324	
-0.381592	
-0.380798	
-0.380188	
-0.380493	
-0.380737	
-0.380249	
-0.38031	
-0.381165	
-0.380188	
-0.380798	
-0.379578	
-0.379883	
-0.3797	
-0.379822	
-0.380371	
-0.380005	
-0.38031	
-0.382019	
-0.380859	
-0.381775	
-0.379395	
-0.380859	
-0.380249	
-0.38092	
-0.381226	
-0.381104	
-0.38147	
-0.382751	
-0.381531	
-0.382202	
-0.378784	
-0.380737	
-0.380554	
-0.381348	
-0.380859	
-0.380798	
-0.381165	
-0.38208	
-0.381958	
-0.38092	
-0.380737	
-0.379944	
-0.380737	
-0.380798	
-0.380615	
-0.380737	
-0.381104	
-0.381348	
-0.381958	
-0.380798	
-0.380798	
-0.380066	
-0.380127	
-0.381348	
-0.381226	
-0.381592	
-0.381531	
-0.381531	
-0.382324	
-0.38147	
-0.381165	
-0.379883	
-0.380066	
-0.380493	
-0.380554	
-0.380371	
-0.381287	
-0.380432	
-0.381287	
-0.380188	
-0.380493	
-0.380005	
-0.380005	
-0.380005	
-0.380981	
-0.380615	
-0.381897	
-0.380981	
-0.380676	
-0.379395	
-0.380127	
-0.381042	
-0.380859	
-0.380615	
-0.38092	
-0.381165	
-0.382874	
-0.382446	
-0.381592	
-0.38031	
-0.380066	
-0.381287	
-0.381775	
-0.381592	
-0.38147	
-0.382019	
-0.382935	
-0.382202	
-0.38147	
-0.380676	
-0.380432	
-0.38092	
-0.381104	
-0.381348	
-0.381042	
-0.381653	
-0.381714	
-0.382019	
-0.381592	
-0.381042	
-0.380676	
-0.381165	
-0.381958	
-0.381714	
-0.381836	
-0.382568	
-0.382507	
-0.382568	
-0.38208	
-0.382141	
-0.382202	
-0.382019	
-0.382874	
-0.382263	
-0.382751	
-0.383362	
-0.383301	
-0.382874	
-0.382813	
-0.382446	
-0.38269	
-0.382019	
-0.382874	
-0.382751	
-0.382751	
-0.383667	
-0.383545	
-0.382446	
-0.381592	
-0.38147	
-0.382263	
-0.381287	
-0.38208	
-0.382019	
-0.382263	
-0.383362	
-0.382935	
-0.381348	
-0.381165	
-0.381226	
-0.381836	
-0.38092	
-0.381836	
-0.381409	
-0.381287	
-0.382019	
-0.381653	
-0.380737	
-0.380615	
-0.379456	
-0.380493	
-0.380615	
-0.380615	
-0.380737	
-0.380859	
-0.380798	
-0.38092	
-0.38031	
-0.380493	
-0.379822	
-0.381165	
-0.381592	
-0.381958	
-0.382141	
-0.383484	
-0.383301	
-0.383118	
-0.382874	
-0.382813	
-0.38324	
-0.383362	
-0.38385	
-0.383667	
-0.383423	
-0.384766	
-0.384216	
-0.383972	
-0.383301	
-0.383179	
-0.384338	
-0.383911	
-0.384338	
-0.384216	
-0.383911	
-0.38562	
-0.385132	
-0.384583	
-0.383545	
-0.38324	
-0.384399	
-0.383606	
-0.384583	
-0.384338	
-0.38446	
-0.385986	
-0.385559	
-0.384521	
-0.384766	
-0.383789	
-0.384155	
-0.38446	
-0.384521	
-0.384644	
-0.38501	
-0.385071	
-0.385315	
-0.384583	
-0.384644	
-0.384277	
-0.384094	
-0.384094	
-0.384155	
-0.383728	
-0.384033	
-0.384094	
-0.384094	
-0.383057	
-0.383118	
-0.383362	
-0.383789	
-0.383911	
-0.383789	
-0.383911	
-0.384216	
-0.384155	
-0.384644	
-0.382996	
-0.383667	
-0.383179	
-0.383728	
-0.384033	
-0.384094	
-0.383972	
-0.384766	
-0.384094	
-0.384949	
-0.383728	
-0.383484	
-0.382935	
-0.383606	
-0.383606	
-0.38385	
-0.384094	
-0.384338	
-0.384277	
-0.384033	
-0.383789	
-0.383179	
-0.383545	
-0.38324	
-0.383789	
-0.384033	
-0.384155	
-0.385132	
-0.384949	
-0.384033	
-0.383667	
-0.382996	
-0.38446	
-0.383301	
-0.384644	
-0.384644	
-0.385132	
-0.385742	
-0.385498	
-0.384827	
-0.38562	
-0.384399	
-0.385559	
-0.384705	
-0.386047	
-0.385742	
-0.387024	
-0.386292	
-0.386353	
-0.38501	
-0.386292	
-0.385803	
-0.385315	
-0.385498	
-0.385315	
-0.385132	
-0.386047	
-0.385254	
-0.38562	
-0.384094	
-0.384827	
-0.384521	
-0.384583	
-0.384766	
-0.384888	
-0.384827	
-0.384949	
-0.384827	
-0.384766	
-0.383728	
-0.384338	
-0.383728	
-0.38385	
-0.383728	
-0.384277	
-0.384583	
-0.384766	
-0.384338	
-0.384949	
-0.383789	
-0.382935	
-0.382507	
-0.383484	
-0.383118	
-0.383423	
-0.38385	
-0.384277	
-0.383911	
-0.38324	
-0.383057	
-0.382751	
-0.382568	
-0.383667	
-0.383972	
-0.384644	
-0.385559	
-0.386169	
-0.385925	
-0.385742	
-0.385559	
-0.384155	
-0.384705	
-0.384399	
-0.386169	
-0.386292	
-0.386414	
-0.386719	
-0.386841	
-0.38678	
-0.386292	
-0.385925	
-0.386658	
-0.385864	
-0.386414	
-0.386536	
-0.386536	
-0.386902	
-0.386047	
-0.385742	
-0.385315	
-0.38562	
-0.38562	
-0.386047	
-0.385498	
-0.385559	
-0.386292	
-0.386475	
-0.385681	
-0.385742	
-0.385498	
-0.385681	
-0.38562	
-0.38623	
-0.386414	
-0.386475	
-0.386658	
-0.386719	
-0.386902	
-0.387268	
-0.386597	
-0.386414	
-0.38623	
-0.386475	
-0.387085	
-0.387451	
-0.38739	
-0.387207	
-0.386841	
-0.387146	
-0.386536	
-0.386047	
-0.385742	
-0.386597	
-0.386658	
-0.388	
-0.386658	
-0.387024	
-0.386353	
-0.387451	
-0.386475	
-0.385864	
-0.386047	
-0.387329	
-0.386841	
-0.388	
-0.387268	
-0.388184	
-0.387451	
-0.387695	
-0.386536	
-0.386353	
-0.38739	
-0.387085	
-0.387451	
-0.387695	
-0.387878	
-0.388306	
-0.387939	
-0.387329	
-0.386108	
-0.387024	
-0.387024	
-0.386719	
-0.38678	
-0.386658	
-0.386902	
-0.387146	
-0.387146	
-0.386414	
-0.385132	
-0.386414	
-0.386719	
-0.386414	
-0.386841	
-0.386841	
-0.387207	
-0.387085	
-0.387024	
-0.386536	
-0.386353	
-0.386597	
-0.38678	
-0.387146	
-0.387146	
-0.387207	
-0.387512	
-0.387085	
-0.387451	
-0.385864	
-0.386292	
-0.385742	
-0.386353	
-0.386292	
-0.386292	
-0.386292	
-0.386536	
-0.38562	
-0.387024	
-0.385132	
-0.385681	
-0.384399	
-0.385498	
-0.385498	
-0.386292	
-0.38562	
-0.386353	
-0.384827	
-0.385925	
-0.383972	
-0.384827	
-0.385193	
-0.385925	
-0.385559	
-0.38623	
-0.385681	
-0.38678	
-0.385925	
-0.385864	
-0.384827	
-0.385071	
-0.386169	
-0.386108	
-0.386292	
-0.386902	
-0.386169	
-0.387573	
-0.387451	
-0.386536	
-0.386047	
-0.385498	
-0.386841	
-0.387024	
-0.387512	
-0.387756	
-0.387756	
-0.38916	
-0.389038	
-0.388184	
-0.38678	
-0.386292	
-0.387878	
-0.387878	
-0.388184	
-0.388	
-0.388123	
-0.388916	
-0.388794	
-0.387207	
-0.386353	
-0.384888	
-0.38623	
-0.385803	
-0.385681	
-0.385315	
-0.385742	
-0.385254	
-0.385925	
-0.384583	
-0.384277	
-0.384094	
-0.384888	
-0.384705	
-0.384766	
-0.384766	
-0.384949	
-0.384338	
-0.385498	
-0.383789	
-0.384216	
-0.384399	
-0.384399	
-0.384338	
-0.384583	
-0.384277	
-0.384827	
-0.384338	
-0.384216	
-0.383728	
-0.384094	
-0.38446	
-0.384644	
-0.384644	
-0.384888	
-0.38446	
-0.385132	
-0.384705	
-0.384216	
-0.383423	
-0.383423	
-0.384216	
-0.384705	
-0.384583	
-0.385071	
-0.384644	
-0.38562	
-0.385193	
-0.384888	
-0.38385	
-0.384094	
-0.385437	
-0.385498	
-0.385498	
-0.386047	
-0.385437	
-0.387207	
-0.385681	
-0.385559	
-0.384033	
-0.384521	
-0.385925	
-0.385498	
-0.385803	
-0.386658	
-0.385315	
-0.386841	
-0.385681	
-0.385559	
-0.383972	
-0.384888	
-0.385498	
-0.385193	
-0.385071	
-0.385803	
-0.385437	
-0.387085	
-0.385254	
-0.385376	
-0.384033	
-0.385071	
-0.385559	
-0.385681	
-0.385559	
-0.385803	
-0.386047	
-0.386719	
-0.386353	
-0.385376	
-0.38385	
-0.384155	
-0.385193	
-0.385498	
-0.385193	
-0.385437	
-0.385132	
-0.386169	
-0.386169	
-0.384644	
-0.383972	
-0.38446	
-0.384766	
-0.384644	
-0.384216	
-0.38446	
-0.384399	
-0.385132	
-0.384338	
-0.38324	
-0.38324	
-0.383545	
-0.383606	
-0.383484	
-0.383911	
-0.383789	
-0.383972	
-0.384216	
-0.384033	
-0.383606	
-0.383301	
-0.383911	
-0.384094	
-0.384338	
-0.38501	
-0.384827	
-0.384827	
-0.384399	
-0.384644	
-0.384521	
-0.383301	
-0.384827	
-0.384766	
-0.384888	
-0.385864	
-0.385071	
-0.385803	
-0.385254	
-0.385376	
-0.385071	
-0.384094	
-0.385254	
-0.385071	
-0.385498	
-0.386475	
-0.385498	
-0.386292	
-0.385864	
-0.38562	
-0.385742	
-0.385437	
-0.386108	
-0.386169	
-0.386292	
-0.386658	
-0.386475	
-0.386719	
-0.38562	
-0.385681	
-0.384094	
-0.384766	
-0.384705	
-0.384521	
-0.384644	
-0.38501	
-0.384155	
-0.385193	
-0.384094	
-0.383728	
-0.382019	
-0.382996	
-0.383179	
-0.383118	
-0.38324	
-0.383484	
-0.383301	
-0.384644	
-0.38385	
-0.38269	
-0.380676	
-0.382263	
-0.383484	
-0.383728	
-0.383972	
-0.384277	
-0.383972	
-0.385559	
-0.385071	
-0.383667	
-0.382141	
-0.38269	
-0.383606	
-0.383728	
-0.384155	
-0.38385	
-0.383667	
-0.385071	
-0.384644	
-0.383606	
-0.382935	
-0.382324	
-0.383362	
-0.38385	
-0.383789	
-0.383301	
-0.383362	
-0.383789	
-0.383911	
-0.382751	
-0.382446	
-0.382202	
-0.38269	
-0.382996	
-0.383362	
-0.383118	
-0.383728	
-0.384094	
-0.383728	
-0.382446	
-0.382019	
-0.38269	
-0.383179	
-0.383301	
-0.383484	
-0.382813	
-0.383484	
-0.383423	
-0.383118	
-0.381958	
-0.381958	
-0.382263	
-0.382568	
-0.382324	
-0.38269	
-0.38208	
-0.383118	
-0.382202	
-0.382996	
-0.38147	
-0.382263	
-0.382324	
-0.382446	
-0.382568	
-0.383362	
-0.382813	
-0.383606	
-0.382263	
-0.383606	
-0.381042	
-0.382935	
-0.382568	
-0.383179	
-0.382996	
-0.383911	
-0.383423	
-0.384766	
-0.382324	
-0.382874	
-0.381409	
-0.383423	
-0.382935	
-0.38324	
-0.382996	
-0.38385	
-0.382751	
-0.384338	
-0.382202	
-0.382507	
-0.382141	
-0.382385	
-0.382996	
-0.382813	
-0.382568	
-0.383789	
-0.38324	
-0.383789	
-0.382629	
-0.382813	
-0.382813	
-0.38324	
-0.38385	
-0.383545	
-0.383911	
-0.383972	
-0.38385	
-0.384338	
-0.383789	
-0.383484	
-0.383301	
-0.384155	
-0.384033	
-0.384094	
-0.384338	
-0.383728	
-0.38501	
-0.384949	
-0.384705	
-0.383911	
-0.382629	
-0.383728	
-0.38385	
-0.383911	
-0.384155	
-0.383545	
-0.384583	
-0.384277	
-0.383667	
-0.38208	
-0.382568	
-0.383057	
-0.382935	
-0.382996	
-0.383362	
-0.383179	
-0.38446	
-0.382935	
-0.383423	
-0.380737	
-0.382446	
-0.381592	
-0.381958	
-0.382324	
-0.381653	
-0.381531	
-0.383118	
-0.381531	
-0.382019	
-0.379578	
-0.381714	
-0.380554	
-0.381775	
-0.381531	
-0.382202	
-0.382385	
-0.384338	
-0.382935	
-0.383728	
-0.381714	
-0.383972	
-0.38269	
-0.383606	
-0.384216	
-0.38501	
-0.384644	
-0.385986	
-0.384033	
-0.385132	
-0.383362	
-0.384827	
-0.384216	
-0.384583	
-0.384827	
-0.385864	
-0.385193	
-0.386658	
-0.384155	
-0.385498	
-0.383911	
-0.385132	
-0.384338	
-0.38501	
-0.385498	
-0.38623	
-0.385559	
-0.386353	
-0.384583	
-0.385437	
-0.384705	
-0.385193	
-0.384583	
-0.385071	
-0.385437	
-0.385803	
-0.385803	
-0.385681	
-0.38501	
-0.385071	
-0.384399	
-0.385254	
-0.385376	
-0.384949	
-0.385498	
-0.384949	
-0.385498	
-0.384888	
-0.38446	
-0.383667	
-0.383606	
-0.384094	
-0.383667	
-0.38385	
-0.384521	
-0.384155	
-0.385315	
-0.384338	
-0.384521	
-0.383301	
-0.383911	
-0.38385	
-0.383911	
-0.384033	
-0.384338	
-0.384277	
-0.385254	
-0.384949	
-0.384827	
-0.382935	
-0.383362	
-0.383789	
-0.384094	
-0.384033	
-0.38446	
-0.384521	
-0.385071	
-0.384277	
	
