C:\DOCUMENTS AND SETTINGS\JASON\DESKTOP\UFRJ\UFRJ EPHYS\RSCI-BM 12 WK SERIES\070806-RSCI-BM-16\RSCI-BM-16-REMG\070806-RSCI-BM-16-REMG-0012.ACQ
0.025000 msec/sample
1 channel
Analog input
Volts
CH1	
2000	
-0.377991	
-0.377014	
-0.377686	
-0.377686	
-0.378906	
-0.377319	
-0.376831	
-0.375366	
-0.37738	
-0.376282	
-0.376282	
-0.375732	
-0.376038	
-0.376038	
-0.377625	
-0.377319	
-0.376343	
-0.376282	
-0.37616	
-0.376953	
-0.377502	
-0.377747	
-0.377686	
-0.37793	
-0.378906	
-0.378906	
-0.377869	
-0.378479	
-0.378296	
-0.379089	
-0.379028	
-0.379272	
-0.379639	
-0.379639	
-0.380554	
-0.379761	
-0.380188	
-0.380615	
-0.380676	
-0.381042	
-0.381348	
-0.381165	
-0.38092	
-0.380554	
-0.381836	
-0.381348	
-0.380554	
-0.381409	
-0.381653	
-0.38147	
-0.382263	
-0.381653	
-0.381836	
-0.382263	
-0.38269	
-0.382446	
-0.381348	
-0.381897	
-0.382813	
-0.382751	
-0.38324	
-0.382813	
-0.382568	
-0.383911	
-0.383484	
-0.382813	
-0.381348	
-0.38208	
-0.383057	
-0.382629	
-0.382324	
-0.382629	
-0.382446	
-0.383423	
-0.382507	
-0.381836	
-0.380798	
-0.382446	
-0.381409	
-0.381897	
-0.380859	
-0.381592	
-0.381653	
-0.38269	
-0.381653	
-0.381226	
-0.380127	
-0.382019	
-0.38147	
-0.381653	
-0.380066	
-0.381409	
-0.381348	
-0.382629	
-0.381653	
-0.381104	
-0.380066	
-0.38208	
-0.381226	
-0.38147	
-0.380249	
-0.381165	
-0.380005	
-0.381897	
-0.380981	
-0.38031	
-0.379822	
-0.381165	
-0.380371	
-0.380798	
-0.380188	
-0.3797	
-0.379639	
-0.380798	
-0.379761	
-0.379456	
-0.379333	
-0.379578	
-0.379883	
-0.379822	
-0.379578	
-0.379211	
-0.379761	
-0.380371	
-0.379089	
-0.378906	
-0.378418	
-0.379822	
-0.379578	
-0.379028	
-0.379028	
-0.37854	
-0.379944	
-0.379395	
-0.378845	
-0.377441	
-0.378235	
-0.378113	
-0.378479	
-0.377991	
-0.377808	
-0.377991	
-0.37915	
-0.378113	
-0.378235	
-0.376526	
-0.378418	
-0.378357	
-0.378906	
-0.378662	
-0.378662	
-0.37793	
-0.379822	
-0.379089	
-0.378906	
-0.37854	
-0.380066	
-0.379761	
-0.380066	
-0.379089	
-0.379761	
-0.380371	
-0.380615	
-0.380066	
-0.379395	
-0.379822	
-0.381287	
-0.380432	
-0.380371	
-0.379639	
-0.380554	
-0.380615	
-0.381714	
-0.381104	
-0.380737	
-0.380188	
-0.38208	
-0.38208	
-0.381592	
-0.380188	
-0.381409	
-0.381775	
-0.383484	
-0.382385	
-0.381653	
-0.380371	
-0.382751	
-0.383118	
-0.382263	
-0.381836	
-0.381653	
-0.383423	
-0.383911	
-0.382568	
-0.382568	
-0.381836	
-0.383057	
-0.375488	
-0.368958	
-0.368591	
-0.368347	
-0.369873	
-0.37085	
-0.378052	
-0.383118	
-0.383362	
-0.384521	
-0.384827	
-0.384521	
-0.383972	
-0.383972	
-0.385742	
-0.385498	
-0.384949	
-0.383484	
-0.384216	
-0.384827	
-0.38446	
-0.383606	
-0.383423	
-0.383118	
-0.383972	
-0.383118	
-0.382446	
-0.381226	
-0.382996	
-0.382324	
-0.381592	
-0.380859	
-0.381348	
-0.381958	
-0.383179	
-0.381836	
-0.38147	
-0.380066	
-0.381836	
-0.380859	
-0.380737	
-0.380188	
-0.380005	
-0.380798	
-0.381531	
-0.380554	
-0.380066	
-0.378845	
-0.380737	
-0.380676	
-0.380005	
-0.3797	
-0.378784	
-0.379761	
-0.38031	
-0.379211	
-0.378601	
-0.378601	
-0.379456	
-0.38031	
-0.378845	
-0.379028	
-0.37793	
-0.37915	
-0.379517	
-0.378906	
-0.378601	
-0.378784	
-0.378296	
-0.379272	
-0.378418	
-0.378418	
-0.378418	
-0.378967	
-0.3797	
-0.378662	
-0.378845	
-0.379639	
-0.380005	
-0.380188	
-0.379578	
-0.380066	
-0.379944	
-0.380981	
-0.380859	
-0.379761	
-0.37854	
-0.379089	
-0.380188	
-0.38031	
-0.379517	
-0.380676	
-0.380859	
-0.383301	
-0.382935	
-0.382751	
-0.381409	
-0.38385	
-0.385376	
-0.385742	
-0.386353	
-0.387085	
-0.389221	
-0.391296	
-0.391724	
-0.393005	
-0.394531	
-0.396118	
-0.397949	
-0.399109	
-0.400818	
-0.40271	
-0.405884	
-0.40741	
-0.409241	
-0.409912	
-0.412903	
-0.414795	
-0.415894	
-0.41626	
-0.418152	
-0.42041	
-0.422424	
-0.422852	
-0.423096	
-0.42395	
-0.424316	
-0.424316	
-0.423218	
-0.423218	
-0.423096	
-0.424377	
-0.424255	
-0.424133	
-0.42395	
-0.427246	
-0.429443	
-0.431152	
-0.432861	
-0.436646	
-0.439819	
-0.443298	
-0.445435	
-0.446411	
-0.448792	
-0.45105	
-0.453369	
-0.454346	
-0.455444	
-0.456055	
-0.458313	
-0.458923	
-0.459229	
-0.459961	
-0.460144	
-0.460815	
-0.46106	
-0.459534	
-0.459656	
-0.458435	
-0.458557	
-0.456482	
-0.455017	
-0.452087	
-0.451538	
-0.449707	
-0.44751	
-0.445496	
-0.444153	
-0.442566	
-0.442749	
-0.44043	
-0.438416	
-0.436035	
-0.435242	
-0.434937	
-0.433472	
-0.432007	
-0.431824	
-0.432007	
-0.432129	
-0.431396	
-0.429993	
-0.429932	
-0.431152	
-0.430603	
-0.429688	
-0.428345	
-0.427673	
-0.427551	
-0.425842	
-0.424072	
-0.422424	
-0.420837	
-0.419495	
-0.416626	
-0.41333	
-0.40979	
-0.406006	
-0.404114	
-0.399719	
-0.396118	
-0.391235	
-0.388794	
-0.385803	
-0.383118	
-0.379272	
-0.376648	
-0.373901	
-0.373108	
-0.369812	
-0.367676	
-0.363586	
-0.364075	
-0.362305	
-0.361511	
-0.359009	
-0.358215	
-0.356812	
-0.357178	
-0.355164	
-0.353149	
-0.351807	
-0.351135	
-0.350342	
-0.349426	
-0.347412	
-0.34668	
-0.34552	
-0.344604	
-0.344116	
-0.342163	
-0.341858	
-0.341614	
-0.341553	
-0.341309	
-0.340759	
-0.340271	
-0.341003	
-0.341125	
-0.340942	
-0.340942	
-0.34259	
-0.342651	
-0.344482	
-0.343933	
-0.344849	
-0.345154	
-0.34729	
-0.347412	
-0.346863	
-0.346863	
-0.348022	
-0.348816	
-0.349731	
-0.348877	
-0.350647	
-0.351563	
-0.351624	
-0.351868	
-0.352295	
-0.353271	
-0.353821	
-0.354797	
-0.354553	
-0.355103	
-0.354919	
-0.357605	
-0.357178	
-0.356628	
-0.355957	
-0.357178	
-0.357483	
-0.357727	
-0.357178	
-0.358459	
-0.358826	
-0.358948	
-0.359192	
-0.358643	
-0.359558	
-0.359253	
-0.360535	
-0.359558	
-0.359741	
-0.358765	
-0.360535	
-0.360168	
-0.358948	
-0.357422	
-0.358582	
-0.358887	
-0.358521	
-0.3573	
-0.358093	
-0.358643	
-0.358582	
-0.358154	
-0.357605	
-0.358398	
-0.358459	
-0.358704	
-0.358765	
-0.358887	
-0.359314	
-0.360535	
-0.360291	
-0.360107	
-0.358948	
-0.359924	
-0.360474	
-0.361694	
-0.360229	
-0.361023	
-0.361023	
-0.362244	
-0.36145	
-0.361145	
-0.361389	
-0.362183	
-0.362244	
-0.361816	
-0.362061	
-0.362122	
-0.363281	
-0.363281	
-0.362793	
-0.361572	
-0.362854	
-0.363403	
-0.364502	
-0.363037	
-0.363953	
-0.363342	
-0.365723	
-0.364563	
-0.364319	
-0.364685	
-0.365662	
-0.365173	
-0.365051	
-0.364197	
-0.365234	
-0.365051	
-0.365173	
-0.365295	
-0.365234	
-0.36554	
-0.365601	
-0.365601	
-0.365479	
-0.36554	
-0.365845	
-0.367065	
-0.367126	
-0.367065	
-0.366394	
-0.367371	
-0.368408	
-0.368835	
-0.368774	
-0.369446	
-0.369385	
-0.371521	
-0.370728	
-0.369568	
-0.368591	
-0.3703	
-0.370667	
-0.37146	
-0.370117	
-0.371277	
-0.370605	
-0.372375	
-0.371948	
-0.371399	
-0.371704	
-0.372192	
-0.372131	
-0.372192	
-0.371521	
-0.371948	
-0.372314	
-0.372375	
-0.372559	
-0.372314	
-0.372864	
-0.372925	
-0.374023	
-0.373474	
-0.373718	
-0.373657	
-0.375061	
-0.374573	
-0.374084	
-0.373169	
-0.374512	
-0.374634	
-0.374939	
-0.373657	
-0.373901	
-0.361145	
-0.362061	
-0.36145	
-0.361206	
-0.35968	
-0.366638	
-0.375305	
-0.37616	
-0.375732	
-0.375366	
-0.373779	
-0.374939	
-0.375244	
-0.374146	
-0.373718	
-0.374023	
-0.374695	
-0.375305	
-0.375244	
-0.374939	
-0.374817	
-0.375122	
-0.375244	
-0.374695	
-0.375061	
-0.375	
-0.375061	
-0.375061	
-0.375	
-0.374878	
-0.375793	
-0.375061	
-0.375549	
-0.374329	
-0.375122	
-0.375061	
-0.375183	
-0.375244	
-0.375183	
-0.375122	
-0.376282	
-0.375427	
-0.375305	
-0.374268	
-0.374939	
-0.374695	
-0.375183	
-0.374451	
-0.37439	
-0.374329	
-0.375366	
-0.375183	
-0.374084	
-0.372559	
-0.373901	
-0.374023	
-0.375	
-0.373108	
-0.374023	
-0.374023	
-0.37439	
-0.374451	
-0.373352	
-0.374329	
-0.375061	
-0.37439	
-0.374084	
-0.373169	
-0.373718	
-0.374817	
-0.37384	
-0.373291	
-0.371765	
-0.373535	
-0.373291	
-0.373047	
-0.372681	
-0.372803	
-0.37262	
-0.373535	
-0.373596	
-0.372192	
-0.372559	
-0.372131	
-0.373352	
-0.374329	
-0.37323	
-0.374573	
-0.374268	
-0.375305	
-0.375671	
-0.375427	
-0.376282	
-0.378113	
-0.378601	
-0.379395	
-0.37915	
-0.381409	
-0.38385	
-0.384338	
-0.384766	
-0.385498	
-0.38678	
-0.389526	
-0.391418	
-0.392273	
-0.39447	
-0.39563	
-0.397583	
-0.399109	
-0.400513	
-0.403503	
-0.406433	
-0.408142	
-0.410095	
-0.410645	
-0.413513	
-0.415222	
-0.416748	
-0.416565	
-0.417664	
-0.41803	
-0.419373	
-0.420837	
-0.419861	
-0.420166	
-0.421082	
-0.420288	
-0.420532	
-0.42041	
-0.422241	
-0.424683	
-0.425781	
-0.427612	
-0.428589	
-0.431519	
-0.434875	
-0.437439	
-0.439148	
-0.44104	
-0.443604	
-0.445557	
-0.447815	
-0.447937	
-0.449158	
-0.450562	
-0.451538	
-0.451965	
-0.451721	
-0.453125	
-0.453674	
-0.453735	
-0.454041	
-0.453674	
-0.45343	
-0.453979	
-0.452881	
-0.451843	
-0.450439	
-0.450256	
-0.4505	
-0.44928	
-0.447815	
-0.445984	
-0.44635	
-0.445923	
-0.444641	
-0.442139	
-0.439941	
-0.439514	
-0.440186	
-0.438171	
-0.436829	
-0.435181	
-0.435303	
-0.435486	
-0.435059	
-0.4328	
-0.432861	
-0.432495	
-0.431702	
-0.431458	
-0.429321	
-0.428955	
-0.427673	
-0.42688	
-0.425293	
-0.422607	
-0.421692	
-0.419556	
-0.417603	
-0.415222	
-0.411804	
-0.408875	
-0.406616	
-0.402405	
-0.398438	
-0.393555	
-0.391296	
-0.388733	
-0.384766	
-0.381165	
-0.377625	
-0.374817	
-0.373169	
-0.36969	
-0.365356	
-0.362732	
-0.35968	
-0.359497	
-0.357178	
-0.35437	
-0.352356	
-0.351624	
-0.351501	
-0.351074	
-0.349548	
-0.349304	
-0.349182	
-0.349548	
-0.348633	
-0.347412	
-0.346069	
-0.345398	
-0.345825	
-0.344482	
-0.343018	
-0.343323	
-0.343445	
-0.34375	
-0.342896	
-0.342834	
-0.342896	
-0.344666	
-0.34436	
-0.343384	
-0.343323	
-0.343628	
-0.345825	
-0.346252	
-0.34668	
-0.347168	
-0.348083	
-0.348755	
-0.349121	
-0.349182	
-0.349792	
-0.350891	
-0.351746	
-0.352173	
-0.3526	
-0.352783	
-0.35437	
-0.354004	
-0.353943	
-0.354126	
-0.354919	
-0.356995	
-0.357117	
-0.357544	
-0.358215	
-0.358887	
-0.359924	
-0.360413	
-0.35968	
-0.360168	
-0.360718	
-0.362061	
-0.361816	
-0.360962	
-0.360657	
-0.36261	
-0.362244	
-0.361694	
-0.361877	
-0.361633	
-0.362854	
-0.362732	
-0.362732	
-0.36261	
-0.362732	
-0.363586	
-0.363403	
-0.36261	
-0.363159	
-0.363647	
-0.363281	
-0.363098	
-0.362061	
-0.360535	
-0.362061	
-0.361267	
-0.360291	
-0.359131	
-0.359436	
-0.360474	
-0.360352	
-0.360291	
-0.360107	
-0.36084	
-0.361877	
-0.361572	
-0.360901	
-0.361267	
-0.361633	
-0.362549	
-0.362427	
-0.361877	
-0.360535	
-0.362061	
-0.362427	
-0.362366	
-0.361267	
-0.361938	
-0.362854	
-0.363037	
-0.362854	
-0.362793	
-0.363342	
-0.364441	
-0.36377	
-0.363281	
-0.36322	
-0.36377	
-0.364746	
-0.36499	
-0.364441	
-0.364258	
-0.365295	
-0.366272	
-0.365784	
-0.365051	
-0.366028	
-0.366638	
-0.36731	
-0.367188	
-0.366943	
-0.367065	
-0.368103	
-0.368469	
-0.367493	
-0.367065	
-0.367371	
-0.369385	
-0.369751	
-0.369568	
-0.369934	
-0.370361	
-0.371277	
-0.370483	
-0.36969	
-0.370483	
-0.370422	
-0.371155	
-0.37146	
-0.371094	
-0.370605	
-0.371155	
-0.371277	
-0.371338	
-0.370483	
-0.371765	
-0.37207	
-0.37323	
-0.372437	
-0.372314	
-0.37207	
-0.373291	
-0.373718	
-0.372498	
-0.372803	
-0.372986	
-0.374207	
-0.374146	
-0.374146	
-0.374207	
-0.374634	
-0.375671	
-0.375488	
-0.374268	
-0.374817	
-0.375061	
-0.376099	
-0.376038	
-0.375549	
-0.375244	
-0.375916	
-0.376343	
-0.375916	
-0.375427	
-0.375977	
-0.376282	
-0.37738	
-0.376709	
-0.376892	
-0.37616	
-0.37738	
-0.376831	
-0.376648	
-0.377075	
-0.377136	
-0.37793	
-0.378235	
-0.378357	
-0.378235	
-0.378357	
-0.3797	
-0.379578	
-0.379028	
-0.378174	
-0.378235	
-0.380127	
-0.379822	
-0.379822	
-0.379578	
-0.380554	
-0.380737	
-0.381165	
-0.37915	
-0.3797	
-0.378662	
-0.380676	
-0.379578	
-0.379456	
-0.377991	
-0.379456	
-0.379272	
-0.37915	
-0.377319	
-0.378296	
-0.378418	
-0.378174	
-0.378662	
-0.377441	
-0.377441	
-0.377869	
-0.377197	
-0.376953	
-0.376526	
-0.376648	
-0.377136	
-0.376587	
-0.376648	
-0.376099	
-0.376465	
-0.377197	
-0.377136	
-0.37616	
-0.375488	
-0.375122	
-0.376648	
-0.376404	
-0.375732	
-0.375122	
-0.37677	
-0.375732	
-0.376343	
-0.374084	
-0.37561	
-0.375427	
-0.375671	
-0.375854	
-0.375122	
-0.375427	
-0.375427	
-0.37561	
-0.375122	
-0.374573	
-0.375305	
-0.375793	
-0.375793	
-0.376404	
-0.375549	
-0.376343	
-0.376526	
-0.37738	
-0.376465	
-0.376892	
-0.37677	
-0.378235	
-0.377747	
-0.377747	
-0.376892	
-0.378418	
-0.37793	
-0.378479	
-0.377075	
-0.378113	
-0.378601	
-0.378113	
-0.37854	
-0.37793	
-0.378479	
-0.378784	
-0.37854	
-0.378113	
-0.377319	
-0.378113	
-0.378784	
-0.378784	
-0.379578	
-0.378418	
-0.379944	
-0.378113	
-0.380127	
-0.378723	
-0.3797	
-0.378906	
-0.38092	
-0.380249	
-0.380554	
-0.38031	
-0.381592	
-0.380615	
-0.380798	
-0.380371	
-0.381042	
-0.381348	
-0.381409	
-0.381531	
-0.381165	
-0.381775	
-0.38269	
-0.382019	
-0.381836	
-0.381226	
-0.38208	
-0.382629	
-0.382446	
-0.382874	
-0.382141	
-0.383789	
-0.382385	
-0.383667	
-0.381592	
-0.38324	
-0.382324	
-0.384216	
-0.383545	
-0.384644	
-0.383179	
-0.385132	
-0.383118	
-0.384705	
-0.383789	
-0.384399	
-0.384399	
-0.38385	
-0.384216	
-0.384277	
-0.384277	
-0.384338	
-0.383728	
-0.383301	
-0.382202	
-0.382996	
-0.382996	
-0.382996	
-0.382446	
-0.382629	
-0.382813	
-0.382751	
-0.383118	
-0.381897	
-0.382385	
-0.381714	
-0.382874	
-0.38208	
-0.382324	
-0.381409	
-0.38324	
-0.381653	
-0.382446	
-0.380615	
-0.381531	
-0.380432	
-0.381897	
-0.380859	
-0.381958	
-0.381287	
-0.381836	
-0.380188	
-0.381042	
-0.380676	
-0.380554	
-0.380493	
-0.380798	
-0.380676	
-0.381104	
-0.380371	
-0.380005	
-0.380066	
-0.3797	
-0.379822	
-0.379456	
-0.38031	
-0.3797	
-0.379517	
-0.378784	
-0.380676	
-0.379578	
-0.379517	
-0.377747	
-0.379333	
-0.378601	
-0.379944	
-0.379395	
-0.3797	
-0.379395	
-0.380188	
-0.379028	
-0.379333	
-0.378784	
-0.378967	
-0.379272	
-0.378845	
-0.378479	
-0.37915	
-0.379395	
-0.379639	
-0.378418	
-0.379089	
-0.380127	
-0.380127	
-0.381287	
-0.380493	
-0.381165	
-0.380676	
-0.382141	
-0.381409	
-0.381287	
-0.381104	
-0.381165	
-0.381042	
-0.38208	
-0.381592	
-0.382202	
-0.382629	
-0.382874	
-0.382263	
-0.383423	
-0.382202	
-0.382507	
-0.382263	
-0.382751	
-0.383057	
-0.383179	
-0.38324	
-0.384033	
-0.382751	
-0.383118	
-0.383118	
-0.383362	
-0.383728	
-0.383667	
-0.384094	
-0.384277	
-0.384705	
-0.384216	
-0.383118	
-0.382935	
-0.384216	
-0.384216	
-0.384949	
-0.384277	
-0.384583	
-0.38385	
-0.385437	
-0.384277	
-0.385315	
-0.383972	
-0.384644	
-0.383667	
-0.384766	
-0.384216	
-0.384216	
-0.384277	
-0.383972	
-0.383484	
-0.383545	
-0.382751	
-0.383057	
-0.383423	
-0.38324	
-0.383728	
-0.383667	
-0.383972	
-0.384521	
-0.383789	
-0.383118	
-0.38208	
-0.383362	
-0.383606	
-0.383545	
-0.383118	
-0.383423	
-0.383484	
-0.383118	
-0.382568	
-0.381775	
-0.382813	
-0.382019	
-0.383789	
-0.382751	
-0.382813	
-0.382507	
-0.383972	
-0.382202	
-0.383057	
-0.381775	
-0.382385	
-0.38208	
-0.382996	
-0.382202	
-0.38208	
-0.382324	
-0.382935	
-0.381958	
-0.38147	
-0.380615	
-0.381531	
-0.38147	
-0.381653	
-0.381592	
-0.381836	
-0.381775	
-0.38208	
-0.381348	
-0.380981	
-0.380676	
-0.381226	
-0.38147	
-0.381042	
-0.381409	
-0.381653	
-0.381165	
-0.380432	
-0.380432	
-0.378967	
-0.379944	
-0.378296	
-0.379578	
-0.379395	
-0.379211	
-0.380066	
-0.379944	
-0.378845	
-0.379028	
-0.378418	
-0.378967	
-0.378906	
-0.379761	
-0.37915	
-0.379395	
-0.379089	
-0.380554	
-0.380371	
-0.380249	
-0.3797	
-0.380066	
-0.380981	
-0.381592	
-0.381042	
-0.381042	
-0.381348	
-0.382874	
-0.382263	
-0.38147	
-0.38147	
-0.381714	
-0.382996	
-0.38269	
-0.382996	
-0.383789	
-0.384094	
-0.383789	
-0.383728	
-0.382874	
-0.383728	
-0.383667	
-0.384094	
-0.383728	
-0.384033	
-0.384705	
-0.385132	
-0.383972	
-0.382813	
-0.383118	
-0.383972	
-0.384705	
-0.384583	
-0.38446	
-0.384583	
-0.38501	
-0.385559	
-0.385132	
-0.384644	
-0.384644	
-0.384644	
-0.385254	
-0.385498	
-0.38501	
-0.385437	
-0.38446	
-0.385986	
-0.385559	
-0.384644	
-0.383484	
-0.383545	
-0.384338	
-0.385376	
-0.384277	
-0.384216	
-0.383728	
-0.384705	
-0.383362	
-0.383728	
-0.383118	
-0.384216	
-0.383667	
-0.384216	
-0.383484	
-0.384155	
-0.384094	
-0.383606	
-0.382751	
-0.382813	
-0.383545	
-0.383728	
-0.383606	
-0.383362	
-0.383972	
-0.38446	
-0.38501	
-0.383911	
-0.383118	
-0.38147	
-0.381897	
-0.383057	
-0.383667	
-0.382813	
-0.38269	
-0.382568	
-0.383545	
-0.382324	
-0.381836	
-0.380615	
-0.38208	
-0.382141	
-0.382996	
-0.381653	
-0.382324	
-0.380859	
-0.382385	
-0.380859	
-0.381104	
-0.380249	
-0.381287	
-0.38147	
-0.382019	
-0.381287	
-0.381714	
-0.381653	
-0.381348	
-0.38092	
-0.380432	
-0.380737	
-0.381042	
-0.381226	
-0.380554	
-0.381042	
-0.380432	
-0.381104	
-0.380859	
-0.380127	
-0.379333	
-0.37854	
-0.379761	
-0.379944	
-0.379517	
-0.38031	
-0.379578	
-0.381592	
-0.380005	
-0.380066	
-0.378235	
-0.38031	
-0.380249	
-0.381409	
-0.381042	
-0.382019	
-0.380371	
-0.383118	
-0.380249	
-0.381226	
-0.380493	
-0.381714	
-0.381775	
-0.382751	
-0.382385	
-0.382568	
-0.381775	
-0.383362	
-0.382446	
-0.382324	
-0.381836	
-0.382507	
-0.383179	
-0.382935	
-0.382935	
-0.382629	
-0.383606	
-0.383667	
-0.383057	
-0.382996	
-0.382629	
-0.383484	
-0.383728	
-0.383545	
-0.384094	
-0.383545	
-0.384521	
-0.384277	
-0.384033	
-0.383484	
-0.384216	
-0.384644	
-0.384277	
-0.384644	
-0.385437	
-0.38446	
-0.38623	
-0.383728	
-0.384521	
-0.382385	
-0.384888	
-0.385071	
-0.385132	
-0.385376	
-0.38562	
-0.38501	
-0.386108	
-0.385254	
-0.385193	
-0.385071	
-0.385437	
-0.385315	
-0.386169	
-0.385559	
-0.385498	
-0.385254	
-0.385742	
-0.385864	
-0.384644	
-0.384583	
-0.384827	
-0.383911	
-0.385193	
-0.384094	
-0.38385	
-0.382874	
-0.383606	
-0.38324	
-0.382324	
-0.382202	
-0.382935	
-0.383179	
-0.383728	
-0.383057	
-0.382385	
-0.383057	
-0.382324	
-0.381836	
-0.38031	
-0.380737	
-0.381531	
-0.381592	
-0.381897	
-0.382385	
-0.381348	
-0.382507	
-0.381775	
-0.381042	
-0.379822	
-0.380615	
-0.380798	
-0.38147	
-0.38092	
-0.380493	
-0.38031	
-0.38147	
-0.380737	
-0.380066	
-0.380188	
-0.38031	
-0.380188	
-0.380249	
-0.380676	
-0.380188	
-0.380005	
-0.3797	
-0.380066	
-0.379089	
-0.380005	
-0.380188	
-0.379761	
-0.380676	
-0.381104	
-0.380737	
-0.380798	
-0.381348	
-0.380981	
-0.380737	
-0.381165	
-0.382019	
-0.381592	
-0.382385	
-0.382019	
-0.381714	
-0.38092	
-0.381592	
-0.380676	
-0.381409	
-0.380615	
-0.381348	
-0.381348	
-0.382446	
-0.381409	
-0.381653	
-0.38208	
-0.382324	
-0.381348	
-0.38092	
-0.381165	
-0.382019	
-0.382568	
-0.38269	
-0.382019	
-0.382019	
-0.382813	
-0.382813	
-0.381714	
-0.380981	
-0.382385	
-0.38269	
-0.383423	
-0.38385	
-0.382935	
-0.383179	
-0.382507	
-0.383179	
-0.38208	
-0.382996	
-0.383057	
-0.383179	
-0.384949	
-0.384338	
-0.383301	
-0.383118	
-0.383789	
-0.383484	
-0.383362	
-0.383362	
-0.383606	
-0.383911	
-0.383972	
-0.383911	
-0.384155	
-0.384705	
-0.385315	
-0.384705	
-0.384338	
-0.384155	
-0.385376	
-0.385559	
-0.385681	
-0.385925	
-0.385925	
-0.386047	
-0.386841	
-0.385864	
-0.385681	
-0.38562	
-0.386169	
-0.386536	
-0.386414	
-0.386169	
-0.384949	
-0.386108	
-0.385559	
-0.384583	
-0.383484	
-0.384705	
-0.384705	
-0.38562	
-0.385071	
-0.384155	
-0.384033	
-0.383728	
-0.38324	
-0.38269	
-0.382507	
-0.382446	
-0.38269	
-0.382629	
-0.38324	
-0.38208	
-0.382263	
-0.381592	
-0.381287	
-0.381348	
-0.381104	
-0.381287	
-0.381836	
-0.38147	
-0.382141	
-0.380676	
-0.381042	
-0.381104	
-0.380859	
-0.380615	
-0.379822	
-0.380798	
-0.381409	
-0.380554	
-0.381042	
-0.379211	
-0.380005	
-0.38092	
-0.379456	
-0.3797	
-0.379272	
-0.379944	
-0.380432	
-0.380188	
-0.379944	
-0.38092	
-0.380249	
-0.380127	
-0.379456	
-0.379517	
-0.380432	
-0.380798	
-0.380615	
-0.38147	
-0.380859	
-0.382141	
-0.382263	
-0.381714	
-0.381653	
-0.38092	
-0.381592	
-0.382019	
-0.381836	
-0.382385	
-0.381775	
-0.381592	
-0.381165	
-0.381531	
-0.381592	
-0.381714	
-0.381836	
-0.382324	
-0.381592	
-0.38208	
-0.380676	
-0.382019	
-0.381348	
-0.381897	
-0.38208	
-0.381226	
-0.382385	
-0.383362	
-0.382629	
-0.383362	
-0.382385	
-0.382874	
-0.383423	
-0.382874	
-0.382935	
-0.382874	
-0.383545	
-0.384216	
-0.383545	
-0.383667	
-0.384644	
-0.38446	
-0.384094	
-0.382446	
-0.382751	
-0.383972	
-0.384216	
-0.384338	
-0.383606	
-0.383789	
-0.385071	
-0.384888	
-0.38446	
-0.383484	
-0.384216	
-0.384277	
-0.384949	
-0.384888	
-0.384888	
-0.385071	
-0.385925	
-0.385559	
-0.38501	
-0.384888	
-0.38562	
-0.385925	
-0.386047	
-0.385559	
-0.386047	
-0.384949	
-0.385803	
-0.385071	
-0.384583	
-0.384338	
-0.38446	
-0.38501	
-0.385498	
-0.384705	
-0.385132	
-0.383423	
-0.384705	
-0.383545	
-0.383911	
-0.382874	
-0.38269	
-0.384094	
-0.384216	
-0.384033	
-0.383911	
-0.383789	
-0.383362	
-0.383545	
-0.382385	
-0.382751	
-0.382874	
-0.383057	
-0.38269	
-0.382629	
-0.382141	
-0.383423	
-0.382324	
-0.381714	
-0.381104	
-0.381653	
-0.38208	
-0.382263	
-0.381836	
-0.381897	
-0.381287	
-0.382751	
-0.381409	
-0.381226	
-0.379822	
-0.380798	
-0.381104	
-0.381287	
-0.380798	
-0.380981	
-0.380005	
-0.381775	
-0.380066	
-0.380676	
-0.379272	
-0.379883	
-0.380493	
-0.38092	
-0.380249	
-0.380798	
-0.380249	
-0.380737	
-0.3797	
-0.379761	
-0.3797	
-0.378967	
-0.380005	
-0.380371	
-0.380005	
-0.380371	
-0.380066	
-0.379517	
-0.380005	
-0.3797	
-0.380188	
-0.380127	
-0.381104	
-0.38092	
-0.381104	
-0.381958	
-0.382202	
-0.381897	
-0.38208	
-0.381897	
-0.382385	
-0.382385	
-0.382446	
-0.382324	
-0.382385	
-0.382324	
-0.383362	
-0.382874	
-0.382568	
-0.382141	
-0.382996	
-0.383362	
-0.384521	
-0.383545	
-0.383667	
-0.382507	
-0.38501	
-0.384216	
-0.383606	
-0.381592	
-0.383728	
-0.384338	
-0.385559	
-0.38446	
-0.384521	
-0.384216	
-0.386108	
-0.384277	
-0.384277	
-0.383972	
-0.383362	
-0.384827	
-0.384766	
-0.384888	
-0.385559	
-0.384888	
-0.385254	
-0.38501	
-0.384827	
-0.385193	
-0.384644	
-0.38501	
-0.38501	
-0.384583	
-0.385071	
-0.384888	
-0.384521	
-0.382568	
-0.383606	
-0.383545	
-0.383728	
-0.383667	
-0.383606	
-0.383606	
-0.383667	
-0.384155	
-0.383728	
-0.383179	
-0.38324	
-0.383728	
-0.383911	
-0.383972	
-0.383789	
-0.383728	
-0.382874	
-0.384338	
-0.38324	
-0.38324	
-0.381775	
-0.382202	
-0.382996	
-0.383789	
-0.382629	
-0.382751	
-0.381714	
-0.383972	
-0.382629	
-0.382141	
-0.380737	
-0.38208	
-0.382324	
-0.382935	
-0.381775	
-0.381958	
-0.381958	
-0.383057	
-0.381897	
-0.381409	
-0.381042	
-0.381714	
-0.381653	
-0.381714	
-0.381287	
-0.381348	
-0.38147	
-0.381897	
-0.381104	
-0.380737	
-0.380859	
-0.380981	
-0.38147	
-0.381165	
-0.380737	
-0.381653	
-0.38092	
	
