C:\DOCUMENTS AND SETTINGS\JASON\DESKTOP\UFRJ\UFRJ EPHYS\RSCI-BM 12 WK SERIES\070806-RSCI-BM-16\RSCI-BM-16-REMG\070806-RSCI-BM-16-REMG-0016.ACQ
0.025000 msec/sample
1 channel
Analog input
Volts
CH1	
2000	
-0.384155	
-0.384094	
-0.383301	
-0.382446	
-0.381409	
-0.382813	
-0.382629	
-0.38269	
-0.382263	
-0.382141	
-0.382874	
-0.383728	
-0.382446	
-0.381592	
-0.380737	
-0.381348	
-0.38269	
-0.381958	
-0.38147	
-0.38208	
-0.38208	
-0.382446	
-0.382019	
-0.381409	
-0.381348	
-0.380127	
-0.380981	
-0.380859	
-0.380737	
-0.380676	
-0.380859	
-0.380615	
-0.380798	
-0.380005	
-0.380066	
-0.3797	
-0.381104	
-0.379517	
-0.3797	
-0.379333	
-0.380249	
-0.379944	
-0.378296	
-0.378601	
-0.379028	
-0.379578	
-0.380432	
-0.379272	
-0.379089	
-0.37915	
-0.379944	
-0.378601	
-0.378235	
-0.378296	
-0.378723	
-0.379089	
-0.378967	
-0.378967	
-0.378967	
-0.378906	
-0.379944	
-0.378845	
-0.378479	
-0.377136	
-0.37854	
-0.379333	
-0.379089	
-0.379456	
-0.379089	
-0.379639	
-0.380798	
-0.379639	
-0.379517	
-0.377991	
-0.379028	
-0.380005	
-0.379822	
-0.379761	
-0.379883	
-0.38031	
-0.380249	
-0.380188	
-0.379883	
-0.379822	
-0.380981	
-0.381042	
-0.380676	
-0.380859	
-0.380676	
-0.381165	
-0.381165	
-0.380554	
-0.380432	
-0.381409	
-0.381042	
-0.382202	
-0.382019	
-0.380981	
-0.382141	
-0.382263	
-0.382385	
-0.380676	
-0.380432	
-0.381775	
-0.381897	
-0.382202	
-0.382019	
-0.381775	
-0.382751	
-0.383362	
-0.382996	
-0.382202	
-0.381287	
-0.381897	
-0.382813	
-0.38269	
-0.382324	
-0.382935	
-0.383179	
-0.384216	
-0.383972	
-0.382874	
-0.382324	
-0.382751	
-0.384277	
-0.383667	
-0.38385	
-0.383789	
-0.384033	
-0.385132	
-0.384277	
-0.384216	
-0.383545	
-0.38446	
-0.385193	
-0.384094	
-0.384644	
-0.38446	
-0.384399	
-0.38446	
-0.382751	
-0.383301	
-0.382874	
-0.38324	
-0.383728	
-0.382324	
-0.382446	
-0.382324	
-0.382996	
-0.382324	
-0.381409	
-0.38092	
-0.381165	
-0.381104	
-0.381653	
-0.380676	
-0.380493	
-0.379333	
-0.381531	
-0.380554	
-0.380493	
-0.37854	
-0.379517	
-0.380066	
-0.380493	
-0.379944	
-0.379944	
-0.379517	
-0.380493	
-0.379761	
-0.379211	
-0.378174	
-0.378235	
-0.379517	
-0.379089	
-0.378906	
-0.379211	
-0.37915	
-0.379639	
-0.378906	
-0.378662	
-0.377502	
-0.378052	
-0.37854	
-0.378601	
-0.378479	
-0.378845	
-0.378662	
-0.379456	
-0.377869	
-0.377869	
-0.376953	
-0.37854	
-0.378357	
-0.379089	
-0.378723	
-0.379883	
-0.371643	
-0.375122	
-0.379517	
-0.380005	
-0.380127	
-0.380615	
-0.380859	
-0.380554	
-0.380615	
-0.379883	
-0.380676	
-0.380798	
-0.380371	
-0.379089	
-0.3797	
-0.380127	
-0.381226	
-0.380249	
-0.380432	
-0.379578	
-0.381531	
-0.381531	
-0.380859	
-0.379639	
-0.379944	
-0.381409	
-0.382446	
-0.381104	
-0.38147	
-0.380981	
-0.382446	
-0.381592	
-0.38147	
-0.381653	
-0.38208	
-0.382263	
-0.382202	
-0.382263	
-0.382996	
-0.382141	
-0.382813	
-0.380981	
-0.382019	
-0.381897	
-0.382324	
-0.382874	
-0.38269	
-0.383057	
-0.38324	
-0.382751	
-0.383423	
-0.382446	
-0.38269	
-0.381958	
-0.382996	
-0.383301	
-0.383179	
-0.383484	
-0.383423	
-0.384094	
-0.384583	
-0.383728	
-0.382996	
-0.382813	
-0.384399	
-0.384766	
-0.384644	
-0.384521	
-0.383484	
-0.384766	
-0.384644	
-0.384399	
-0.383362	
-0.38324	
-0.383667	
-0.384583	
-0.383362	
-0.383362	
-0.381958	
-0.384277	
-0.383545	
-0.382751	
-0.381775	
-0.381836	
-0.382874	
-0.383484	
-0.383057	
-0.383362	
-0.383545	
-0.384399	
-0.38446	
-0.384216	
-0.384949	
-0.384583	
-0.385986	
-0.387146	
-0.388	
-0.389038	
-0.389709	
-0.390808	
-0.391602	
-0.392822	
-0.393555	
-0.396057	
-0.398254	
-0.399414	
-0.401367	
-0.403015	
-0.406189	
-0.40802	
-0.409424	
-0.409851	
-0.412292	
-0.414368	
-0.416382	
-0.417664	
-0.419067	
-0.420654	
-0.421997	
-0.423035	
-0.423279	
-0.422607	
-0.424133	
-0.424438	
-0.423767	
-0.42395	
-0.422424	
-0.424438	
-0.423767	
-0.424194	
-0.423645	
-0.426331	
-0.428284	
-0.43103	
-0.433228	
-0.436096	
-0.439087	
-0.441711	
-0.443665	
-0.445129	
-0.44696	
-0.449646	
-0.451538	
-0.453552	
-0.455261	
-0.456177	
-0.45813	
-0.460022	
-0.460144	
-0.460083	
-0.459473	
-0.460815	
-0.461487	
-0.460571	
-0.460266	
-0.458008	
-0.459045	
-0.457703	
-0.455811	
-0.453369	
-0.452087	
-0.451416	
-0.450806	
-0.448975	
-0.448059	
-0.44635	
-0.446106	
-0.44397	
-0.443176	
-0.441833	
-0.441101	
-0.44043	
-0.439697	
-0.438904	
-0.438416	
-0.438171	
-0.43811	
-0.437561	
-0.437012	
-0.437012	
-0.437561	
-0.437561	
-0.437256	
-0.436768	
-0.435608	
-0.434875	
-0.434875	
-0.432007	
-0.430115	
-0.426819	
-0.426819	
-0.424744	
-0.420959	
-0.418518	
-0.414063	
-0.411682	
-0.408203	
-0.402954	
-0.398071	
-0.394653	
-0.392273	
-0.389648	
-0.38562	
-0.383789	
-0.378967	
-0.378296	
-0.37439	
-0.372559	
-0.370911	
-0.36908	
-0.367676	
-0.366882	
-0.364502	
-0.363159	
-0.361023	
-0.360291	
-0.358093	
-0.356689	
-0.355225	
-0.354614	
-0.353516	
-0.352112	
-0.350769	
-0.348877	
-0.348267	
-0.347595	
-0.345459	
-0.343994	
-0.342163	
-0.34375	
-0.34375	
-0.342957	
-0.343506	
-0.341309	
-0.342896	
-0.342224	
-0.342041	
-0.341797	
-0.342163	
-0.342773	
-0.343262	
-0.343323	
-0.344299	
-0.344849	
-0.345703	
-0.345093	
-0.34552	
-0.345276	
-0.346985	
-0.347595	
-0.347717	
-0.34845	
-0.347717	
-0.350098	
-0.350281	
-0.350037	
-0.350403	
-0.351196	
-0.3526	
-0.3526	
-0.352844	
-0.353821	
-0.353882	
-0.354858	
-0.353699	
-0.353577	
-0.352783	
-0.354004	
-0.354309	
-0.354187	
-0.354797	
-0.353943	
-0.35553	
-0.355835	
-0.35498	
-0.355103	
-0.355713	
-0.356567	
-0.357056	
-0.356995	
-0.357971	
-0.357849	
-0.358704	
-0.357361	
-0.357178	
-0.357239	
-0.358093	
-0.358521	
-0.358582	
-0.358826	
-0.357971	
-0.359314	
-0.358582	
-0.358337	
-0.358704	
-0.358826	
-0.359558	
-0.359924	
-0.359924	
-0.360413	
-0.361145	
-0.362183	
-0.361084	
-0.361145	
-0.362061	
-0.362549	
-0.363037	
-0.362793	
-0.363403	
-0.362915	
-0.364197	
-0.363464	
-0.36377	
-0.363892	
-0.364319	
-0.364685	
-0.365479	
-0.365356	
-0.36554	
-0.36615	
-0.367249	
-0.366699	
-0.366089	
-0.366333	
-0.36731	
-0.367798	
-0.367432	
-0.368347	
-0.367981	
-0.36908	
-0.368408	
-0.36792	
-0.367676	
-0.368164	
-0.368347	
-0.368774	
-0.367859	
-0.36853	
-0.36731	
-0.368835	
-0.368103	
-0.368408	
-0.367249	
-0.36853	
-0.36908	
-0.369263	
-0.369141	
-0.369629	
-0.370544	
-0.370605	
-0.369812	
-0.368408	
-0.36908	
-0.369446	
-0.370361	
-0.370178	
-0.370361	
-0.370056	
-0.371094	
-0.36969	
-0.3703	
-0.369873	
-0.370605	
-0.371033	
-0.371887	
-0.370911	
-0.371826	
-0.371033	
-0.372131	
-0.371277	
-0.371216	
-0.370361	
-0.37146	
-0.371582	
-0.371582	
-0.371826	
-0.371521	
-0.371521	
-0.372803	
-0.371399	
-0.371216	
-0.371094	
-0.371216	
-0.372009	
-0.371521	
-0.37207	
-0.370544	
-0.372498	
-0.371399	
-0.371887	
-0.371094	
-0.371521	
-0.372803	
-0.372864	
-0.372009	
-0.372681	
-0.372253	
-0.373901	
-0.371704	
-0.371643	
-0.369385	
-0.371643	
-0.372375	
-0.371704	
-0.371887	
-0.371521	
-0.372375	
-0.373962	
-0.371704	
-0.371826	
-0.371338	
-0.372253	
-0.372864	
-0.372314	
-0.372925	
-0.372131	
-0.373535	
-0.373169	
-0.373047	
-0.373108	
-0.373474	
-0.373535	
-0.374634	
-0.374023	
-0.374878	
-0.37323	
-0.375671	
-0.373779	
-0.374939	
-0.374207	
-0.375732	
-0.376343	
-0.376831	
-0.376404	
-0.377014	
-0.377014	
-0.378601	
-0.376465	
-0.376343	
-0.376099	
-0.37738	
-0.377258	
-0.377502	
-0.377441	
-0.37738	
-0.37793	
-0.378296	
-0.37793	
-0.377808	
-0.377075	
-0.378235	
-0.378845	
-0.378479	
-0.37854	
-0.377625	
-0.379272	
-0.377991	
-0.378174	
-0.37616	
-0.378601	
-0.378296	
-0.379395	
-0.378479	
-0.379517	
-0.37915	
-0.379761	
-0.378906	
-0.378784	
-0.378601	
-0.379089	
-0.379089	
-0.378662	
-0.379211	
-0.379028	
-0.379578	
-0.379272	
-0.378906	
-0.377563	
-0.377808	
-0.378845	
-0.378784	
-0.378601	
-0.379272	
-0.378113	
-0.379517	
-0.37793	
-0.378479	
-0.377991	
-0.378784	
-0.378784	
-0.379517	
-0.378723	
-0.378784	
-0.378906	
-0.379089	
-0.378418	
-0.377869	
-0.378113	
-0.378052	
-0.37854	
-0.378052	
-0.378113	
-0.37793	
-0.379028	
-0.378235	
-0.377563	
-0.37677	
-0.376648	
-0.377625	
-0.377991	
-0.377747	
-0.37854	
-0.377258	
-0.377686	
-0.377747	
-0.377319	
-0.376953	
-0.377502	
-0.37738	
-0.377625	
-0.377808	
-0.377075	
-0.377502	
-0.378296	
-0.377502	
-0.376282	
-0.376099	
-0.377258	
-0.37738	
-0.37738	
-0.377502	
-0.377136	
-0.378479	
-0.377747	
-0.377747	
-0.377258	
-0.376587	
-0.377808	
-0.378601	
-0.378052	
-0.378357	
-0.377625	
-0.377991	
-0.378235	
-0.378113	
-0.378235	
-0.378784	
-0.379028	
-0.379089	
-0.378845	
-0.378784	
-0.379761	
-0.379395	
-0.379272	
-0.378113	
-0.378357	
-0.379395	
-0.379944	
-0.380188	
-0.380249	
-0.380066	
-0.380249	
-0.380737	
-0.380066	
-0.379883	
-0.379211	
-0.38031	
-0.381348	
-0.380859	
-0.381287	
-0.380493	
-0.381348	
-0.381531	
-0.380615	
-0.38147	
-0.381653	
-0.381531	
-0.382019	
-0.381897	
-0.381958	
-0.382568	
-0.382141	
-0.382263	
-0.380676	
-0.381836	
-0.382141	
-0.382629	
-0.382446	
-0.383423	
-0.38269	
-0.383179	
-0.383911	
-0.382813	
-0.383057	
-0.382385	
-0.383484	
-0.38446	
-0.383484	
-0.384094	
-0.383667	
-0.384155	
-0.384949	
-0.383972	
-0.384644	
-0.384583	
-0.384583	
-0.385193	
-0.384827	
-0.384521	
-0.384583	
-0.383972	
-0.383179	
-0.382202	
-0.381836	
-0.38269	
-0.382935	
-0.382202	
-0.383362	
-0.381897	
-0.382446	
-0.382568	
-0.381287	
-0.381165	
-0.380676	
-0.380981	
-0.381531	
-0.380737	
-0.380737	
-0.379883	
-0.380615	
-0.381104	
-0.380127	
-0.380249	
-0.378784	
-0.380127	
-0.380737	
-0.380371	
-0.379883	
-0.380188	
-0.379395	
-0.379822	
-0.378601	
-0.37915	
-0.379517	
-0.3797	
-0.380127	
-0.380249	
-0.379272	
-0.379822	
-0.380371	
-0.379089	
-0.37915	
-0.377869	
-0.378967	
-0.379395	
-0.379333	
-0.379395	
-0.379272	
-0.379578	
-0.380249	
-0.378784	
-0.379028	
-0.378296	
-0.379211	
-0.380005	
-0.380554	
-0.3797	
-0.380615	
-0.379883	
-0.381165	
-0.380066	
-0.380554	
-0.381104	
-0.381348	
-0.382141	
-0.382019	
-0.381104	
-0.380127	
-0.381714	
-0.381042	
-0.380798	
-0.379517	
-0.381226	
-0.381592	
-0.382568	
-0.38147	
-0.381592	
-0.381592	
-0.382385	
-0.381592	
-0.381958	
-0.381653	
-0.382568	
-0.382446	
-0.382935	
-0.382202	
-0.383118	
-0.38208	
-0.383484	
-0.382385	
-0.382446	
-0.382629	
-0.383301	
-0.383606	
-0.384338	
-0.383423	
-0.383728	
-0.383606	
-0.383545	
-0.383545	
-0.382507	
-0.383667	
-0.383789	
-0.384583	
-0.384277	
-0.384277	
-0.382996	
-0.384155	
-0.383789	
-0.38385	
-0.38385	
-0.384216	
-0.384338	
-0.385376	
-0.384644	
-0.385498	
-0.384583	
-0.385864	
-0.384766	
-0.38446	
-0.384827	
-0.38501	
-0.385742	
-0.38623	
-0.385864	
-0.386353	
-0.38562	
-0.385498	
-0.38501	
-0.385132	
-0.385315	
-0.384583	
-0.385193	
-0.385864	
-0.384888	
-0.384766	
-0.384521	
-0.384399	
-0.383728	
-0.384094	
-0.383911	
-0.38385	
-0.38501	
-0.383545	
-0.383728	
-0.383301	
-0.383789	
-0.383057	
-0.382324	
-0.382385	
-0.382751	
-0.383118	
-0.384033	
-0.382813	
-0.383484	
-0.381653	
-0.383179	
-0.381531	
-0.38208	
-0.381531	
-0.381836	
-0.382141	
-0.382996	
-0.382202	
-0.381958	
-0.380859	
-0.381592	
-0.380066	
-0.38147	
-0.381104	
-0.381287	
-0.381714	
-0.381653	
-0.381592	
-0.380798	
-0.381165	
-0.380249	
-0.380981	
-0.380981	
-0.380859	
-0.380981	
-0.381287	
-0.381042	
-0.381592	
-0.380493	
-0.381348	
-0.379272	
-0.380798	
-0.379883	
-0.38092	
-0.381042	
-0.382385	
-0.381653	
-0.382874	
-0.3797	
-0.38208	
-0.380859	
-0.381775	
-0.380798	
-0.38147	
-0.381775	
-0.383179	
-0.382629	
-0.381836	
-0.382141	
-0.381836	
-0.38269	
-0.382324	
-0.382813	
-0.382813	
-0.382874	
-0.382874	
-0.383057	
-0.382324	
-0.382874	
-0.38208	
-0.38324	
-0.383057	
-0.383301	
-0.38324	
-0.384155	
-0.383789	
-0.384705	
-0.383179	
-0.384033	
-0.383606	
-0.384155	
-0.383362	
-0.384338	
-0.384155	
-0.386169	
-0.385071	
-0.385803	
-0.382935	
-0.385376	
-0.384277	
-0.384766	
-0.38501	
-0.385376	
-0.385071	
-0.386414	
-0.385681	
-0.385742	
-0.385376	
-0.384705	
-0.385498	
-0.385681	
-0.386169	
-0.386414	
-0.386475	
-0.386353	
-0.387268	
-0.385864	
-0.386719	
-0.385376	
-0.386169	
-0.385193	
-0.386047	
-0.38562	
-0.38678	
-0.385559	
-0.38623	
-0.384277	
-0.385681	
-0.385254	
-0.385254	
-0.385498	
-0.384766	
-0.385193	
-0.386475	
-0.385132	
-0.38562	
-0.383667	
-0.384399	
-0.383606	
-0.384155	
-0.384216	
-0.384094	
-0.384521	
-0.384827	
-0.384705	
-0.384521	
-0.383972	
-0.382751	
-0.383179	
-0.382935	
-0.383423	
-0.383606	
-0.383911	
-0.383484	
-0.383911	
-0.382629	
-0.383789	
-0.383057	
-0.382874	
-0.382019	
-0.38269	
-0.382751	
-0.383606	
-0.382996	
-0.382507	
-0.381531	
-0.382813	
-0.382019	
-0.382141	
-0.382385	
-0.38208	
-0.382141	
-0.38385	
-0.382629	
-0.382141	
-0.380859	
-0.380615	
-0.381042	
-0.381409	
-0.381531	
-0.381531	
-0.381653	
-0.381226	
-0.381592	
-0.381653	
-0.38147	
-0.380432	
-0.379272	
-0.379639	
-0.380493	
-0.380676	
-0.380188	
-0.380371	
-0.380676	
-0.380432	
-0.381042	
-0.380432	
-0.380737	
-0.381042	
-0.381714	
-0.381897	
-0.383301	
-0.382751	
-0.382324	
-0.380493	
-0.382019	
-0.382446	
-0.38269	
-0.382996	
-0.383301	
-0.383606	
-0.38501	
-0.384888	
-0.384216	
-0.384277	
-0.383911	
-0.384094	
-0.384216	
-0.384644	
-0.385132	
-0.385254	
-0.385376	
-0.38501	
-0.385559	
-0.385681	
-0.38501	
-0.384705	
-0.384094	
-0.385559	
-0.385559	
-0.386108	
-0.385559	
-0.385559	
-0.385559	
-0.385864	
-0.385742	
-0.38623	
-0.385986	
-0.385986	
-0.38623	
-0.387939	
-0.387085	
-0.386292	
-0.384399	
-0.385742	
-0.386475	
-0.385864	
-0.386536	
-0.386475	
-0.386597	
-0.387451	
-0.386902	
-0.385986	
-0.385742	
-0.385437	
-0.384644	
-0.384766	
-0.384949	
-0.384949	
-0.385437	
-0.384949	
-0.384583	
-0.385071	
-0.385071	
-0.385071	
-0.383911	
-0.384033	
-0.384705	
-0.384644	
-0.385803	
-0.384888	
-0.384277	
-0.383728	
-0.385254	
-0.384277	
-0.383728	
-0.383667	
-0.383789	
-0.383789	
-0.385437	
-0.384094	
-0.383545	
-0.382507	
-0.382874	
-0.382996	
-0.383179	
-0.382874	
-0.382813	
-0.383057	
-0.383789	
-0.382935	
-0.382629	
-0.382385	
-0.381714	
-0.38208	
-0.382019	
-0.382629	
-0.382751	
-0.382751	
-0.382141	
-0.382446	
-0.382629	
-0.382813	
-0.381897	
-0.380676	
-0.381714	
-0.381714	
-0.38208	
-0.382935	
-0.382019	
-0.38208	
-0.381287	
-0.381409	
-0.381042	
-0.381165	
-0.381226	
-0.380981	
-0.381226	
-0.381836	
-0.380615	
-0.380554	
-0.379761	
-0.379517	
-0.380005	
-0.380676	
-0.380859	
-0.380981	
-0.381287	
-0.382385	
-0.382141	
-0.381226	
-0.380493	
-0.380676	
-0.381104	
-0.381042	
-0.381714	
-0.381775	
-0.382019	
-0.382874	
-0.382874	
-0.382751	
-0.383362	
-0.382385	
-0.381958	
-0.382263	
-0.382813	
-0.383118	
-0.384155	
-0.383728	
-0.38324	
-0.382568	
-0.383667	
-0.383484	
-0.383728	
-0.383789	
-0.384033	
-0.384277	
-0.385193	
-0.384644	
-0.384033	
-0.384033	
-0.383911	
-0.384338	
-0.384521	
-0.384277	
-0.384705	
-0.384521	
-0.385559	
-0.385803	
-0.385132	
-0.384766	
-0.384827	
-0.383972	
-0.384644	
-0.385315	
-0.385132	
-0.385376	
-0.386658	
-0.385254	
-0.385803	
-0.38562	
-0.384949	
-0.385376	
-0.384644	
-0.38562	
-0.385681	
-0.38623	
-0.385803	
-0.38501	
-0.384033	
-0.385376	
-0.384644	
-0.384827	
-0.385254	
-0.385315	
-0.384521	
-0.38562	
-0.385071	
-0.385193	
-0.384155	
-0.383606	
-0.384094	
-0.38385	
-0.384155	
-0.383911	
-0.383911	
-0.384521	
-0.384583	
-0.384521	
-0.383667	
-0.382935	
-0.38269	
-0.383301	
-0.383362	
-0.383301	
-0.383728	
-0.38385	
-0.382996	
-0.383362	
-0.381897	
-0.382874	
-0.381592	
-0.381897	
-0.382507	
-0.382446	
-0.382751	
-0.38324	
-0.382263	
-0.381348	
-0.381653	
-0.381653	
-0.381592	
-0.38092	
-0.38147	
-0.381714	
-0.382568	
-0.382751	
-0.381409	
-0.380005	
-0.380554	
-0.380615	
-0.381104	
-0.380371	
-0.380615	
-0.380737	
-0.380737	
-0.381409	
-0.380737	
-0.380615	
-0.380798	
-0.380005	
-0.380005	
-0.380432	
-0.38092	
-0.381226	
-0.381409	
-0.380859	
-0.381104	
-0.380798	
-0.380859	
-0.380188	
-0.381042	
-0.380981	
-0.381104	
-0.381653	
-0.382446	
-0.381409	
-0.381409	
-0.380859	
-0.381409	
-0.381287	
-0.381531	
-0.382202	
-0.381958	
-0.382935	
-0.38385	
-0.382019	
-0.382263	
-0.381958	
-0.382263	
-0.382751	
-0.381958	
-0.382568	
-0.382446	
-0.383362	
-0.383789	
-0.382874	
-0.38269	
-0.383972	
-0.383118	
-0.383118	
-0.382629	
-0.383667	
-0.383972	
-0.383972	
-0.38385	
-0.383667	
-0.383545	
-0.384094	
-0.38385	
-0.383667	
-0.383667	
-0.384216	
-0.385437	
-0.384644	
-0.384521	
-0.384216	
-0.383423	
-0.38446	
-0.383301	
-0.384338	
-0.384949	
-0.385437	
-0.38623	
-0.386353	
-0.384888	
-0.38623	
-0.384338	
-0.385498	
-0.384766	
-0.38562	
-0.386353	
-0.386292	
-0.386841	
-0.386475	
-0.386169	
-0.386902	
-0.386169	
-0.385925	
-0.385498	
-0.385193	
-0.385315	
-0.385071	
-0.385132	
-0.384827	
-0.38446	
-0.384033	
-0.384827	
-0.383667	
-0.38385	
-0.382629	
-0.382996	
-0.383301	
-0.383545	
-0.382629	
-0.382507	
-0.381287	
-0.382629	
-0.381836	
-0.382019	
-0.382019	
-0.38208	
-0.382751	
-0.382996	
-0.381531	
-0.380493	
-0.380676	
-0.381409	
-0.380615	
-0.381042	
-0.380859	
-0.381409	
-0.381958	
-0.381775	
-0.380554	
-0.381165	
-0.380737	
-0.381042	
-0.379517	
-0.380188	
-0.380676	
-0.380798	
-0.380798	
-0.380371	
-0.379944	
-0.38031	
-0.381104	
-0.380188	
-0.378845	
-0.378967	
-0.3797	
-0.380005	
-0.38092	
-0.380432	
-0.3797	
-0.380798	
-0.381409	
-0.380981	
-0.380981	
-0.381165	
-0.381775	
-0.382629	
-0.382629	
-0.38147	
-0.380737	
-0.380981	
-0.381592	
-0.38147	
-0.381287	
-0.381958	
-0.381531	
-0.382446	
-0.382263	
-0.381348	
-0.38092	
-0.382324	
-0.382324	
-0.381897	
-0.381897	
-0.382813	
-0.382874	
-0.383606	
-0.382446	
-0.382568	
-0.382263	
-0.383057	
-0.382935	
-0.38208	
-0.382813	
-0.383179	
-0.383179	
-0.38446	
-0.383484	
-0.383362	
-0.383362	
-0.384644	
-0.383423	
-0.383057	
-0.382629	
-0.383606	
-0.38446	
-0.384338	
-0.383667	
-0.383484	
-0.384277	
-0.384644	
-0.383911	
-0.383728	
-0.384033	
-0.384399	
-0.385803	
-0.384521	
-0.38446	
-0.383057	
-0.385193	
-0.385193	
-0.384705	
-0.385132	
-0.385193	
-0.385254	
-0.387573	
-0.385254	
-0.38562	
-0.384277	
-0.385925	
-0.385986	
-0.385376	
-0.385254	
-0.385437	
-0.385925	
-0.387207	
-0.385071	
-0.384338	
-0.384277	
-0.385071	
-0.384888	
-0.384583	
-0.384277	
-0.384521	
-0.384949	
-0.384583	
-0.384277	
-0.383484	
-0.384399	
-0.384094	
-0.383179	
-0.38269	
-0.382507	
-0.383667	
-0.384338	
-0.383057	
-0.382751	
-0.38208	
-0.383789	
-0.383423	
-0.382202	
-0.381226	
-0.380798	
-0.382141	
-0.383911	
-0.38208	
-0.381897	
-0.378967	
-0.382507	
-0.382446	
-0.381775	
-0.381348	
-0.381348	
-0.381714	
-0.383606	
-0.380981	
-0.380615	
-0.380188	
-0.381287	
-0.380615	
-0.380676	
-0.380554	
-0.38092	
-0.380981	
-0.380676	
-0.380737	
-0.380127	
-0.380859	
-0.38092	
-0.380737	
-0.380554	
-0.380432	
-0.380737	
-0.381226	
-0.380676	
-0.380493	
-0.3797	
-0.381348	
-0.380981	
-0.38092	
-0.380127	
-0.380676	
-0.381042	
-0.383179	
-0.381287	
-0.380554	
-0.378601	
-0.382019	
-0.381958	
-0.381653	
-0.380493	
-0.38092	
-0.382263	
-0.383606	
-0.382141	
-0.381531	
-0.382202	
-0.382385	
-0.382935	
-0.382263	
-0.382385	
-0.381958	
-0.382813	
-0.382629	
-0.382446	
-0.382263	
-0.383057	
-0.383118	
-0.38324	
-0.382996	
-0.383057	
-0.383545	
-0.384338	
-0.38385	
-0.383789	
-0.382935	
-0.384155	
-0.38446	
-0.384277	
-0.383911	
-0.383911	
-0.384216	
-0.386963	
-0.384338	
-0.384094	
-0.381348	
-0.384705	
-0.385132	
-0.384338	
-0.383911	
-0.384216	
-0.385132	
-0.387024	
-0.384827	
-0.385193	
-0.384583	
-0.386353	
-0.386353	
-0.385559	
-0.384338	
-0.384644	
-0.385742	
-0.385742	
-0.384949	
-0.384155	
-0.384705	
-0.386047	
-0.385132	
-0.385071	
-0.383789	
-0.384521	
-0.385803	
-0.384705	
-0.384155	
-0.383423	
-0.384155	
-0.384827	
-0.38385	
-0.38385	
-0.38324	
-0.384094	
-0.385681	
-0.383423	
-0.383301	
-0.38092	
-0.38385	
-0.383606	
-0.382996	
-0.382629	
-0.382874	
-0.38324	
-0.384949	
-0.382751	
-0.382568	
-0.38092	
-0.382996	
-0.383301	
-0.382629	
-0.382202	
-0.380676	
-0.382324	
-0.382996	
-0.381592	
-0.381165	
-0.381714	
-0.38208	
-0.382141	
-0.381409	
-0.381104	
-0.381592	
-0.382446	
-0.381592	
-0.38092	
-0.379761	
-0.381104	
-0.381836	
-0.380798	
-0.380798	
-0.379944	
-0.38092	
-0.381592	
-0.380432	
-0.380676	
-0.379333	
-0.380127	
-0.38092	
-0.379761	
-0.379761	
-0.378662	
-0.3797	
-0.380371	
-0.379211	
-0.379089	
-0.377991	
-0.379089	
-0.380127	
-0.379944	
-0.379456	
-0.379089	
-0.380066	
-0.381897	
-0.38031	
-0.38031	
-0.379089	
-0.381409	
-0.382385	
-0.381592	
-0.381409	
-0.381287	
-0.382446	
-0.383789	
-0.382202	
-0.381653	
-0.381409	
-0.382935	
-0.383423	
-0.38324	
-0.382996	
-0.383362	
-0.384521	
-0.384094	
-0.383545	
-0.382629	
-0.383728	
-0.384521	
-0.384216	
-0.384033	
-0.383484	
-0.383911	
-0.384949	
-0.384033	
-0.384399	
-0.383972	
-0.384583	
-0.385437	
-0.384644	
-0.384644	
-0.383484	
-0.385071	
-0.386108	
-0.384705	
-0.384644	
-0.383667	
-0.385071	
-0.38678	
-0.384888	
-0.385315	
-0.382996	
-0.385498	
-0.386414	
-0.385071	
-0.384766	
-0.383545	
-0.385254	
-0.385986	
-0.384583	
-0.384399	
-0.383423	
-0.385071	
-0.384705	
-0.383484	
-0.381836	
-0.382813	
-0.383728	
-0.383728	
-0.38324	
-0.383484	
-0.384033	
-0.38501	
-0.383789	
-0.383667	
-0.382813	
-0.38324	
-0.383728	
-0.383362	
-0.383179	
-0.38269	
-0.383179	
-0.383362	
-0.382629	
-0.382202	
-0.381653	
-0.382568	
-0.382568	
-0.382568	
-0.382263	
-0.382141	
-0.382568	
-0.38269	
-0.381409	
-0.380981	
-0.380554	
-0.381348	
-0.382019	
-0.381653	
-0.381104	
-0.380249	
-0.381775	
-0.382751	
-0.381042	
-0.380005	
-0.379822	
-0.380798	
-0.382324	
-0.380676	
-0.380554	
-0.380432	
-0.381897	
-0.382263	
-0.380615	
-0.379761	
-0.379517	
-0.380554	
-0.381165	
-0.380127	
-0.379639	
-0.379028	
-0.380188	
-0.380249	
-0.37915	
-0.379456	
-0.379211	
-0.379578	
-0.380066	
-0.37915	
-0.378662	
-0.378357	
-0.380249	
-0.379822	
-0.379333	
-0.379272	
-0.379822	
-0.380798	
-0.380737	
-0.379883	
-0.379456	
-0.381042	
-0.381775	
-0.38031	
-0.380371	
-0.379333	
-0.381592	
-0.382385	
-0.381104	
-0.381348	
-0.380249	
-0.382446	
-0.382751	
-0.381042	
-0.380859	
-0.38031	
-0.382324	
-0.383179	
-0.382568	
-0.382385	
-0.381653	
-0.383911	
-0.383667	
-0.38269	
-0.382202	
-0.382813	
-0.382996	
-0.383362	
-0.382874	
-0.382874	
-0.382935	
-0.38385	
-0.383484	
-0.383179	
-0.382813	
-0.383484	
-0.383972	
-0.384766	
-0.384033	
-0.383545	
-0.383789	
-0.384277	
-0.383728	
-0.383728	
-0.383606	
-0.384094	
-0.384399	
-0.384338	
-0.384216	
-0.38385	
-0.385193	
-0.385071	
-0.384277	
-0.382996	
-0.382813	
-0.383972	
-0.38446	
	
