C:\DOCUMENTS AND SETTINGS\JASON\DESKTOP\UFRJ\UFRJ EPHYS\RSCI-BM 12 WK SERIES\070806-RSCI-BM-16\RSCI-BM-16-REMG\070806-RSCI-BM-16-REMG-0005.ACQ
0.025000 msec/sample
1 channel
Analog input
Volts
CH1	
2000	
-0.38031	
-0.379089	
-0.377869	
-0.377319	
-0.3797	
-0.378845	
-0.379517	
-0.377869	
-0.378906	
-0.379211	
-0.3797	
-0.378662	
-0.37854	
-0.377991	
-0.38031	
-0.379089	
-0.379944	
-0.378845	
-0.379761	
-0.380005	
-0.380493	
-0.379883	
-0.378296	
-0.378052	
-0.379944	
-0.379333	
-0.3797	
-0.377869	
-0.378784	
-0.378845	
-0.380554	
-0.378784	
-0.377625	
-0.37738	
-0.378906	
-0.379089	
-0.379028	
-0.377563	
-0.378418	
-0.378296	
-0.379639	
-0.378113	
-0.376892	
-0.376831	
-0.378906	
-0.378174	
-0.378357	
-0.376831	
-0.377197	
-0.376953	
-0.378357	
-0.376648	
-0.375549	
-0.375061	
-0.37677	
-0.376038	
-0.376404	
-0.375427	
-0.375305	
-0.375671	
-0.376892	
-0.375061	
-0.374268	
-0.374146	
-0.376038	
-0.375488	
-0.376282	
-0.375671	
-0.375916	
-0.376953	
-0.377502	
-0.37616	
-0.375671	
-0.375671	
-0.377075	
-0.37677	
-0.377686	
-0.376709	
-0.377014	
-0.377869	
-0.378296	
-0.377625	
-0.376099	
-0.377197	
-0.378052	
-0.377747	
-0.377991	
-0.37793	
-0.377869	
-0.378601	
-0.379211	
-0.377808	
-0.377136	
-0.377136	
-0.378723	
-0.378601	
-0.378601	
-0.378784	
-0.378601	
-0.379456	
-0.379883	
-0.378784	
-0.378479	
-0.378052	
-0.379211	
-0.379333	
-0.37854	
-0.379333	
-0.379089	
-0.380005	
-0.380005	
-0.379089	
-0.378784	
-0.378906	
-0.379578	
-0.379333	
-0.379028	
-0.379028	
-0.378967	
-0.379333	
-0.379272	
-0.378784	
-0.379028	
-0.378479	
-0.379456	
-0.379578	
-0.379028	
-0.379456	
-0.379578	
-0.380371	
-0.380859	
-0.380127	
-0.38031	
-0.379639	
-0.380615	
-0.380737	
-0.380615	
-0.380493	
-0.380737	
-0.381104	
-0.381348	
-0.380432	
-0.380127	
-0.379822	
-0.381226	
-0.381042	
-0.380737	
-0.38031	
-0.380432	
-0.380432	
-0.380798	
-0.379883	
-0.379883	
-0.3797	
-0.380676	
-0.380432	
-0.38031	
-0.380249	
-0.380432	
-0.380371	
-0.38092	
-0.379456	
-0.37915	
-0.378235	
-0.379639	
-0.379211	
-0.378113	
-0.378784	
-0.378296	
-0.378601	
-0.3797	
-0.377563	
-0.377747	
-0.377258	
-0.378906	
-0.378296	
-0.377747	
-0.378052	
-0.37793	
-0.378479	
-0.378296	
-0.377686	
-0.37793	
-0.377441	
-0.378906	
-0.378845	
-0.379089	
-0.379517	
-0.379089	
-0.379517	
-0.379944	
-0.379456	
-0.379089	
-0.378357	
-0.380127	
-0.380066	
-0.379578	
-0.371277	
-0.365784	
-0.365601	
-0.365601	
-0.364929	
-0.364746	
-0.372925	
-0.379211	
-0.38092	
-0.379761	
-0.379761	
-0.3797	
-0.380493	
-0.38031	
-0.378662	
-0.378662	
-0.379822	
-0.379883	
-0.380554	
-0.379578	
-0.379761	
-0.379639	
-0.380554	
-0.380554	
-0.370972	
-0.365234	
-0.365723	
-0.366211	
-0.366455	
-0.365356	
-0.374268	
-0.3797	
-0.381226	
-0.380127	
-0.378418	
-0.378845	
-0.379395	
-0.379211	
-0.379333	
-0.378967	
-0.379028	
-0.379517	
-0.380188	
-0.379089	
-0.378296	
-0.378235	
-0.379517	
-0.379456	
-0.38031	
-0.379761	
-0.379822	
-0.380371	
-0.380798	
-0.379883	
-0.379456	
-0.379395	
-0.381287	
-0.38147	
-0.381897	
-0.380981	
-0.381348	
-0.381775	
-0.382507	
-0.381409	
-0.379944	
-0.380249	
-0.381897	
-0.381409	
-0.382507	
-0.381348	
-0.38147	
-0.381897	
-0.382935	
-0.382141	
-0.381104	
-0.381165	
-0.383057	
-0.382568	
-0.383423	
-0.381958	
-0.382263	
-0.383057	
-0.383911	
-0.382568	
-0.380859	
-0.381348	
-0.382507	
-0.382263	
-0.382385	
-0.381714	
-0.382263	
-0.383118	
-0.383789	
-0.38269	
-0.382446	
-0.383545	
-0.384888	
-0.385315	
-0.386108	
-0.386414	
-0.387939	
-0.389038	
-0.390869	
-0.390747	
-0.391846	
-0.392273	
-0.395569	
-0.396179	
-0.397522	
-0.39801	
-0.400574	
-0.402954	
-0.405151	
-0.406799	
-0.40863	
-0.410645	
-0.412231	
-0.414001	
-0.415283	
-0.416504	
-0.417114	
-0.420349	
-0.4198	
-0.419739	
-0.419556	
-0.421936	
-0.422058	
-0.42218	
-0.421082	
-0.420593	
-0.420593	
-0.420471	
-0.419739	
-0.418884	
-0.419312	
-0.421265	
-0.421997	
-0.422607	
-0.424561	
-0.427185	
-0.429871	
-0.431519	
-0.433044	
-0.433899	
-0.436951	
-0.43866	
-0.440796	
-0.441284	
-0.443237	
-0.444275	
-0.44635	
-0.446167	
-0.446899	
-0.447571	
-0.449036	
-0.449402	
-0.450195	
-0.44928	
-0.449158	
-0.449036	
-0.448792	
-0.447327	
-0.445435	
-0.444885	
-0.444885	
-0.44281	
-0.441772	
-0.439209	
-0.438171	
-0.436768	
-0.436157	
-0.434387	
-0.431946	
-0.43158	
-0.431824	
-0.430359	
-0.43042	
-0.428284	
-0.427979	
-0.42688	
-0.427063	
-0.42627	
-0.4245	
-0.424622	
-0.426147	
-0.426147	
-0.427063	
-0.426331	
-0.426941	
-0.426331	
-0.426147	
-0.424866	
-0.422363	
-0.421143	
-0.420837	
-0.419128	
-0.417542	
-0.41394	
-0.411133	
-0.409058	
-0.405396	
-0.400513	
-0.395813	
-0.392029	
-0.390015	
-0.386047	
-0.382813	
-0.379028	
-0.376648	
-0.375244	
-0.37262	
-0.369141	
-0.366272	
-0.36438	
-0.364624	
-0.363159	
-0.361328	
-0.359619	
-0.358215	
-0.358521	
-0.357422	
-0.355713	
-0.354004	
-0.35376	
-0.35376	
-0.352173	
-0.351135	
-0.348694	
-0.348572	
-0.348206	
-0.345886	
-0.344971	
-0.342896	
-0.343445	
-0.343079	
-0.342041	
-0.341309	
-0.340515	
-0.340637	
-0.34082	
-0.339783	
-0.339783	
-0.339783	
-0.340637	
-0.341064	
-0.342346	
-0.341919	
-0.342346	
-0.344055	
-0.34436	
-0.344604	
-0.343628	
-0.344666	
-0.346619	
-0.346741	
-0.347229	
-0.347412	
-0.348389	
-0.349792	
-0.349731	
-0.349792	
-0.349487	
-0.350769	
-0.352478	
-0.352661	
-0.352539	
-0.352173	
-0.352539	
-0.354614	
-0.353394	
-0.353149	
-0.353027	
-0.35437	
-0.354126	
-0.355164	
-0.353943	
-0.354065	
-0.355103	
-0.355408	
-0.354919	
-0.353699	
-0.355042	
-0.35675	
-0.356079	
-0.356323	
-0.355286	
-0.356567	
-0.357666	
-0.356628	
-0.356628	
-0.356018	
-0.356873	
-0.356567	
-0.3573	
-0.356567	
-0.356445	
-0.356628	
-0.358093	
-0.357361	
-0.3573	
-0.356873	
-0.359131	
-0.35907	
-0.359924	
-0.359131	
-0.360046	
-0.361206	
-0.360962	
-0.36084	
-0.359924	
-0.361694	
-0.362976	
-0.362549	
-0.362244	
-0.361877	
-0.363037	
-0.364075	
-0.363403	
-0.36322	
-0.363342	
-0.364319	
-0.363586	
-0.364624	
-0.363586	
-0.364319	
-0.363342	
-0.365906	
-0.364685	
-0.364563	
-0.363586	
-0.365601	
-0.365479	
-0.36615	
-0.36554	
-0.36615	
-0.36731	
-0.367065	
-0.367249	
-0.365906	
-0.367554	
-0.368591	
-0.368225	
-0.367798	
-0.367249	
-0.368835	
-0.369385	
-0.368958	
-0.368713	
-0.368469	
-0.369202	
-0.369629	
-0.369629	
-0.368835	
-0.368103	
-0.36853	
-0.369873	
-0.369202	
-0.369141	
-0.368835	
-0.369568	
-0.370056	
-0.370728	
-0.369812	
-0.369873	
-0.369019	
-0.37207	
-0.370544	
-0.370728	
-0.370178	
-0.371887	
-0.372314	
-0.372742	
-0.372375	
-0.372559	
-0.373108	
-0.373596	
-0.372864	
-0.372986	
-0.373291	
-0.37384	
-0.374023	
-0.373657	
-0.373657	
-0.373413	
-0.37439	
-0.37384	
-0.373718	
-0.373047	
-0.373413	
-0.374207	
-0.374146	
-0.37384	
-0.373962	
-0.373779	
-0.375916	
-0.375549	
-0.375122	
-0.37439	
-0.375305	
-0.376404	
-0.376892	
-0.376221	
-0.375427	
-0.37616	
-0.378174	
-0.377563	
-0.376892	
-0.375549	
-0.375793	
-0.377441	
-0.376709	
-0.376892	
-0.375732	
-0.377136	
-0.378113	
-0.378479	
-0.377625	
-0.377686	
-0.378174	
-0.3797	
-0.378784	
-0.378906	
-0.377686	
-0.378662	
-0.378845	
-0.37915	
-0.378418	
-0.378784	
-0.378967	
-0.3797	
-0.378845	
-0.378784	
-0.378052	
-0.379517	
-0.379822	
-0.379333	
-0.378418	
-0.378662	
-0.379028	
-0.379272	
-0.378662	
-0.377441	
-0.377869	
-0.379028	
-0.377747	
-0.376831	
-0.374939	
-0.376343	
-0.376587	
-0.375732	
-0.375427	
-0.374695	
-0.374756	
-0.376099	
-0.374268	
-0.373535	
-0.372498	
-0.373474	
-0.373779	
-0.373169	
-0.372559	
-0.372498	
-0.37262	
-0.373047	
-0.372192	
-0.37207	
-0.372253	
-0.37207	
-0.373535	
-0.372009	
-0.371826	
-0.370056	
-0.372559	
-0.372742	
-0.372864	
-0.372314	
-0.372681	
-0.373352	
-0.374329	
-0.373047	
-0.373352	
-0.373962	
-0.374939	
-0.374695	
-0.375	
-0.374329	
-0.375122	
-0.375671	
-0.375854	
-0.375793	
-0.375854	
-0.375977	
-0.377747	
-0.376282	
-0.376953	
-0.374512	
-0.376465	
-0.37677	
-0.376709	
-0.376709	
-0.375977	
-0.376587	
-0.378113	
-0.376526	
-0.377563	
-0.375366	
-0.37677	
-0.377502	
-0.376465	
-0.376404	
-0.374817	
-0.37677	
-0.377197	
-0.377014	
-0.376709	
-0.376099	
-0.376404	
-0.376831	
-0.375671	
-0.37561	
-0.374878	
-0.376404	
-0.37561	
-0.375549	
-0.375183	
-0.374817	
-0.375	
-0.374817	
-0.374329	
-0.373779	
-0.374573	
-0.374817	
-0.374451	
-0.374207	
-0.374146	
-0.374939	
-0.375183	
-0.375061	
-0.37561	
-0.375	
-0.375671	
-0.37677	
-0.376221	
-0.376526	
-0.375	
-0.376526	
-0.376648	
-0.376648	
-0.377075	
-0.376587	
-0.377075	
-0.378052	
-0.377319	
-0.377625	
-0.376038	
-0.377441	
-0.377625	
-0.377747	
-0.377319	
-0.377136	
-0.377747	
-0.379028	
-0.377869	
-0.378174	
-0.377563	
-0.378357	
-0.379272	
-0.378967	
-0.378967	
-0.378052	
-0.379089	
-0.380249	
-0.379822	
-0.379761	
-0.378967	
-0.379395	
-0.381348	
-0.3797	
-0.379944	
-0.377441	
-0.380188	
-0.380432	
-0.379517	
-0.379883	
-0.380005	
-0.380188	
-0.38092	
-0.379761	
-0.379211	
-0.378906	
-0.380798	
-0.379944	
-0.379822	
-0.379639	
-0.379883	
-0.380615	
-0.380066	
-0.380615	
-0.380676	
-0.380615	
-0.382385	
-0.381226	
-0.381531	
-0.381958	
-0.381958	
-0.381897	
-0.381409	
-0.381592	
-0.381592	
-0.382263	
-0.383057	
-0.381958	
-0.382141	
-0.381653	
-0.382202	
-0.382019	
-0.382141	
-0.381531	
-0.380676	
-0.381714	
-0.382446	
-0.381409	
-0.38147	
-0.381104	
-0.382141	
-0.382324	
-0.381836	
-0.382263	
-0.380859	
-0.382507	
-0.382019	
-0.381531	
-0.380249	
-0.381348	
-0.380981	
-0.381714	
-0.380493	
-0.380188	
-0.379272	
-0.381104	
-0.380432	
-0.380371	
-0.379639	
-0.380066	
-0.380005	
-0.380493	
-0.38031	
-0.379578	
-0.380005	
-0.380188	
-0.379761	
-0.379578	
-0.380188	
-0.380249	
-0.380676	
-0.38031	
-0.380798	
-0.381042	
-0.381104	
-0.381226	
-0.381287	
-0.380554	
-0.381714	
-0.380981	
-0.38147	
-0.38031	
-0.380798	
-0.38092	
-0.380981	
-0.381165	
-0.38092	
-0.380493	
-0.382141	
-0.38092	
-0.380981	
-0.380615	
-0.380676	
-0.380798	
-0.381409	
-0.381287	
-0.381042	
-0.380615	
-0.381409	
-0.381348	
-0.381653	
-0.382263	
-0.381775	
-0.381653	
-0.38147	
-0.381775	
-0.381897	
-0.381348	
-0.38092	
-0.381897	
-0.381836	
-0.382202	
-0.38208	
-0.380981	
-0.381348	
-0.382324	
-0.381409	
-0.381226	
-0.379761	
-0.381287	
-0.381897	
-0.381897	
-0.381287	
-0.38031	
-0.381226	
-0.382446	
-0.382324	
-0.382385	
-0.381165	
-0.382507	
-0.382446	
-0.383118	
-0.382813	
-0.382935	
-0.383057	
-0.383789	
-0.382813	
-0.384338	
-0.383728	
-0.384155	
-0.38324	
-0.384216	
-0.383911	
-0.384521	
-0.384399	
-0.384705	
-0.384338	
-0.384888	
-0.384338	
-0.384216	
-0.384155	
-0.38446	
-0.384399	
-0.385071	
-0.384583	
-0.384888	
-0.383606	
-0.384827	
-0.384888	
-0.384888	
-0.385071	
-0.385193	
-0.385132	
-0.385864	
-0.385559	
-0.384949	
-0.383911	
-0.38446	
-0.384338	
-0.384949	
-0.38446	
-0.383972	
-0.38324	
-0.384399	
-0.38446	
-0.383484	
-0.384033	
-0.384033	
-0.38385	
-0.384949	
-0.384521	
-0.38446	
-0.383362	
-0.383911	
-0.384888	
-0.383972	
-0.384705	
-0.383728	
-0.384338	
-0.384155	
-0.384644	
-0.384277	
-0.384033	
-0.38324	
-0.384705	
-0.383667	
-0.384399	
-0.382507	
-0.383728	
-0.382813	
-0.383911	
-0.382996	
-0.383179	
-0.382446	
-0.383789	
-0.38269	
-0.38324	
-0.382202	
-0.383301	
-0.383179	
-0.383972	
-0.382874	
-0.384155	
-0.38269	
-0.383911	
-0.382629	
-0.383667	
-0.382996	
-0.383423	
-0.383606	
-0.384705	
-0.383789	
-0.384521	
-0.382751	
-0.384277	
-0.383362	
-0.383423	
-0.38269	
-0.38324	
-0.383667	
-0.384033	
-0.38385	
-0.383545	
-0.382202	
-0.383972	
-0.38324	
-0.382507	
-0.382141	
-0.38269	
-0.382874	
-0.382568	
-0.38269	
-0.382507	
-0.382996	
-0.383118	
-0.383179	
-0.382874	
-0.382751	
-0.382568	
-0.383118	
-0.383301	
-0.38324	
-0.383057	
-0.383911	
-0.383606	
-0.384521	
-0.383606	
-0.383972	
-0.383667	
-0.384216	
-0.383667	
-0.383606	
-0.383972	
-0.384766	
-0.384277	
-0.385681	
-0.384583	
-0.385498	
-0.385071	
-0.386047	
-0.385803	
-0.385437	
-0.386292	
-0.386719	
-0.386414	
-0.387817	
-0.38678	
-0.387024	
-0.386963	
-0.387817	
-0.387817	
-0.387085	
-0.387573	
-0.387268	
-0.38678	
-0.387573	
-0.386475	
-0.386597	
-0.38678	
-0.386658	
-0.386169	
-0.385437	
-0.385254	
-0.385803	
-0.384827	
-0.385498	
-0.385071	
-0.384888	
-0.386169	
-0.386047	
-0.384888	
-0.384644	
-0.383423	
-0.385193	
-0.384216	
-0.384949	
-0.38446	
-0.384399	
-0.385437	
-0.385437	
-0.384521	
-0.385193	
-0.384583	
-0.38501	
-0.38446	
-0.384399	
-0.383606	
-0.383972	
-0.384766	
-0.38385	
-0.384155	
-0.383972	
-0.38385	
-0.384399	
-0.383911	
-0.38385	
-0.383118	
-0.383789	
-0.384277	
-0.383484	
-0.383728	
-0.383423	
-0.384094	
-0.384094	
-0.383789	
-0.383362	
-0.38324	
-0.384521	
-0.384155	
-0.383789	
-0.384033	
-0.383667	
-0.383972	
-0.384094	
-0.384338	
-0.383423	
-0.381836	
-0.382813	
-0.382996	
-0.382568	
-0.382263	
-0.38208	
-0.38208	
-0.382568	
-0.382507	
-0.381592	
-0.380981	
-0.380859	
-0.382141	
-0.381531	
-0.381592	
-0.38092	
-0.381165	
-0.381653	
-0.381958	
-0.381042	
-0.381165	
-0.380859	
-0.382568	
-0.38208	
-0.381897	
-0.380676	
-0.381958	
-0.381836	
-0.382385	
-0.381592	
-0.381592	
-0.38092	
-0.38269	
-0.381897	
-0.382263	
-0.381653	
-0.382874	
-0.382629	
-0.383972	
-0.383118	
-0.383606	
-0.383362	
-0.384705	
-0.383789	
-0.384155	
-0.383667	
-0.38446	
-0.383057	
-0.384949	
-0.383911	
-0.384216	
-0.383911	
-0.384094	
-0.384277	
-0.38446	
-0.384155	
-0.384277	
-0.383179	
-0.384705	
-0.382751	
-0.383423	
-0.383362	
-0.383118	
-0.383179	
-0.382935	
-0.382751	
-0.383118	
-0.381897	
-0.383301	
-0.382202	
-0.382507	
-0.383362	
-0.38324	
-0.383118	
-0.382751	
-0.382874	
-0.383057	
-0.382629	
-0.383606	
-0.38208	
-0.382813	
-0.384583	
-0.38324	
-0.382996	
-0.38208	
-0.38324	
-0.383789	
-0.383057	
-0.382935	
-0.381958	
-0.382751	
-0.384216	
-0.382751	
-0.382568	
-0.38147	
-0.383057	
-0.383545	
-0.383301	
-0.382813	
-0.383545	
-0.383423	
-0.384766	
-0.383179	
-0.383484	
-0.382202	
-0.383911	
-0.38385	
-0.383911	
-0.383972	
-0.383972	
-0.384033	
-0.385742	
-0.383789	
-0.384033	
-0.382202	
-0.383789	
-0.383911	
-0.384155	
-0.383667	
-0.383301	
-0.383362	
-0.384644	
-0.383179	
-0.38324	
-0.382141	
-0.382874	
-0.382385	
-0.382202	
-0.38147	
-0.381714	
-0.381714	
-0.382446	
-0.381287	
-0.381287	
-0.38147	
-0.382202	
-0.381287	
-0.381531	
-0.380249	
-0.381226	
-0.381409	
-0.381958	
-0.38092	
-0.380554	
-0.380676	
-0.381226	
-0.380554	
-0.380737	
-0.379761	
-0.380554	
-0.380127	
-0.380737	
-0.380615	
-0.380737	
-0.381287	
-0.381592	
-0.380981	
-0.381409	
-0.380005	
-0.381348	
-0.381409	
-0.381409	
-0.381409	
-0.380798	
-0.381409	
-0.382202	
-0.381165	
-0.381531	
-0.381409	
-0.381409	
-0.381531	
-0.381592	
-0.381409	
-0.381531	
-0.381897	
-0.381775	
-0.381042	
-0.38208	
-0.381897	
-0.381348	
-0.382141	
-0.381714	
-0.381409	
-0.381409	
-0.382263	
-0.38208	
-0.381653	
-0.382996	
-0.382568	
-0.382202	
-0.382751	
-0.382385	
-0.382568	
-0.381226	
-0.382446	
-0.382996	
-0.38147	
-0.382568	
-0.381714	
-0.382263	
-0.382568	
-0.38208	
-0.381836	
-0.380249	
-0.382263	
-0.381958	
-0.380737	
-0.382324	
-0.381287	
-0.381897	
-0.382263	
-0.381653	
-0.381592	
-0.380676	
-0.382446	
-0.381531	
-0.38092	
-0.382019	
-0.381897	
-0.381775	
-0.382141	
-0.382202	
-0.381958	
-0.38269	
-0.382935	
-0.382019	
-0.381592	
-0.382324	
-0.382446	
-0.382813	
-0.382263	
-0.382263	
-0.382324	
-0.383118	
-0.382568	
-0.382019	
-0.382019	
-0.381897	
-0.381897	
-0.381836	
-0.381531	
-0.381653	
-0.381714	
-0.381714	
-0.382385	
-0.38147	
-0.381104	
-0.381042	
-0.381042	
-0.381287	
-0.381226	
-0.380859	
-0.380493	
-0.380676	
-0.381653	
-0.380188	
-0.380127	
-0.379456	
-0.379883	
-0.379944	
-0.379333	
-0.379211	
-0.378723	
-0.378784	
-0.379761	
-0.37793	
-0.378723	
-0.377991	
-0.378357	
-0.378967	
-0.378357	
-0.378662	
-0.378479	
-0.379089	
-0.379822	
-0.37854	
-0.379517	
-0.378662	
-0.379639	
-0.38031	
-0.3797	
-0.379456	
-0.379028	
-0.380005	
-0.380737	
-0.380127	
-0.380127	
-0.379883	
-0.38031	
-0.381592	
-0.380493	
-0.380249	
-0.379578	
-0.381104	
-0.380676	
-0.380676	
-0.380615	
-0.381165	
-0.381104	
-0.38147	
-0.380981	
-0.381042	
-0.380554	
-0.38147	
-0.381592	
-0.381165	
-0.381714	
-0.382202	
-0.381897	
-0.382813	
-0.382263	
-0.382202	
-0.382141	
-0.38208	
-0.382446	
-0.381042	
-0.382263	
-0.381897	
-0.382385	
-0.382874	
-0.382019	
-0.381836	
-0.382751	
-0.382446	
-0.382141	
-0.38147	
-0.382019	
-0.382202	
-0.382141	
-0.38208	
-0.382019	
-0.382141	
-0.382507	
-0.382507	
-0.382263	
-0.382507	
-0.382874	
-0.382935	
-0.383423	
-0.383606	
-0.383606	
-0.383789	
-0.383362	
-0.383911	
-0.383301	
-0.383545	
-0.383301	
-0.383301	
-0.383728	
-0.383789	
-0.383423	
-0.383728	
-0.383057	
-0.384216	
-0.383179	
-0.383118	
-0.382324	
-0.383484	
-0.383362	
-0.383179	
-0.383057	
-0.382996	
-0.382813	
-0.383972	
-0.382996	
-0.383362	
-0.382507	
-0.383057	
-0.383057	
-0.382935	
-0.382507	
-0.382446	
-0.38092	
-0.382385	
-0.380859	
-0.381531	
-0.38031	
-0.381226	
-0.381226	
-0.381348	
-0.380798	
-0.381531	
-0.379944	
-0.381348	
-0.380066	
-0.380676	
-0.380005	
-0.380249	
-0.38092	
-0.381531	
-0.380859	
-0.381775	
-0.380188	
-0.382751	
-0.380981	
-0.381653	
-0.381287	
-0.381958	
-0.382629	
-0.382446	
-0.382019	
-0.382629	
-0.381165	
-0.383179	
-0.381226	
-0.381958	
-0.382324	
-0.381958	
-0.382446	
-0.381409	
-0.38208	
-0.38147	
-0.380493	
-0.382751	
-0.381592	
-0.381775	
-0.38147	
-0.382202	
-0.382751	
-0.381592	
-0.382202	
-0.381226	
-0.380859	
-0.382202	
-0.382385	
-0.382141	
-0.382629	
-0.382202	
-0.382629	
-0.382385	
-0.382202	
-0.380737	
-0.380981	
-0.381958	
-0.38208	
-0.381836	
-0.381714	
-0.381592	
-0.382141	
-0.38208	
-0.381226	
-0.3797	
-0.380005	
-0.380737	
-0.380798	
-0.380676	
-0.380798	
-0.380798	
-0.382019	
-0.381836	
-0.381104	
-0.380676	
-0.380981	
-0.381409	
-0.381348	
-0.381775	
-0.382141	
-0.381531	
-0.382813	
-0.383301	
-0.38269	
-0.382751	
-0.382446	
-0.38269	
-0.38269	
-0.383118	
-0.383179	
-0.383423	
-0.383301	
-0.383606	
-0.383972	
-0.383057	
-0.383423	
-0.38324	
-0.383667	
-0.383728	
-0.383606	
-0.38385	
-0.383972	
-0.384583	
-0.384399	
-0.384155	
-0.384644	
-0.383972	
-0.384399	
-0.384521	
-0.384644	
-0.384277	
-0.383728	
-0.384094	
-0.383972	
-0.383606	
-0.383911	
-0.382813	
-0.383301	
-0.383667	
-0.383301	
-0.383362	
-0.38269	
-0.383911	
-0.383606	
-0.383057	
-0.383423	
-0.382568	
-0.383179	
-0.383301	
-0.383179	
-0.383362	
-0.38208	
-0.38324	
-0.383606	
-0.382629	
-0.38324	
-0.381775	
-0.38269	
-0.383728	
-0.382507	
-0.383057	
-0.381653	
-0.38269	
-0.382813	
-0.382263	
-0.38269	
-0.381348	
-0.381653	
-0.382507	
-0.381836	
-0.382263	
-0.382019	
-0.382324	
-0.383118	
-0.38208	
-0.382751	
-0.38147	
-0.382813	
-0.382324	
-0.382874	
-0.382874	
-0.382935	
-0.383179	
-0.383301	
-0.382996	
-0.383362	
-0.382507	
-0.382935	
-0.382751	
-0.382874	
-0.382813	
-0.383057	
-0.383057	
-0.382874	
-0.38208	
-0.383423	
-0.382141	
-0.382324	
-0.381226	
-0.381958	
-0.382141	
-0.381958	
-0.382202	
-0.381897	
-0.381897	
-0.382507	
-0.381836	
-0.382141	
-0.380981	
-0.382263	
-0.382263	
-0.382202	
-0.382507	
-0.382263	
-0.382141	
-0.383301	
-0.382629	
-0.382568	
-0.381958	
-0.383118	
-0.382751	
-0.382996	
-0.382874	
-0.382935	
-0.382996	
-0.383423	
-0.383301	
-0.383362	
-0.382996	
-0.383545	
-0.384033	
-0.384338	
-0.384033	
-0.384216	
-0.384216	
-0.385071	
-0.385071	
-0.384827	
-0.38562	
-0.385193	
-0.386169	
-0.385925	
-0.386047	
-0.385925	
-0.385864	
-0.386475	
-0.386353	
-0.386169	
-0.385681	
-0.385437	
-0.386169	
-0.385742	
-0.385559	
-0.383789	
-0.384399	
-0.384827	
-0.384094	
-0.384399	
-0.384033	
-0.384094	
-0.384888	
-0.384521	
-0.384094	
-0.383484	
-0.383545	
-0.383545	
-0.383667	
-0.38324	
-0.383484	
-0.383545	
-0.384033	
-0.384277	
-0.383118	
-0.382874	
-0.382324	
-0.382996	
-0.383057	
-0.382751	
-0.382813	
-0.383057	
-0.383057	
-0.383179	
-0.38269	
-0.382263	
-0.38147	
-0.38208	
-0.381958	
-0.381836	
-0.381958	
-0.381836	
-0.382385	
-0.383057	
-0.38208	
-0.382263	
-0.381775	
-0.38208	
-0.382324	
-0.382141	
-0.382446	
-0.38208	
-0.382935	
-0.382874	
-0.382202	
-0.382202	
-0.382874	
-0.382202	
-0.382324	
-0.382385	
-0.38208	
-0.381714	
-0.381714	
-0.381775	
-0.381653	
-0.380798	
-0.38147	
-0.380859	
-0.38092	
-0.380432	
-0.38031	
-0.380676	
-0.380249	
-0.380371	
-0.380127	
-0.380127	
-0.381165	
-0.380127	
-0.38031	
-0.380249	
-0.38031	
-0.380676	
-0.380188	
-0.380615	
-0.380737	
-0.380981	
-0.381287	
-0.380249	
-0.380676	
-0.380432	
-0.380737	
-0.380981	
-0.380554	
-0.380737	
-0.380432	
-0.381042	
-0.381714	
-0.381287	
-0.38147	
-0.38147	
-0.38269	
-0.382263	
-0.382202	
-0.382446	
-0.382813	
-0.382813	
-0.383118	
-0.382202	
-0.38269	
-0.383057	
-0.382935	
-0.38269	
-0.382507	
-0.38269	
-0.382813	
-0.382568	
-0.383545	
-0.382629	
-0.382629	
-0.38324	
-0.38208	
-0.381897	
-0.381531	
-0.381836	
-0.381897	
-0.381104	
-0.382019	
-0.381287	
-0.381531	
-0.382263	
-0.381165	
-0.381714	
-0.38147	
-0.381714	
-0.381714	
-0.380615	
-0.381531	
-0.38092	
-0.38147	
-0.382141	
-0.381531	
-0.382019	
-0.382263	
-0.381775	
-0.382019	
-0.380798	
-0.38147	
-0.381165	
-0.381287	
-0.382202	
-0.381531	
-0.381897	
-0.381836	
-0.381104	
-0.381775	
-0.380554	
-0.38147	
-0.380859	
-0.38147	
-0.382507	
-0.381714	
-0.382019	
-0.381897	
-0.381714	
-0.382568	
-0.381958	
-0.382019	
-0.381409	
-0.381775	
-0.382874	
-0.382324	
-0.382568	
-0.382751	
-0.382813	
-0.382874	
-0.38269	
-0.382568	
-0.381714	
-0.381775	
-0.382996	
-0.381653	
-0.382019	
-0.382141	
-0.381775	
-0.381775	
-0.381714	
-0.381287	
-0.380066	
-0.379822	
-0.380981	
-0.380432	
-0.380554	
-0.379944	
-0.380371	
-0.380798	
-0.380554	
-0.380188	
-0.378967	
-0.37915	
-0.380188	
-0.379761	
-0.380127	
-0.379089	
-0.379883	
-0.380127	
-0.379883	
-0.379456	
-0.378235	
-0.379395	
-0.379761	
-0.37915	
-0.379333	
-0.378418	
-0.378784	
-0.379456	
-0.379456	
-0.378967	
-0.37793	
-0.379578	
-0.380005	
-0.379944	
-0.379944	
-0.379761	
-0.3797	
-0.380554	
-0.379944	
-0.379639	
-0.378662	
-0.380188	
-0.38031	
-0.379639	
-0.380188	
-0.380066	
-0.38031	
-0.380737	
-0.379761	
-0.380127	
-0.379333	
-0.380066	
-0.380249	
-0.379883	
-0.381042	
-0.380188	
-0.380066	
-0.380249	
-0.380249	
-0.380737	
-0.379333	
-0.380676	
-0.381287	
-0.381165	
-0.38208	
-0.380554	
-0.381104	
-0.381042	
-0.381287	
-0.380737	
-0.379761	
-0.381287	
-0.38092	
-0.380737	
-0.381409	
-0.380554	
-0.380493	
-0.380188	
-0.380554	
-0.380249	
-0.378845	
	
