C:\DOCUMENTS AND SETTINGS\JASON\DESKTOP\UFRJ\UFRJ EPHYS\RSCI-BM 12 WK SERIES\070806-RSCI-BM-16\RSCI-BM-16-REMG\070806-RSCI-BM-16-REMG-0013.ACQ
0.025000 msec/sample
1 channel
Analog input
Volts
CH1	
2000	
-0.382935	
-0.383118	
-0.382874	
-0.382629	
-0.383423	
-0.382629	
-0.38269	
-0.381409	
-0.381531	
-0.382202	
-0.381348	
-0.381775	
-0.381531	
-0.381836	
-0.381836	
-0.382263	
-0.381897	
-0.382385	
-0.381531	
-0.381714	
-0.381775	
-0.382019	
-0.381592	
-0.381653	
-0.381531	
-0.382385	
-0.38147	
-0.381714	
-0.380249	
-0.381775	
-0.380981	
-0.380981	
-0.37915	
-0.379944	
-0.379456	
-0.380981	
-0.38031	
-0.380127	
-0.379028	
-0.381042	
-0.380615	
-0.381042	
-0.379761	
-0.380676	
-0.380249	
-0.381531	
-0.381226	
-0.381775	
-0.382202	
-0.382507	
-0.38208	
-0.382935	
-0.382568	
-0.38269	
-0.382568	
-0.382813	
-0.383484	
-0.382751	
-0.383545	
-0.382935	
-0.383118	
-0.382935	
-0.382813	
-0.383484	
-0.383423	
-0.382996	
-0.383057	
-0.382385	
-0.383118	
-0.381531	
-0.382751	
-0.38208	
-0.382813	
-0.38324	
-0.382751	
-0.382568	
-0.383118	
-0.382751	
-0.383423	
-0.382019	
-0.383728	
-0.382813	
-0.383728	
-0.383789	
-0.383301	
-0.383362	
-0.382446	
-0.383179	
-0.38385	
-0.38324	
-0.384277	
-0.382385	
-0.383545	
-0.383484	
-0.384521	
-0.38385	
-0.38269	
-0.382446	
-0.383911	
-0.383301	
-0.383911	
-0.383362	
-0.383606	
-0.383423	
-0.384644	
-0.38324	
-0.383179	
-0.382324	
-0.382813	
-0.382935	
-0.382935	
-0.383057	
-0.383301	
-0.382629	
-0.383423	
-0.382935	
-0.38269	
-0.382507	
-0.382263	
-0.382813	
-0.382629	
-0.382874	
-0.382324	
-0.382813	
-0.382568	
-0.382874	
-0.382385	
-0.38269	
-0.381653	
-0.38269	
-0.382019	
-0.38269	
-0.382507	
-0.382813	
-0.382385	
-0.382813	
-0.381836	
-0.382385	
-0.381287	
-0.381409	
-0.38031	
-0.380798	
-0.380676	
-0.38092	
-0.380432	
-0.380127	
-0.379578	
-0.380981	
-0.380188	
-0.380981	
-0.379578	
-0.380005	
-0.379944	
-0.380066	
-0.379639	
-0.378113	
-0.378662	
-0.379883	
-0.379822	
-0.381104	
-0.380859	
-0.380615	
-0.381592	
-0.382507	
-0.381653	
-0.381165	
-0.380981	
-0.381592	
-0.381714	
-0.382019	
-0.382141	
-0.382263	
-0.382202	
-0.382568	
-0.382141	
-0.381775	
-0.382446	
-0.381531	
-0.382629	
-0.381775	
-0.382019	
-0.382507	
-0.382324	
-0.382202	
-0.382324	
-0.382141	
-0.382324	
-0.381287	
-0.382202	
-0.381409	
-0.38208	
-0.381836	
-0.382324	
-0.382263	
-0.382446	
-0.381836	
-0.382629	
-0.373047	
-0.368042	
-0.366272	
-0.36731	
-0.366821	
-0.367615	
-0.375916	
-0.381531	
-0.381531	
-0.381287	
-0.381165	
-0.380981	
-0.380188	
-0.379761	
-0.378967	
-0.380249	
-0.379639	
-0.380249	
-0.379272	
-0.379761	
-0.380127	
-0.380615	
-0.380188	
-0.380066	
-0.379639	
-0.380798	
-0.38031	
-0.380066	
-0.379211	
-0.380554	
-0.380798	
-0.381104	
-0.380615	
-0.380554	
-0.38147	
-0.381165	
-0.381042	
-0.380005	
-0.381409	
-0.38092	
-0.38092	
-0.380432	
-0.381226	
-0.381165	
-0.382019	
-0.381104	
-0.381409	
-0.379883	
-0.381714	
-0.380371	
-0.381165	
-0.38031	
-0.381042	
-0.380859	
-0.381775	
-0.381042	
-0.381531	
-0.380859	
-0.382141	
-0.379944	
-0.381348	
-0.380127	
-0.380798	
-0.380798	
-0.381714	
-0.380798	
-0.381409	
-0.379822	
-0.38147	
-0.379761	
-0.38147	
-0.380249	
-0.38092	
-0.380127	
-0.381226	
-0.380676	
-0.38092	
-0.380554	
-0.380188	
-0.38031	
-0.380981	
-0.380188	
-0.380249	
-0.3797	
-0.380127	
-0.379883	
-0.3797	
-0.3797	
-0.379822	
-0.379883	
-0.379822	
-0.38031	
-0.380188	
-0.380981	
-0.380981	
-0.381042	
-0.381165	
-0.382874	
-0.382996	
-0.384399	
-0.384766	
-0.386597	
-0.387512	
-0.390503	
-0.389648	
-0.391479	
-0.391785	
-0.394714	
-0.394836	
-0.397644	
-0.39917	
-0.401245	
-0.402344	
-0.405212	
-0.407227	
-0.408691	
-0.4104	
-0.411499	
-0.413025	
-0.413574	
-0.415527	
-0.416626	
-0.419067	
-0.418396	
-0.419434	
-0.418762	
-0.419373	
-0.418213	
-0.41925	
-0.418335	
-0.418396	
-0.41748	
-0.418396	
-0.41925	
-0.420166	
-0.422546	
-0.423706	
-0.426697	
-0.428467	
-0.432251	
-0.434753	
-0.438904	
-0.440002	
-0.442139	
-0.442322	
-0.446289	
-0.447205	
-0.449219	
-0.450012	
-0.452026	
-0.453125	
-0.455261	
-0.455017	
-0.456055	
-0.455383	
-0.456238	
-0.455627	
-0.456726	
-0.45575	
-0.455017	
-0.453613	
-0.454041	
-0.452454	
-0.451416	
-0.449951	
-0.447998	
-0.447021	
-0.445251	
-0.444031	
-0.442444	
-0.442383	
-0.440613	
-0.439392	
-0.437561	
-0.437988	
-0.436096	
-0.435059	
-0.433411	
-0.434082	
-0.433228	
-0.433167	
-0.432007	
-0.431519	
-0.430481	
-0.430725	
-0.42926	
-0.429871	
-0.428955	
-0.427734	
-0.426086	
-0.426147	
-0.423767	
-0.422974	
-0.419861	
-0.41864	
-0.4151	
-0.413757	
-0.409607	
-0.405823	
-0.402039	
-0.399536	
-0.394958	
-0.392029	
-0.387939	
-0.385986	
-0.382019	
-0.379272	
-0.37616	
-0.373657	
-0.372009	
-0.369019	
-0.366394	
-0.362915	
-0.362183	
-0.360229	
-0.358643	
-0.3573	
-0.355652	
-0.354797	
-0.354248	
-0.352295	
-0.351135	
-0.349304	
-0.349609	
-0.347595	
-0.346619	
-0.343994	
-0.343567	
-0.342285	
-0.341553	
-0.34082	
-0.340088	
-0.338928	
-0.33905	
-0.337769	
-0.33905	
-0.337952	
-0.337646	
-0.337219	
-0.338196	
-0.338074	
-0.337708	
-0.339294	
-0.339294	
-0.340149	
-0.340698	
-0.340942	
-0.341858	
-0.34314	
-0.342896	
-0.343445	
-0.343689	
-0.345337	
-0.344421	
-0.345886	
-0.345825	
-0.346558	
-0.346802	
-0.348267	
-0.348389	
-0.348938	
-0.348938	
-0.349731	
-0.349854	
-0.350647	
-0.351013	
-0.351257	
-0.352478	
-0.352112	
-0.352539	
-0.351929	
-0.353149	
-0.352722	
-0.353455	
-0.352844	
-0.354065	
-0.354126	
-0.355286	
-0.355286	
-0.355591	
-0.355225	
-0.356262	
-0.35553	
-0.356873	
-0.356689	
-0.356873	
-0.357788	
-0.356628	
-0.356934	
-0.357056	
-0.357666	
-0.356812	
-0.357178	
-0.355713	
-0.356445	
-0.356018	
-0.356873	
-0.356018	
-0.355835	
-0.355469	
-0.355652	
-0.354248	
-0.355652	
-0.355896	
-0.356018	
-0.357483	
-0.35675	
-0.357117	
-0.357727	
-0.357849	
-0.357849	
-0.358032	
-0.357178	
-0.358276	
-0.358643	
-0.359436	
-0.358704	
-0.35907	
-0.358887	
-0.360046	
-0.359375	
-0.360657	
-0.360168	
-0.360474	
-0.362	
-0.360962	
-0.361511	
-0.361694	
-0.362183	
-0.362366	
-0.362366	
-0.362732	
-0.363037	
-0.363342	
-0.364502	
-0.364319	
-0.364441	
-0.36377	
-0.365723	
-0.365051	
-0.366516	
-0.364807	
-0.366211	
-0.36731	
-0.367065	
-0.36731	
-0.367188	
-0.368286	
-0.368408	
-0.367432	
-0.368164	
-0.368469	
-0.368713	
-0.369446	
-0.368896	
-0.369019	
-0.369568	
-0.369385	
-0.369324	
-0.369141	
-0.369446	
-0.369202	
-0.368713	
-0.369568	
-0.36969	
-0.369446	
-0.368958	
-0.3703	
-0.369263	
-0.370728	
-0.369019	
-0.36969	
-0.369446	
-0.370667	
-0.370178	
-0.36969	
-0.369934	
-0.371155	
-0.369812	
-0.370422	
-0.369324	
-0.369751	
-0.371094	
-0.369812	
-0.370544	
-0.369568	
-0.370972	
-0.370789	
-0.36969	
-0.370605	
-0.371033	
-0.371094	
-0.37207	
-0.371155	
-0.371643	
-0.372314	
-0.372437	
-0.372559	
-0.372864	
-0.372192	
-0.372314	
-0.372009	
-0.373657	
-0.372925	
-0.372375	
-0.372375	
-0.372864	
-0.372925	
-0.373352	
-0.372742	
-0.372925	
-0.373535	
-0.373779	
-0.373291	
-0.372986	
-0.373901	
-0.374451	
-0.374268	
-0.374084	
-0.373169	
-0.374084	
-0.375244	
-0.374756	
-0.374634	
-0.374146	
-0.375427	
-0.375549	
-0.37616	
-0.375671	
-0.37561	
-0.375488	
-0.376892	
-0.376465	
-0.375854	
-0.37677	
-0.376526	
-0.376343	
-0.375244	
-0.375854	
-0.37677	
-0.376465	
-0.377136	
-0.376709	
-0.376404	
-0.376343	
-0.376892	
-0.376648	
-0.376526	
-0.376343	
-0.376526	
-0.377319	
-0.378418	
-0.377502	
-0.376892	
-0.377075	
-0.378723	
-0.378906	
-0.378113	
-0.376892	
-0.377319	
-0.379456	
-0.378967	
-0.378662	
-0.378601	
-0.378967	
-0.380066	
-0.378479	
-0.379089	
-0.378784	
-0.378662	
-0.378906	
-0.378113	
-0.378174	
-0.378906	
-0.37793	
-0.378601	
-0.377563	
-0.377991	
-0.37738	
-0.378662	
-0.378845	
-0.37793	
-0.377625	
-0.37738	
-0.378906	
-0.378906	
-0.378784	
-0.377747	
-0.378052	
-0.379944	
-0.379578	
-0.378906	
-0.378967	
-0.378723	
-0.379395	
-0.378174	
-0.378479	
-0.378418	
-0.378662	
-0.378418	
-0.37793	
-0.378052	
-0.378296	
-0.378113	
-0.378052	
-0.376648	
-0.37738	
-0.377136	
-0.378601	
-0.378235	
-0.378418	
-0.377625	
-0.378479	
-0.379089	
-0.37915	
-0.37915	
-0.379517	
-0.379517	
-0.380615	
-0.380493	
-0.380554	
-0.380737	
-0.380493	
-0.382019	
-0.380859	
-0.38092	
-0.379822	
-0.38147	
-0.381897	
-0.382507	
-0.381287	
-0.382263	
-0.381714	
-0.382874	
-0.381165	
-0.381409	
-0.380005	
-0.382141	
-0.381592	
-0.381592	
-0.380981	
-0.381348	
-0.381653	
-0.382568	
-0.38147	
-0.381836	
-0.381653	
-0.382874	
-0.382446	
-0.382202	
-0.38147	
-0.381897	
-0.382385	
-0.381653	
-0.382324	
-0.381958	
-0.382813	
-0.383057	
-0.382813	
-0.382568	
-0.383362	
-0.382751	
-0.383484	
-0.382202	
-0.382751	
-0.381592	
-0.383118	
-0.382813	
-0.383911	
-0.382935	
-0.383057	
-0.382019	
-0.384399	
-0.38324	
-0.38269	
-0.382568	
-0.383423	
-0.382629	
-0.383728	
-0.382202	
-0.382751	
-0.382751	
-0.383301	
-0.382874	
-0.382446	
-0.382263	
-0.38324	
-0.382629	
-0.382446	
-0.383484	
-0.382446	
-0.382568	
-0.381714	
-0.382263	
-0.381348	
-0.382507	
-0.382263	
-0.382935	
-0.382507	
-0.383179	
-0.382019	
-0.382996	
-0.382324	
-0.382385	
-0.382019	
-0.382446	
-0.382324	
-0.382813	
-0.381287	
-0.381714	
-0.380615	
-0.381104	
-0.38092	
-0.380615	
-0.380493	
-0.380798	
-0.380432	
-0.380493	
-0.380615	
-0.379822	
-0.380676	
-0.380188	
-0.379517	
-0.378723	
-0.379272	
-0.380127	
-0.380249	
-0.380005	
-0.381653	
-0.380615	
-0.381531	
-0.381592	
-0.381287	
-0.381714	
-0.382263	
-0.382019	
-0.382446	
-0.381287	
-0.382996	
-0.381653	
-0.382324	
-0.382874	
-0.382813	
-0.38269	
-0.383179	
-0.382996	
-0.383606	
-0.383057	
-0.382629	
-0.383179	
-0.382996	
-0.382874	
-0.382385	
-0.382568	
-0.383179	
-0.383484	
-0.382874	
-0.383484	
-0.383118	
-0.383728	
-0.382874	
-0.382751	
-0.382629	
-0.382507	
-0.383179	
-0.383118	
-0.382324	
-0.383423	
-0.382446	
-0.383057	
-0.382996	
-0.381775	
-0.381775	
-0.381714	
-0.382202	
-0.381775	
-0.381531	
-0.38092	
-0.380005	
-0.380554	
-0.381165	
-0.380554	
-0.380615	
-0.380371	
-0.380676	
-0.381348	
-0.380615	
-0.380859	
-0.381348	
-0.380554	
-0.38092	
-0.380371	
-0.381409	
-0.38092	
-0.381287	
-0.380249	
-0.381287	
-0.381226	
-0.382324	
-0.381287	
-0.381409	
-0.381226	
-0.382263	
-0.382385	
-0.381897	
-0.381714	
-0.382507	
-0.381653	
-0.381775	
-0.381348	
-0.381714	
-0.382385	
-0.381409	
-0.382019	
-0.382874	
-0.382446	
-0.38269	
-0.381165	
-0.381897	
-0.382813	
-0.381775	
-0.383118	
-0.38092	
-0.382263	
-0.381897	
-0.382141	
-0.38208	
-0.382629	
-0.382202	
-0.382263	
-0.381104	
-0.382446	
-0.381958	
-0.38208	
-0.382141	
-0.382202	
-0.382019	
-0.382263	
-0.38208	
-0.381775	
-0.382263	
-0.381653	
-0.381897	
-0.381897	
-0.381653	
-0.382385	
-0.381775	
-0.381592	
-0.38092	
-0.381104	
-0.38208	
-0.381165	
-0.381348	
-0.380981	
-0.381226	
-0.381714	
-0.379883	
-0.380676	
-0.38031	
-0.380127	
-0.380981	
-0.379822	
-0.380188	
-0.380859	
-0.38031	
-0.381592	
-0.380981	
-0.380432	
-0.381592	
-0.38031	
-0.380981	
-0.380127	
-0.380859	
-0.380676	
-0.380859	
-0.380798	
-0.381165	
-0.380737	
-0.381409	
-0.38147	
-0.380432	
-0.380371	
-0.380127	
-0.380493	
-0.380371	
-0.379578	
-0.380066	
-0.379517	
-0.379089	
-0.379272	
-0.378418	
-0.378601	
-0.379333	
-0.378845	
-0.37915	
-0.377869	
-0.378174	
-0.377136	
-0.378052	
-0.378052	
-0.377319	
-0.365051	
-0.364807	
-0.365173	
-0.366272	
-0.366516	
-0.365723	
-0.378723	
-0.380188	
-0.380676	
-0.380066	
-0.380066	
-0.38092	
-0.381165	
-0.381592	
-0.382141	
-0.380981	
-0.381531	
-0.381409	
-0.380371	
-0.380737	
-0.381165	
-0.381592	
-0.381226	
-0.380981	
-0.381775	
-0.381287	
-0.381897	
-0.381592	
-0.381409	
-0.381592	
-0.382568	
-0.382507	
-0.382385	
-0.381531	
-0.38269	
-0.38269	
-0.382996	
-0.382751	
-0.382935	
-0.381958	
-0.38324	
-0.383057	
-0.383423	
-0.382996	
-0.382568	
-0.381958	
-0.382568	
-0.381165	
-0.380676	
-0.380981	
-0.381226	
-0.380615	
-0.381348	
-0.381226	
-0.380249	
-0.380737	
-0.379456	
-0.380188	
-0.379761	
-0.380737	
-0.3797	
-0.380127	
-0.3797	
-0.380554	
-0.380127	
-0.380371	
-0.379517	
-0.379517	
-0.379272	
-0.380798	
-0.379944	
-0.380249	
-0.379578	
-0.38031	
-0.380066	
-0.38031	
-0.380005	
-0.379517	
-0.378967	
-0.380127	
-0.379578	
-0.379944	
-0.379639	
-0.379456	
-0.378723	
-0.37915	
-0.379578	
-0.37854	
-0.380371	
-0.379883	
-0.38031	
-0.381287	
-0.380493	
-0.380981	
-0.381653	
-0.382324	
-0.382507	
-0.382935	
-0.384949	
-0.385193	
-0.38623	
-0.386536	
-0.389343	
-0.389648	
-0.391357	
-0.390991	
-0.393066	
-0.394592	
-0.396606	
-0.398132	
-0.400208	
-0.402039	
-0.404602	
-0.406067	
-0.408386	
-0.410156	
-0.411316	
-0.414246	
-0.414612	
-0.415649	
-0.416138	
-0.417969	
-0.418335	
-0.418823	
-0.417847	
-0.418335	
-0.419067	
-0.418518	
-0.41864	
-0.4198	
-0.420471	
-0.421021	
-0.423279	
-0.424622	
-0.426636	
-0.427856	
-0.432434	
-0.433716	
-0.436646	
-0.439453	
-0.442871	
-0.444458	
-0.446716	
-0.447632	
-0.448853	
-0.450745	
-0.451721	
-0.452576	
-0.453674	
-0.454346	
-0.455261	
-0.456177	
-0.455566	
-0.456055	
-0.45459	
-0.456177	
-0.455688	
-0.454834	
-0.454529	
-0.453979	
-0.452637	
-0.451782	
-0.450012	
-0.450195	
-0.448425	
-0.448547	
-0.446472	
-0.445496	
-0.443542	
-0.443665	
-0.442017	
-0.440552	
-0.440063	
-0.438293	
-0.437988	
-0.437866	
-0.437378	
-0.437073	
-0.436523	
-0.435547	
-0.435547	
-0.433838	
-0.433044	
-0.430237	
-0.43158	
-0.429565	
-0.428467	
-0.427307	
-0.426392	
-0.424133	
-0.422791	
-0.418335	
-0.41626	
-0.412964	
-0.410889	
-0.406433	
-0.403198	
-0.400696	
-0.397278	
-0.39325	
-0.388489	
-0.386047	
-0.382568	
-0.38031	
-0.378479	
-0.375244	
-0.372742	
-0.36969	
-0.368591	
-0.366577	
-0.364136	
-0.362305	
-0.360046	
-0.359436	
-0.358826	
-0.357178	
-0.356384	
-0.355591	
-0.355103	
-0.354919	
-0.353088	
-0.352234	
-0.350403	
-0.350586	
-0.349548	
-0.348511	
-0.34845	
-0.347656	
-0.345825	
-0.345154	
-0.343567	
-0.343872	
-0.343994	
-0.344238	
-0.34436	
-0.344482	
-0.344482	
-0.345215	
-0.345886	
-0.345642	
-0.345764	
-0.345459	
-0.347107	
-0.347839	
-0.347717	
-0.348145	
-0.349609	
-0.349426	
-0.349976	
-0.349243	
-0.350464	
-0.349854	
-0.351746	
-0.352112	
-0.352417	
-0.353027	
-0.353821	
-0.354431	
-0.354126	
-0.355225	
-0.35498	
-0.356262	
-0.356995	
-0.357178	
-0.357666	
-0.358215	
-0.357971	
-0.358398	
-0.357239	
-0.358093	
-0.357422	
-0.358459	
-0.358459	
-0.358704	
-0.359314	
-0.358643	
-0.359741	
-0.358337	
-0.359375	
-0.357727	
-0.359192	
-0.35968	
-0.359863	
-0.35968	
-0.360291	
-0.35968	
-0.359863	
-0.358582	
-0.359253	
-0.358704	
-0.359497	
-0.359619	
-0.359741	
-0.360229	
-0.359741	
-0.360352	
-0.359009	
-0.360046	
-0.358948	
-0.361206	
-0.360901	
-0.360474	
-0.36145	
-0.362	
-0.361633	
-0.362549	
-0.361328	
-0.362	
-0.361938	
-0.362671	
-0.362793	
-0.363281	
-0.363525	
-0.363342	
-0.364441	
-0.362915	
-0.364502	
-0.364685	
-0.365417	
-0.36676	
-0.366089	
-0.366577	
-0.367249	
-0.367676	
-0.367676	
-0.366394	
-0.367737	
-0.367798	
-0.369019	
-0.368713	
-0.369507	
-0.370117	
-0.369995	
-0.370483	
-0.368958	
-0.369629	
-0.369324	
-0.369385	
-0.370667	
-0.369446	
-0.369873	
-0.369141	
-0.369934	
-0.369324	
-0.368896	
-0.369629	
-0.369873	
-0.370117	
-0.370117	
-0.3703	
-0.370911	
-0.370972	
-0.371765	
-0.370789	
-0.370789	
-0.370056	
-0.370544	
-0.371643	
-0.371155	
-0.372131	
-0.371704	
-0.371826	
-0.371582	
-0.371399	
-0.371399	
-0.371399	
-0.371277	
-0.371887	
-0.371277	
-0.371582	
-0.372009	
-0.372192	
-0.371765	
-0.371277	
-0.371704	
-0.372192	
-0.372681	
-0.372498	
-0.372681	
-0.373169	
-0.374146	
-0.374634	
-0.373596	
-0.373901	
-0.373413	
-0.37439	
-0.374939	
-0.375061	
-0.375305	
-0.376038	
-0.376038	
-0.375854	
-0.375916	
-0.375732	
-0.376099	
-0.374634	
-0.37677	
-0.376587	
-0.376709	
-0.376282	
-0.376343	
-0.376099	
-0.376831	
-0.376038	
-0.375916	
-0.375977	
-0.376587	
-0.376587	
-0.376953	
-0.377625	
-0.377502	
-0.376892	
-0.376465	
-0.376038	
-0.37738	
-0.377625	
-0.37738	
-0.377441	
-0.378418	
-0.378479	
-0.377686	
-0.376343	
-0.377319	
-0.377686	
-0.378113	
-0.378296	
-0.378235	
-0.378296	
-0.378296	
-0.378357	
-0.378357	
-0.378174	
-0.378113	
-0.378357	
-0.378113	
-0.379395	
-0.378418	
-0.378784	
-0.377808	
-0.37915	
-0.378784	
-0.378662	
-0.378174	
-0.378845	
-0.377441	
-0.379578	
-0.378601	
-0.379395	
-0.379639	
-0.379272	
-0.377686	
-0.378662	
-0.378601	
-0.378662	
-0.378845	
-0.378418	
-0.378479	
-0.37915	
-0.378662	
-0.378601	
-0.378296	
-0.378479	
-0.378723	
-0.378662	
-0.379272	
-0.378784	
-0.378845	
-0.378723	
-0.379639	
-0.378418	
-0.378052	
-0.378296	
-0.37854	
-0.377808	
-0.37915	
-0.377869	
-0.378662	
-0.378418	
-0.377625	
-0.376343	
-0.378052	
-0.377319	
-0.377197	
-0.377014	
-0.377319	
-0.377502	
-0.377747	
-0.37793	
-0.377075	
-0.377258	
-0.376465	
-0.377319	
-0.377747	
-0.378845	
-0.377991	
-0.378784	
-0.378784	
-0.379089	
-0.378784	
-0.378479	
-0.379578	
-0.379639	
-0.379639	
-0.380493	
-0.38031	
-0.381042	
-0.380554	
-0.380615	
-0.380371	
-0.380737	
-0.380371	
-0.380554	
-0.380493	
-0.380615	
-0.380676	
-0.380615	
-0.38147	
-0.38092	
-0.380432	
-0.380432	
-0.380676	
-0.380493	
-0.381592	
-0.380859	
-0.38092	
-0.381287	
-0.380981	
-0.380737	
-0.380493	
-0.381348	
-0.380798	
-0.380737	
-0.381042	
-0.380493	
-0.381226	
-0.38147	
-0.380737	
-0.37915	
-0.380249	
-0.38031	
-0.379883	
-0.378723	
-0.379089	
-0.379517	
-0.380127	
-0.379456	
-0.378662	
-0.377258	
-0.378723	
-0.378723	
-0.378967	
-0.379395	
-0.379028	
-0.379089	
-0.379761	
-0.37915	
-0.37915	
-0.378174	
-0.379089	
-0.379395	
-0.379517	
-0.380737	
-0.380127	
-0.380249	
-0.380432	
-0.380371	
-0.379883	
-0.380615	
-0.380249	
-0.380005	
-0.379272	
-0.380432	
-0.380615	
-0.380554	
-0.381409	
-0.380554	
-0.380066	
-0.381287	
-0.38092	
-0.380554	
-0.380432	
-0.380493	
-0.380859	
-0.382141	
-0.380615	
-0.380493	
-0.378662	
-0.381165	
-0.380981	
-0.381104	
-0.381714	
-0.380859	
-0.381287	
-0.381531	
-0.380981	
-0.380676	
-0.379944	
-0.380188	
-0.380615	
-0.380554	
-0.380859	
-0.380798	
-0.380615	
-0.381714	
-0.380798	
-0.380188	
-0.381897	
-0.380798	
-0.380981	
-0.380432	
-0.38031	
-0.380676	
-0.38147	
-0.380432	
-0.380371	
-0.37915	
-0.380554	
-0.380249	
-0.380188	
-0.380432	
-0.379883	
-0.379822	
-0.381104	
-0.379578	
-0.37915	
-0.377747	
-0.379272	
-0.379089	
-0.378784	
-0.379028	
-0.379456	
-0.379578	
-0.381287	
-0.379028	
-0.378723	
-0.380127	
-0.379883	
-0.3797	
-0.378906	
-0.379639	
-0.379639	
-0.380249	
-0.380005	
-0.379456	
-0.378784	
-0.380005	
-0.379639	
-0.379089	
-0.380005	
-0.379028	
-0.378723	
-0.378784	
-0.378052	
-0.377869	
-0.377258	
-0.377747	
-0.378052	
-0.377197	
-0.377808	
-0.377441	
-0.377563	
-0.37854	
-0.377319	
-0.37677	
-0.376587	
-0.377869	
-0.377502	
-0.377563	
-0.378052	
-0.378174	
-0.378967	
-0.379822	
-0.37854	
-0.377747	
-0.378906	
-0.378967	
-0.37915	
-0.380493	
-0.379211	
-0.379272	
-0.379883	
-0.380127	
-0.379456	
-0.379028	
-0.379883	
-0.379517	
-0.379822	
-0.380005	
-0.379883	
-0.379822	
-0.380676	
-0.379639	
-0.380005	
-0.379822	
-0.380676	
-0.380066	
-0.380859	
-0.38092	
-0.38092	
-0.380981	
-0.382507	
-0.381226	
-0.381042	
-0.380737	
-0.38147	
-0.381775	
-0.381226	
-0.381226	
-0.381165	
-0.380676	
-0.382751	
-0.381042	
-0.38031	
-0.379822	
-0.380127	
-0.380554	
-0.38031	
-0.379456	
-0.379395	
-0.380371	
-0.379639	
-0.378784	
-0.378357	
-0.378906	
-0.379272	
-0.378967	
-0.379028	
-0.379028	
-0.378845	
-0.379456	
-0.378662	
-0.378418	
-0.379211	
-0.379028	
-0.378723	
-0.379211	
-0.379089	
-0.379333	
-0.378601	
-0.38031	
-0.379028	
-0.378784	
-0.378174	
-0.378723	
-0.378662	
-0.378784	
-0.378479	
-0.37915	
-0.378723	
-0.3797	
-0.378418	
-0.378235	
-0.37793	
-0.37854	
-0.378845	
-0.378479	
-0.378296	
-0.377686	
-0.379517	
-0.379028	
-0.378296	
-0.377625	
-0.378357	
-0.37854	
-0.37854	
-0.378784	
-0.378601	
-0.377502	
-0.379211	
-0.378601	
-0.378235	
-0.378479	
-0.378052	
-0.378357	
-0.378357	
-0.378784	
-0.378845	
-0.37854	
-0.380005	
-0.378906	
-0.379028	
-0.377808	
-0.378906	
-0.379089	
-0.378967	
-0.379028	
-0.378662	
-0.3797	
-0.379883	
-0.379089	
-0.379028	
-0.378174	
-0.379211	
-0.379578	
-0.379578	
-0.379395	
-0.378113	
-0.380615	
-0.379822	
-0.379272	
-0.379456	
-0.379272	
-0.379578	
-0.379028	
-0.379883	
-0.379822	
-0.379822	
-0.381226	
-0.380676	
-0.380798	
-0.380554	
-0.381226	
-0.381165	
-0.381165	
-0.381775	
-0.381165	
-0.382385	
-0.383301	
-0.381958	
-0.381958	
-0.380249	
-0.382141	
-0.382019	
-0.382019	
-0.381775	
-0.381958	
-0.38208	
-0.382935	
-0.381531	
-0.380981	
-0.379456	
-0.380554	
-0.380066	
-0.380249	
-0.380127	
-0.378784	
-0.380798	
-0.380432	
-0.3797	
-0.378845	
-0.379883	
-0.3797	
-0.379456	
-0.379272	
-0.379456	
-0.379639	
-0.380676	
-0.379578	
-0.379761	
-0.379883	
-0.379578	
-0.379639	
-0.380005	
-0.379639	
-0.379517	
-0.380005	
-0.380798	
-0.380005	
-0.380005	
-0.378723	
-0.380249	
-0.380371	
-0.379578	
-0.379883	
-0.379395	
-0.381287	
-0.382446	
-0.380493	
-0.379517	
-0.379333	
-0.380554	
-0.381653	
-0.381287	
-0.381348	
-0.381714	
-0.38269	
-0.382996	
-0.382446	
-0.382935	
-0.382629	
-0.382813	
-0.382202	
-0.382629	
-0.382263	
-0.382874	
-0.383545	
-0.382751	
-0.382813	
-0.382751	
-0.382568	
-0.382446	
-0.381897	
-0.382507	
-0.382019	
-0.381836	
-0.382751	
-0.381836	
-0.381897	
-0.380493	
-0.381226	
-0.382202	
-0.381348	
-0.381714	
-0.380066	
-0.381592	
-0.382202	
-0.381531	
-0.381042	
-0.380859	
-0.381226	
-0.381592	
-0.381165	
-0.381104	
-0.381165	
-0.382446	
-0.381897	
-0.381226	
-0.380859	
-0.380371	
-0.381531	
-0.380615	
-0.381042	
-0.380981	
-0.381348	
-0.382324	
-0.381531	
-0.381226	
-0.38092	
-0.380615	
-0.381958	
-0.381653	
-0.381653	
-0.380859	
-0.381653	
-0.383057	
-0.38208	
-0.381409	
-0.380554	
-0.38147	
-0.382202	
-0.381409	
-0.381836	
-0.380981	
-0.382324	
-0.382202	
-0.382324	
-0.381836	
-0.382324	
-0.382202	
-0.382324	
-0.382568	
-0.38269	
-0.382629	
-0.383423	
-0.382813	
-0.383057	
-0.382874	
-0.383179	
-0.383484	
-0.382935	
-0.383606	
-0.382996	
-0.383667	
-0.384705	
-0.383789	
-0.383423	
-0.382263	
-0.382874	
-0.38324	
-0.382568	
-0.382935	
-0.382446	
-0.383484	
-0.38446	
-0.383728	
-0.383057	
-0.382568	
-0.382446	
-0.383667	
-0.383179	
-0.383362	
-0.38208	
-0.383789	
-0.384033	
-0.385132	
-0.383972	
-0.384827	
-0.384033	
-0.385437	
-0.385376	
-0.384827	
-0.385071	
-0.385742	
-0.385437	
-0.385864	
-0.385071	
-0.385498	
-0.385315	
-0.385071	
-0.38501	
-0.384949	
-0.385315	
	
