C:\DOCUMENTS AND SETTINGS\JASON\DESKTOP\UFRJ\UFRJ EPHYS\RSCI-BM 12 WK SERIES\070806-RSCI-BM-16\RSCI-BM-16-REMG\070806-RSCI-BM-16-REMG-0000.ACQ
0.025000 msec/sample
1 channel
Analog input
Volts
CH1	
2000	
-0.38324	
-0.383179	
-0.383789	
-0.383179	
-0.383728	
-0.384094	
-0.384277	
-0.384277	
-0.383972	
-0.383362	
-0.383911	
-0.383789	
-0.384521	
-0.38385	
-0.383789	
-0.383728	
-0.384277	
-0.384583	
-0.383057	
-0.38385	
-0.383545	
-0.384705	
-0.383911	
-0.383423	
-0.382629	
-0.383484	
-0.383057	
-0.383606	
-0.382935	
-0.383301	
-0.381775	
-0.382263	
-0.382874	
-0.382202	
-0.382385	
-0.382141	
-0.382324	
-0.382263	
-0.382874	
-0.381897	
-0.381653	
-0.381042	
-0.382568	
-0.383301	
-0.382019	
-0.381165	
-0.382019	
-0.381897	
-0.383118	
-0.381042	
-0.381287	
-0.379883	
-0.380981	
-0.381409	
-0.380859	
-0.380554	
-0.380676	
-0.380676	
-0.381104	
-0.380249	
-0.380249	
-0.379944	
-0.380127	
-0.380859	
-0.381104	
-0.380066	
-0.378601	
-0.379761	
-0.379761	
-0.380554	
-0.379028	
-0.379639	
-0.379333	
-0.380066	
-0.38031	
-0.379883	
-0.379761	
-0.379639	
-0.379883	
-0.380798	
-0.380005	
-0.380005	
-0.378296	
-0.379639	
-0.380005	
-0.380127	
-0.379822	
-0.379211	
-0.379333	
-0.380066	
-0.379761	
-0.37793	
-0.378662	
-0.379028	
-0.380798	
-0.379761	
-0.379822	
-0.378967	
-0.38031	
-0.380188	
-0.381775	
-0.380859	
-0.380798	
-0.380127	
-0.382385	
-0.381897	
-0.382507	
-0.382568	
-0.382874	
-0.381836	
-0.383301	
-0.382751	
-0.382935	
-0.382629	
-0.383179	
-0.383606	
-0.384277	
-0.383301	
-0.383362	
-0.384399	
-0.384583	
-0.385315	
-0.383118	
-0.383972	
-0.382935	
-0.385193	
-0.384338	
-0.38501	
-0.384155	
-0.38446	
-0.384338	
-0.384949	
-0.384521	
-0.384705	
-0.384399	
-0.385071	
-0.384827	
-0.385559	
-0.384216	
-0.384338	
-0.383911	
-0.384583	
-0.384094	
-0.382202	
-0.383484	
-0.382385	
-0.383301	
-0.383362	
-0.382935	
-0.382751	
-0.382813	
-0.382629	
-0.383789	
-0.382202	
-0.382019	
-0.380859	
-0.382813	
-0.38208	
-0.38269	
-0.381226	
-0.381897	
-0.381226	
-0.382507	
-0.38208	
-0.380493	
-0.38147	
-0.381958	
-0.382019	
-0.382446	
-0.381714	
-0.382263	
-0.382202	
-0.38208	
-0.383179	
-0.381958	
-0.381714	
-0.380676	
-0.382813	
-0.38208	
-0.38208	
-0.380981	
-0.381775	
-0.381531	
-0.382202	
-0.381531	
-0.380737	
-0.381409	
-0.382263	
-0.382202	
-0.382019	
-0.381287	
-0.381775	
-0.381714	
-0.381836	
-0.382751	
-0.381531	
-0.381104	
-0.371155	
-0.369385	
-0.369446	
-0.369263	
-0.368713	
-0.369263	
-0.378479	
-0.38147	
-0.38092	
-0.380066	
-0.380371	
-0.381226	
-0.380432	
-0.380554	
-0.378479	
-0.379639	
-0.379456	
-0.379639	
-0.379639	
-0.379089	
-0.379028	
-0.378235	
-0.37915	
-0.379395	
-0.378967	
-0.37915	
-0.379211	
-0.379761	
-0.380249	
-0.378784	
-0.377625	
-0.378662	
-0.379028	
-0.379578	
-0.379822	
-0.379578	
-0.380066	
-0.379333	
-0.380615	
-0.380554	
-0.380432	
-0.380432	
-0.381653	
-0.38147	
-0.381775	
-0.381409	
-0.38208	
-0.382141	
-0.383179	
-0.384094	
-0.38269	
-0.38147	
-0.381958	
-0.382935	
-0.383179	
-0.383179	
-0.382935	
-0.38324	
-0.383118	
-0.384033	
-0.383728	
-0.383484	
-0.383667	
-0.384033	
-0.383545	
-0.384216	
-0.38324	
-0.384094	
-0.383728	
-0.384338	
-0.38446	
-0.383423	
-0.38269	
-0.382996	
-0.382751	
-0.382813	
-0.382874	
-0.382568	
-0.382202	
-0.383423	
-0.384033	
-0.383362	
-0.382935	
-0.382629	
-0.383789	
-0.384094	
-0.385132	
-0.384705	
-0.385437	
-0.385498	
-0.387634	
-0.388	
-0.387878	
-0.388367	
-0.389587	
-0.390076	
-0.391541	
-0.390869	
-0.393188	
-0.39325	
-0.394836	
-0.395508	
-0.395264	
-0.394958	
-0.396667	
-0.396057	
-0.396362	
-0.396362	
-0.396362	
-0.395935	
-0.396667	
-0.396301	
-0.394775	
-0.393799	
-0.391113	
-0.391296	
-0.389832	
-0.388	
-0.384705	
-0.382324	
-0.379456	
-0.378296	
-0.377441	
-0.374329	
-0.372986	
-0.372559	
-0.372864	
-0.373413	
-0.373108	
-0.374939	
-0.375977	
-0.378662	
-0.37915	
-0.379333	
-0.379639	
-0.380249	
-0.379883	
-0.379883	
-0.378784	
-0.37738	
-0.376099	
-0.374023	
-0.374084	
-0.372131	
-0.36853	
-0.365967	
-0.36377	
-0.361328	
-0.359375	
-0.356384	
-0.354431	
-0.351929	
-0.350586	
-0.348022	
-0.346008	
-0.343872	
-0.344727	
-0.343445	
-0.34436	
-0.343933	
-0.345215	
-0.345764	
-0.348083	
-0.348755	
-0.349976	
-0.35144	
-0.354187	
-0.355652	
-0.357727	
-0.360046	
-0.361206	
-0.362488	
-0.363831	
-0.366577	
-0.368408	
-0.369507	
-0.370728	
-0.372498	
-0.374756	
-0.376038	
-0.376404	
-0.377197	
-0.378174	
-0.379639	
-0.380859	
-0.381104	
-0.382507	
-0.384338	
-0.384827	
-0.385559	
-0.384827	
-0.38562	
-0.384644	
-0.384644	
-0.383179	
-0.381226	
-0.379517	
-0.378113	
-0.376526	
-0.375549	
-0.373535	
-0.371277	
-0.369202	
-0.367615	
-0.366577	
-0.363708	
-0.36145	
-0.358154	
-0.358093	
-0.35614	
-0.353943	
-0.352112	
-0.35083	
-0.349792	
-0.349365	
-0.347534	
-0.345764	
-0.344238	
-0.343445	
-0.342468	
-0.341125	
-0.338867	
-0.338928	
-0.338257	
-0.33844	
-0.337402	
-0.335938	
-0.334595	
-0.335449	
-0.335266	
-0.33551	
-0.334839	
-0.334839	
-0.334351	
-0.334595	
-0.3349	
-0.334229	
-0.333313	
-0.333923	
-0.334534	
-0.335205	
-0.335876	
-0.33606	
-0.336792	
-0.336975	
-0.338013	
-0.338562	
-0.338989	
-0.338989	
-0.339844	
-0.339966	
-0.340637	
-0.340515	
-0.341125	
-0.341736	
-0.342346	
-0.342529	
-0.342163	
-0.342834	
-0.343811	
-0.344421	
-0.344421	
-0.344604	
-0.345764	
-0.34613	
-0.346375	
-0.34668	
-0.34613	
-0.34729	
-0.346863	
-0.347839	
-0.348083	
-0.348267	
-0.348633	
-0.34906	
-0.350037	
-0.350647	
-0.350281	
-0.349854	
-0.350891	
-0.351746	
-0.351746	
-0.351563	
-0.351929	
-0.352478	
-0.353516	
-0.353455	
-0.352661	
-0.352539	
-0.353455	
-0.353271	
-0.35376	
-0.353455	
-0.353394	
-0.353882	
-0.354126	
-0.355042	
-0.354675	
-0.353699	
-0.355103	
-0.355164	
-0.35553	
-0.355652	
-0.355896	
-0.35614	
-0.356812	
-0.35675	
-0.356384	
-0.355347	
-0.357117	
-0.356628	
-0.357483	
-0.357666	
-0.357544	
-0.357788	
-0.358582	
-0.358459	
-0.358215	
-0.358093	
-0.358948	
-0.359375	
-0.359375	
-0.359314	
-0.360229	
-0.359741	
-0.360046	
-0.359619	
-0.361145	
-0.360657	
-0.359619	
-0.36084	
-0.361511	
-0.362	
-0.361084	
-0.361755	
-0.362549	
-0.364075	
-0.363525	
-0.363281	
-0.362	
-0.364258	
-0.364014	
-0.364319	
-0.364685	
-0.365723	
-0.365479	
-0.366394	
-0.366272	
-0.365662	
-0.365601	
-0.366577	
-0.366638	
-0.366882	
-0.366394	
-0.366943	
-0.367554	
-0.367798	
-0.367188	
-0.367859	
-0.367432	
-0.367737	
-0.368042	
-0.368408	
-0.368652	
-0.368713	
-0.369324	
-0.369507	
-0.368347	
-0.369934	
-0.368896	
-0.368958	
-0.368347	
-0.36853	
-0.36853	
-0.368713	
-0.368408	
-0.368652	
-0.367249	
-0.368774	
-0.367371	
-0.367798	
-0.366638	
-0.366821	
-0.367004	
-0.367371	
-0.366638	
-0.366882	
-0.366699	
-0.367798	
-0.36676	
-0.366455	
-0.366455	
-0.36731	
-0.367432	
-0.367493	
-0.367065	
-0.367371	
-0.369141	
-0.368225	
-0.367432	
-0.36554	
-0.367737	
-0.367737	
-0.367798	
-0.368103	
-0.368225	
-0.36853	
-0.370483	
-0.369141	
-0.368713	
-0.367065	
-0.369263	
-0.369995	
-0.369446	
-0.369324	
-0.368469	
-0.369934	
-0.370972	
-0.36969	
-0.370239	
-0.36969	
-0.370789	
-0.370972	
-0.370789	
-0.371033	
-0.369751	
-0.370544	
-0.370789	
-0.371033	
-0.371094	
-0.370422	
-0.371033	
-0.371765	
-0.371826	
-0.371704	
-0.371399	
-0.37146	
-0.371582	
-0.371521	
-0.372375	
-0.371643	
-0.37207	
-0.37207	
-0.372681	
-0.372375	
-0.373108	
-0.372803	
-0.373352	
-0.373352	
-0.373535	
-0.372559	
-0.371765	
-0.372192	
-0.372742	
-0.373169	
-0.373779	
-0.373596	
-0.374207	
-0.374329	
-0.374756	
-0.374268	
-0.373047	
-0.373352	
-0.374939	
-0.374817	
-0.37616	
-0.375366	
-0.375732	
-0.376587	
-0.377075	
-0.376587	
-0.375366	
-0.37616	
-0.378174	
-0.377563	
-0.37793	
-0.37677	
-0.377991	
-0.37854	
-0.378113	
-0.37738	
-0.376831	
-0.376953	
-0.37793	
-0.377502	
-0.377869	
-0.377563	
-0.377625	
-0.37854	
-0.378601	
-0.377808	
-0.377319	
-0.377258	
-0.377808	
-0.376953	
-0.377441	
-0.377136	
-0.376953	
-0.377319	
-0.377563	
-0.377014	
-0.376648	
-0.376587	
-0.377197	
-0.376648	
-0.376831	
-0.377014	
-0.377014	
-0.377136	
-0.377014	
-0.376953	
-0.376282	
-0.375732	
-0.377075	
-0.377258	
-0.377136	
-0.377686	
-0.377319	
-0.377197	
-0.377319	
-0.376587	
-0.376526	
-0.375671	
-0.376526	
-0.376831	
-0.376221	
-0.376465	
-0.375793	
-0.375916	
-0.37677	
-0.375916	
-0.375854	
-0.374695	
-0.374573	
-0.376282	
-0.374939	
-0.375366	
-0.373779	
-0.375305	
-0.376465	
-0.376221	
-0.375366	
-0.373962	
-0.374512	
-0.37616	
-0.37561	
-0.376038	
-0.375305	
-0.375793	
-0.376343	
-0.376404	
-0.37561	
-0.375061	
-0.375549	
-0.375732	
-0.375854	
-0.376038	
-0.376099	
-0.375671	
-0.375366	
-0.375854	
-0.375183	
-0.375366	
-0.374268	
-0.375854	
-0.375977	
-0.375916	
-0.376526	
-0.376343	
-0.376709	
-0.378113	
-0.377686	
-0.377808	
-0.377014	
-0.378906	
-0.379333	
-0.378906	
-0.379211	
-0.378479	
-0.379761	
-0.380005	
-0.379211	
-0.379456	
-0.378967	
-0.380493	
-0.38147	
-0.380493	
-0.381165	
-0.380371	
-0.381348	
-0.38208	
-0.380859	
-0.381653	
-0.380615	
-0.380981	
-0.382263	
-0.381775	
-0.38147	
-0.38208	
-0.381714	
-0.381714	
-0.382324	
-0.382263	
-0.381775	
-0.381287	
-0.382446	
-0.382202	
-0.381775	
-0.382141	
-0.381531	
-0.381897	
-0.382629	
-0.380859	
-0.380615	
-0.37915	
-0.38092	
-0.38092	
-0.380859	
-0.380493	
-0.380493	
-0.380615	
-0.381714	
-0.379639	
-0.379944	
-0.377869	
-0.379822	
-0.3797	
-0.379761	
-0.379578	
-0.380188	
-0.379517	
-0.38031	
-0.378601	
-0.37915	
-0.378418	
-0.379456	
-0.380127	
-0.379456	
-0.37915	
-0.378662	
-0.379456	
-0.380188	
-0.380371	
-0.379761	
-0.379456	
-0.37854	
-0.380432	
-0.379517	
-0.379211	
-0.379272	
-0.379333	
-0.379822	
-0.380615	
-0.3797	
-0.37915	
-0.378845	
-0.380249	
-0.379272	
-0.379456	
-0.379272	
-0.380066	
-0.379761	
-0.381165	
-0.379028	
-0.379333	
-0.377197	
-0.3797	
-0.379395	
-0.37915	
-0.378662	
-0.379883	
-0.378845	
-0.379761	
-0.378418	
-0.378601	
-0.37793	
-0.378418	
-0.378296	
-0.377869	
-0.37738	
-0.377808	
-0.377747	
-0.37793	
-0.377869	
-0.376892	
-0.376831	
-0.374939	
-0.377319	
-0.376465	
-0.376587	
-0.377014	
-0.377197	
-0.37738	
-0.377808	
-0.376831	
-0.376526	
-0.37616	
-0.377625	
-0.376953	
-0.376892	
-0.376343	
-0.378418	
-0.37793	
-0.379089	
-0.377502	
-0.378357	
-0.377502	
-0.379639	
-0.379089	
-0.379333	
-0.378418	
-0.380676	
-0.380249	
-0.381226	
-0.38092	
-0.380615	
-0.380249	
-0.380432	
-0.38147	
-0.380981	
-0.38092	
-0.381714	
-0.381592	
-0.381836	
-0.382813	
-0.381531	
-0.381287	
-0.381226	
-0.382202	
-0.381958	
-0.381958	
-0.382019	
-0.382507	
-0.382141	
-0.382263	
-0.38208	
-0.381592	
-0.381409	
-0.381165	
-0.381165	
-0.38092	
-0.380798	
-0.381653	
-0.380432	
-0.381531	
-0.380554	
-0.379883	
-0.379333	
-0.379333	
-0.38031	
-0.380432	
-0.380188	
-0.380493	
-0.380493	
-0.38147	
-0.380981	
-0.380005	
-0.378845	
-0.379578	
-0.379883	
-0.379944	
-0.37915	
-0.380615	
-0.380737	
-0.380798	
-0.380493	
-0.380615	
-0.380249	
-0.381531	
-0.380432	
-0.380798	
-0.380371	
-0.380676	
-0.381409	
-0.380676	
-0.380493	
-0.380493	
-0.380432	
-0.380798	
-0.379517	
-0.380615	
-0.38031	
-0.380432	
-0.380981	
-0.380249	
-0.380676	
-0.381042	
-0.38031	
-0.38031	
-0.379456	
-0.380127	
-0.379639	
-0.3797	
-0.380005	
-0.379456	
-0.380493	
-0.3797	
-0.379456	
-0.378296	
-0.379211	
-0.378723	
-0.378723	
-0.378174	
-0.378296	
-0.379028	
-0.378296	
-0.377441	
-0.377808	
-0.376465	
-0.377869	
-0.374817	
-0.376709	
-0.375671	
-0.376892	
-0.377563	
-0.377136	
-0.377258	
-0.378174	
-0.376709	
-0.377014	
-0.375977	
-0.376465	
-0.376282	
-0.376404	
-0.37738	
-0.37738	
-0.377747	
-0.37793	
-0.378052	
-0.377869	
-0.377869	
-0.378052	
-0.378052	
-0.378296	
-0.378113	
-0.379272	
-0.379211	
-0.378784	
-0.378906	
-0.378357	
-0.378967	
-0.377991	
-0.37915	
-0.379089	
-0.379089	
-0.379639	
-0.379944	
-0.379333	
-0.380127	
-0.378601	
-0.379883	
-0.378235	
-0.379272	
-0.379272	
-0.379883	
-0.380249	
-0.38031	
-0.380249	
-0.380371	
-0.380371	
-0.381165	
-0.379883	
-0.380127	
-0.3797	
-0.380676	
-0.380554	
-0.381836	
-0.38092	
-0.381042	
-0.380615	
-0.381226	
-0.380798	
-0.380188	
-0.380737	
-0.380859	
-0.38092	
-0.381592	
-0.381836	
-0.381226	
-0.381775	
-0.38092	
-0.381592	
-0.38031	
-0.381165	
-0.381592	
-0.381348	
-0.381836	
-0.382141	
-0.381775	
-0.382019	
-0.382202	
-0.38208	
-0.381042	
-0.38092	
-0.38092	
-0.381775	
-0.381958	
-0.381775	
-0.381775	
-0.381409	
-0.381836	
-0.382141	
-0.380615	
-0.379944	
-0.380188	
-0.379944	
-0.3797	
-0.38031	
-0.378784	
-0.378601	
-0.379395	
-0.378601	
-0.378235	
-0.377686	
-0.378052	
-0.378357	
-0.377869	
-0.378357	
-0.378052	
-0.377563	
-0.37738	
-0.376587	
-0.377563	
-0.376526	
-0.376526	
-0.376221	
-0.376831	
-0.37677	
-0.37738	
-0.376831	
-0.376526	
-0.377075	
-0.377625	
-0.376221	
-0.376343	
-0.375244	
-0.37677	
-0.376282	
-0.376831	
-0.376404	
-0.376526	
-0.377502	
-0.377014	
-0.376831	
-0.375854	
-0.37677	
-0.377258	
-0.377686	
-0.378723	
-0.378113	
-0.377686	
-0.377075	
-0.37854	
-0.378418	
-0.378113	
-0.377625	
-0.378662	
-0.378845	
-0.379578	
-0.379944	
-0.379395	
-0.37915	
-0.379456	
-0.380737	
-0.379211	
-0.379089	
-0.378479	
-0.3797	
-0.3797	
-0.3797	
-0.379639	
-0.378662	
-0.3797	
-0.379944	
-0.37915	
-0.378845	
-0.378479	
-0.379333	
-0.379211	
-0.3797	
-0.379395	
-0.37915	
-0.379333	
-0.380371	
-0.379639	
-0.378967	
-0.378357	
-0.380005	
-0.379395	
-0.380249	
-0.379761	
-0.379883	
-0.37854	
-0.378845	
-0.380615	
-0.379395	
-0.379944	
-0.378845	
-0.379822	
-0.380554	
-0.380371	
-0.379944	
-0.379761	
-0.381042	
-0.380981	
-0.380554	
-0.379578	
-0.380615	
-0.381104	
-0.380859	
-0.381531	
-0.38147	
-0.381531	
-0.382507	
-0.382507	
-0.382202	
-0.381531	
-0.381287	
-0.382324	
-0.382385	
-0.383667	
-0.383179	
-0.382568	
-0.382202	
-0.381958	
-0.383423	
-0.382141	
-0.382324	
-0.381592	
-0.382874	
-0.383362	
-0.38269	
-0.382324	
-0.382263	
-0.382446	
-0.382751	
-0.381226	
-0.380737	
-0.380249	
-0.381042	
-0.381042	
-0.381042	
-0.380554	
-0.380615	
-0.380798	
-0.38031	
-0.379883	
-0.378601	
-0.378784	
-0.379089	
-0.37915	
-0.379883	
-0.379578	
-0.378601	
-0.377747	
-0.377747	
-0.37915	
-0.378235	
-0.377747	
-0.376892	
-0.378235	
-0.378479	
-0.378296	
-0.377991	
-0.377808	
-0.377502	
-0.379028	
-0.377808	
-0.377625	
-0.375916	
-0.378052	
-0.378357	
-0.378479	
-0.378357	
-0.378479	
-0.37915	
-0.379272	
-0.378357	
-0.377502	
-0.37854	
-0.378723	
-0.37915	
-0.379578	
-0.379944	
-0.379028	
-0.380005	
-0.37854	
-0.380066	
-0.379395	
-0.379456	
-0.378357	
-0.379089	
-0.380554	
-0.380371	
-0.379822	
-0.378967	
-0.379395	
-0.38092	
-0.379211	
-0.379028	
-0.378174	
-0.37915	
-0.380188	
-0.37915	
-0.378662	
-0.378296	
-0.379333	
-0.380432	
-0.379517	
-0.379028	
-0.378845	
-0.379272	
-0.379761	
-0.379272	
-0.379883	
-0.37915	
-0.380066	
-0.378479	
-0.380676	
-0.378723	
-0.378906	
-0.378723	
-0.379822	
-0.380798	
-0.380615	
-0.380371	
-0.379761	
-0.38031	
-0.381836	
-0.38092	
-0.38092	
-0.380432	
-0.381592	
-0.382507	
-0.381714	
-0.38208	
-0.381836	
-0.382629	
-0.383606	
-0.383057	
-0.382874	
-0.382446	
-0.383179	
-0.38324	
-0.383118	
-0.38385	
-0.382996	
-0.384155	
-0.382324	
-0.38385	
-0.382385	
-0.383118	
-0.382385	
-0.383667	
-0.383911	
-0.383789	
-0.38324	
-0.383301	
-0.383057	
-0.383972	
-0.382019	
-0.38208	
-0.382629	
-0.382385	
-0.38269	
-0.382141	
-0.382202	
-0.381836	
-0.382202	
-0.383179	
-0.381592	
-0.381592	
-0.380554	
-0.381531	
-0.381897	
-0.381348	
-0.382813	
-0.381348	
-0.382202	
-0.38092	
-0.38269	
-0.380493	
-0.381165	
-0.380371	
-0.38147	
-0.382324	
-0.381653	
-0.380676	
-0.380127	
-0.380615	
-0.38092	
-0.380188	
-0.379761	
-0.379822	
-0.380066	
-0.380798	
-0.379761	
-0.379944	
-0.379639	
-0.380005	
-0.380615	
-0.379272	
-0.379272	
-0.378235	
-0.378906	
-0.3797	
-0.3797	
-0.380371	
-0.379272	
-0.380249	
-0.379028	
-0.380066	
-0.378784	
-0.379517	
-0.379211	
-0.379395	
-0.380554	
-0.38031	
-0.37915	
-0.379272	
-0.37915	
-0.379456	
-0.379089	
-0.378784	
-0.378601	
-0.378845	
-0.379456	
-0.378723	
-0.378967	
-0.378906	
-0.379517	
-0.380188	
-0.379028	
-0.379333	
-0.378601	
-0.379578	
-0.379944	
-0.380432	
-0.381226	
-0.381042	
-0.38208	
-0.381348	
-0.382996	
-0.381104	
-0.381592	
-0.38208	
-0.382202	
-0.38324	
-0.383179	
-0.382507	
-0.382507	
-0.382935	
-0.383789	
-0.382996	
-0.382935	
-0.383301	
-0.383728	
-0.384033	
-0.383789	
-0.383789	
-0.384033	
-0.383911	
-0.385254	
-0.384766	
-0.383728	
-0.383362	
-0.383911	
-0.384094	
-0.384888	
-0.385193	
-0.384277	
-0.383911	
-0.384033	
-0.385071	
-0.384155	
-0.383667	
-0.383301	
-0.384033	
-0.383972	
-0.383972	
-0.383423	
-0.383179	
-0.383118	
-0.383972	
-0.382874	
-0.382263	
-0.382019	
-0.382507	
-0.382324	
-0.382629	
-0.382446	
-0.382324	
-0.381897	
-0.382568	
-0.381714	
-0.38092	
-0.381409	
-0.38147	
-0.382019	
-0.382813	
-0.382568	
-0.381531	
-0.381592	
-0.381165	
-0.382263	
-0.381836	
-0.381714	
-0.38147	
-0.382263	
-0.382324	
-0.382141	
-0.381653	
-0.382141	
-0.382019	
-0.382935	
-0.381958	
-0.381592	
-0.380798	
-0.381348	
-0.381592	
-0.382629	
-0.381775	
-0.381653	
-0.381348	
-0.382751	
-0.381958	
-0.380676	
-0.381226	
-0.382141	
-0.381775	
-0.381775	
-0.382263	
-0.381287	
-0.381226	
-0.38092	
-0.381653	
-0.381165	
-0.380981	
-0.380432	
-0.381042	
-0.380737	
-0.381104	
-0.380737	
-0.380371	
-0.380798	
-0.381287	
-0.379761	
-0.378357	
-0.377991	
-0.379639	
-0.379395	
-0.380066	
-0.379456	
-0.379028	
-0.378174	
-0.379028	
-0.378601	
-0.378357	
-0.378296	
-0.379089	
-0.37915	
-0.379456	
-0.379333	
-0.378906	
-0.378784	
-0.379089	
-0.378479	
-0.378967	
-0.378723	
-0.379395	
-0.379761	
-0.380371	
-0.38092	
-0.380615	
-0.380737	
-0.381775	
-0.381592	
-0.381226	
-0.380371	
-0.38031	
-0.382019	
-0.382141	
-0.383484	
-0.382751	
-0.382446	
-0.38147	
-0.38324	
-0.383118	
-0.38269	
-0.381836	
-0.382935	
-0.383118	
-0.384033	
-0.383911	
-0.38324	
-0.383118	
-0.384155	
-0.383484	
-0.38324	
-0.383118	
-0.383423	
-0.383972	
-0.383728	
-0.383789	
-0.383362	
-0.383484	
-0.384155	
-0.383789	
-0.383057	
-0.381897	
-0.381836	
-0.383057	
-0.382568	
-0.383728	
-0.383118	
-0.382507	
-0.381714	
-0.382263	
-0.382202	
-0.38208	
-0.381104	
-0.38208	
-0.382324	
-0.381836	
-0.382507	
-0.382385	
-0.382263	
-0.38324	
-0.383179	
-0.382385	
-0.38092	
-0.380859	
-0.382813	
-0.382446	
-0.383667	
-0.382751	
-0.382751	
-0.382935	
-0.38324	
-0.383301	
-0.381653	
-0.382324	
-0.38269	
-0.382629	
-0.383301	
-0.382263	
-0.382568	
-0.382629	
-0.382324	
-0.382751	
-0.381958	
-0.381958	
-0.380981	
-0.381836	
-0.381958	
-0.383057	
-0.381531	
-0.381348	
-0.381226	
-0.382263	
-0.381531	
-0.379578	
-0.380554	
-0.380981	
-0.381042	
-0.382385	
-0.380249	
-0.380432	
-0.380066	
-0.379944	
-0.3797	
-0.378967	
-0.378906	
-0.379333	
-0.378723	
-0.379089	
-0.378174	
-0.378296	
-0.378357	
-0.378418	
-0.379211	
-0.378235	
-0.37854	
-0.377869	
-0.378906	
-0.37854	
-0.378662	
-0.378296	
-0.378174	
-0.378845	
-0.37854	
-0.378296	
-0.377319	
-0.378601	
-0.379456	
-0.379395	
-0.380981	
-0.379761	
-0.379395	
-0.379211	
-0.3797	
-0.379944	
-0.379395	
-0.379944	
-0.380066	
-0.380371	
-0.381714	
-0.380493	
-0.380615	
-0.380188	
-0.380249	
-0.381042	
-0.379883	
-0.379761	
-0.380188	
-0.380432	
-0.380554	
-0.38031	
-0.380249	
-0.380554	
-0.381104	
-0.381165	
-0.380676	
-0.380554	
-0.38092	
-0.381104	
-0.381226	
-0.382629	
-0.381714	
-0.38147	
-0.382019	
-0.381775	
-0.382813	
-0.38092	
-0.381775	
-0.382019	
-0.381836	
-0.38324	
-0.382324	
-0.382019	
-0.381775	
-0.382629	
-0.382446	
-0.381714	
-0.38092	
-0.382202	
-0.381958	
-0.382813	
-0.382874	
-0.382568	
-0.382141	
-0.381897	
-0.382385	
-0.382507	
-0.382019	
-0.382385	
-0.381531	
-0.38269	
-0.38385	
-0.38269	
-0.382202	
-0.382141	
-0.383362	
-0.382874	
-0.381042	
-0.381653	
-0.381653	
-0.381653	
-0.382446	
-0.381775	
-0.381042	
-0.380737	
-0.381226	
-0.380127	
-0.379395	
-0.378967	
-0.379333	
-0.379333	
-0.379456	
-0.379333	
-0.378723	
-0.378845	
-0.377869	
-0.378845	
-0.378967	
-0.378174	
-0.377991	
-0.377197	
-0.377991	
-0.378784	
-0.377563	
-0.377441	
-0.376709	
-0.378052	
-0.377075	
-0.37616	
-0.375671	
-0.376953	
-0.377136	
-0.377502	
-0.376892	
-0.376709	
-0.376953	
-0.377136	
-0.376831	
-0.376648	
-0.376648	
-0.376892	
-0.376221	
-0.37738	
-0.377197	
-0.377075	
-0.377502	
-0.377075	
-0.378052	
-0.378174	
-0.378052	
-0.377319	
-0.377869	
-0.378662	
-0.380005	
-0.378784	
-0.378845	
-0.378113	
-0.379944	
-0.379272	
-0.378479	
-0.379028	
-0.379761	
-0.379761	
-0.380371	
-0.380066	
-0.379639	
-0.379578	
-0.380066	
-0.379761	
-0.380798	
-0.379211	
-0.3797	
-0.378418	
-0.379578	
-0.379395	
-0.379028	
-0.379395	
-0.379761	
-0.379456	
-0.379456	
-0.378784	
-0.379395	
-0.379089	
-0.379578	
-0.381104	
-0.380005	
-0.379639	
-0.379089	
-0.380554	
-0.379333	
-0.379333	
-0.378418	
-0.379578	
-0.379761	
-0.38031	
-0.379578	
-0.379639	
-0.379395	
-0.380493	
-0.379883	
-0.380859	
-0.379883	
-0.380066	
-0.379272	
-0.380615	
-0.381592	
-0.380249	
-0.380737	
-0.380554	
-0.380981	
-0.381348	
-0.381042	
-0.381592	
-0.381287	
-0.382202	
-0.383301	
-0.382019	
-0.382141	
-0.381042	
-0.38324	
-0.38269	
-0.383118	
-0.38208	
-0.382813	
-0.381958	
-0.382629	
-0.38269	
-0.382263	
-0.382385	
-0.38324	
-0.382568	
-0.383057	
-0.381042	
-0.382446	
-0.382263	
-0.382202	
-0.382996	
-0.381104	
-0.381104	
-0.379578	
-0.381104	
-0.38092	
-0.380615	
-0.379883	
-0.3797	
-0.379517	
-0.38092	
-0.379639	
-0.378967	
-0.378845	
-0.379883	
-0.378723	
-0.378967	
-0.377869	
-0.378723	
-0.37854	
-0.378418	
-0.378723	
-0.378235	
-0.37793	
-0.378906	
-0.377869	
-0.378113	
-0.377014	
-0.377869	
-0.377563	
-0.377563	
-0.378967	
-0.377686	
-0.377747	
-0.377197	
-0.378479	
-0.378479	
-0.378784	
-0.377686	
-0.378052	
-0.377625	
-0.379089	
-0.378601	
-0.379089	
-0.37854	
-0.380371	
-0.378906	
-0.379639	
-0.377869	
-0.379272	
-0.379395	
-0.379395	
-0.380554	
-0.379333	
-0.37915	
-0.378479	
-0.379456	
-0.379578	
-0.379333	
-0.379578	
-0.379272	
-0.379456	
-0.380615	
-0.379395	
-0.379578	
-0.378784	
-0.379883	
-0.379028	
-0.3797	
-0.378601	
-0.378845	
-0.378296	
-0.379761	
-0.3797	
-0.379395	
-0.379089	
-0.381226	
-0.379517	
-0.379517	
-0.378174	
-0.379089	
-0.3797	
-0.379761	
-0.381287	
-0.380188	
-0.379822	
-0.379211	
-0.380066	
-0.380798	
-0.380676	
-0.380371	
-0.380676	
-0.380066	
-0.382446	
-0.38147	
-0.38147	
-0.38147	
-0.382324	
-0.381592	
-0.382629	
	
