C:\DOCUMENTS AND SETTINGS\JASON\DESKTOP\UFRJ\UFRJ EPHYS\RSCI-BM 12 WK SERIES\070806-RSCI-BM-16\RSCI-BM-16-REMG\070806-RSCI-BM-16-REMG-0001.ACQ
0.025000 msec/sample
1 channel
Analog input
Volts
CH1	
2000	
-0.383057	
-0.383606	
-0.383728	
-0.38446	
-0.383362	
-0.383972	
-0.384216	
-0.384399	
-0.384521	
-0.384216	
-0.384399	
-0.384094	
-0.385071	
-0.384949	
-0.38446	
-0.383667	
-0.384644	
-0.385193	
-0.384949	
-0.385254	
-0.384338	
-0.384827	
-0.384583	
-0.384155	
-0.384399	
-0.383545	
-0.383667	
-0.384705	
-0.382751	
-0.383118	
-0.381836	
-0.382935	
-0.382935	
-0.382324	
-0.383179	
-0.382141	
-0.382385	
-0.382263	
-0.381958	
-0.382568	
-0.381409	
-0.381714	
-0.381897	
-0.38208	
-0.382385	
-0.38208	
-0.382141	
-0.382141	
-0.382385	
-0.381897	
-0.382385	
-0.381531	
-0.381958	
-0.382507	
-0.382324	
-0.381714	
-0.380981	
-0.381897	
-0.383057	
-0.381775	
-0.38269	
-0.381226	
-0.382324	
-0.381836	
-0.382324	
-0.382996	
-0.382263	
-0.38269	
-0.382996	
-0.38269	
-0.382935	
-0.381592	
-0.382568	
-0.382507	
-0.382446	
-0.383179	
-0.382263	
-0.382324	
-0.382507	
-0.382629	
-0.382507	
-0.381958	
-0.382324	
-0.381714	
-0.383179	
-0.382446	
-0.381897	
-0.381042	
-0.381531	
-0.382813	
-0.381226	
-0.381531	
-0.380371	
-0.380859	
-0.380798	
-0.380554	
-0.381287	
-0.379883	
-0.380188	
-0.380737	
-0.380371	
-0.380798	
-0.378479	
-0.380493	
-0.379272	
-0.379761	
-0.380432	
-0.3797	
-0.379883	
-0.380249	
-0.380127	
-0.380737	
-0.37915	
-0.379944	
-0.379272	
-0.380554	
-0.380127	
-0.379822	
-0.379028	
-0.379578	
-0.380676	
-0.379822	
-0.379333	
-0.3797	
-0.379822	
-0.381165	
-0.381042	
-0.38147	
-0.380615	
-0.381348	
-0.381958	
-0.381409	
-0.38147	
-0.379517	
-0.381714	
-0.381958	
-0.382507	
-0.382874	
-0.381653	
-0.382141	
-0.382996	
-0.382141	
-0.382568	
-0.38092	
-0.381897	
-0.380859	
-0.38208	
-0.381775	
-0.381714	
-0.381409	
-0.382019	
-0.382141	
-0.382751	
-0.381653	
-0.38208	
-0.381042	
-0.382935	
-0.38208	
-0.382874	
-0.381897	
-0.382507	
-0.382507	
-0.382935	
-0.382507	
-0.381042	
-0.382568	
-0.382813	
-0.382507	
-0.383301	
-0.382019	
-0.382446	
-0.383789	
-0.382874	
-0.382568	
-0.380676	
-0.381836	
-0.382507	
-0.38208	
-0.382324	
-0.381104	
-0.382324	
-0.382568	
-0.382507	
-0.382751	
-0.381836	
-0.382324	
-0.382141	
-0.382996	
-0.382446	
-0.383301	
-0.383301	
-0.383484	
-0.382751	
-0.383423	
-0.382874	
-0.381836	
-0.382629	
-0.376404	
-0.370605	
-0.370667	
-0.368958	
-0.369873	
-0.370544	
-0.377441	
-0.381714	
-0.380554	
-0.382019	
-0.381958	
-0.381409	
-0.381714	
-0.380859	
-0.380859	
-0.380859	
-0.380615	
-0.379822	
-0.379395	
-0.379761	
-0.379456	
-0.379517	
-0.3797	
-0.379395	
-0.379333	
-0.379333	
-0.379883	
-0.379517	
-0.378174	
-0.377075	
-0.377808	
-0.378906	
-0.378601	
-0.379211	
-0.378113	
-0.378601	
-0.378113	
-0.378784	
-0.378113	
-0.377441	
-0.37738	
-0.378845	
-0.378113	
-0.378296	
-0.377258	
-0.378357	
-0.379089	
-0.379089	
-0.378906	
-0.37793	
-0.379456	
-0.379944	
-0.379639	
-0.379578	
-0.379944	
-0.379639	
-0.380493	
-0.380371	
-0.380554	
-0.379639	
-0.3797	
-0.380737	
-0.380981	
-0.380554	
-0.381409	
-0.381104	
-0.381287	
-0.381104	
-0.381287	
-0.380798	
-0.380066	
-0.3797	
-0.381409	
-0.380981	
-0.381531	
-0.380493	
-0.381287	
-0.381226	
-0.38147	
-0.381165	
-0.381104	
-0.381409	
-0.382874	
-0.382019	
-0.382629	
-0.382019	
-0.383667	
-0.384521	
-0.38501	
-0.385986	
-0.38562	
-0.386963	
-0.388489	
-0.389038	
-0.389954	
-0.39032	
-0.392212	
-0.394592	
-0.395325	
-0.396057	
-0.397156	
-0.398926	
-0.401062	
-0.401917	
-0.403015	
-0.403381	
-0.405457	
-0.407227	
-0.408447	
-0.408936	
-0.410217	
-0.411194	
-0.413147	
-0.413269	
-0.414185	
-0.414246	
-0.415771	
-0.415955	
-0.415833	
-0.414551	
-0.41394	
-0.412537	
-0.411865	
-0.409973	
-0.408691	
-0.406982	
-0.406982	
-0.40625	
-0.406616	
-0.405823	
-0.406128	
-0.406494	
-0.408325	
-0.408386	
-0.409668	
-0.409668	
-0.410156	
-0.411194	
-0.412048	
-0.411377	
-0.411987	
-0.412903	
-0.414612	
-0.415833	
-0.417419	
-0.41803	
-0.41925	
-0.420044	
-0.421021	
-0.420898	
-0.421509	
-0.422607	
-0.424072	
-0.425537	
-0.426331	
-0.427307	
-0.42749	
-0.427551	
-0.428223	
-0.426392	
-0.426147	
-0.425598	
-0.425659	
-0.42511	
-0.424377	
-0.423279	
-0.422241	
-0.421753	
-0.421204	
-0.418701	
-0.416992	
-0.415222	
-0.415833	
-0.414185	
-0.413208	
-0.412476	
-0.41217	
-0.411743	
-0.411194	
-0.409485	
-0.408691	
-0.407104	
-0.407104	
-0.405212	
-0.403992	
-0.402649	
-0.400696	
-0.398254	
-0.397278	
-0.393921	
-0.391663	
-0.388794	
-0.387878	
-0.384888	
-0.382446	
-0.379211	
-0.378418	
-0.375671	
-0.374084	
-0.37146	
-0.369263	
-0.367065	
-0.365845	
-0.36377	
-0.361206	
-0.359497	
-0.357422	
-0.355286	
-0.353333	
-0.351379	
-0.349792	
-0.347351	
-0.347656	
-0.346619	
-0.345398	
-0.344666	
-0.343445	
-0.342712	
-0.342896	
-0.340881	
-0.340332	
-0.338745	
-0.339966	
-0.339111	
-0.338867	
-0.339294	
-0.339172	
-0.339966	
-0.340637	
-0.34021	
-0.341003	
-0.341003	
-0.342896	
-0.343079	
-0.343506	
-0.344482	
-0.345032	
-0.34613	
-0.346924	
-0.346863	
-0.346863	
-0.345886	
-0.347534	
-0.347656	
-0.347961	
-0.3479	
-0.348938	
-0.349609	
-0.35022	
-0.349487	
-0.349731	
-0.349121	
-0.350403	
-0.350952	
-0.35083	
-0.351074	
-0.352051	
-0.352234	
-0.353882	
-0.3526	
-0.352905	
-0.351685	
-0.353516	
-0.35376	
-0.353638	
-0.354004	
-0.354126	
-0.354431	
-0.35614	
-0.354187	
-0.354614	
-0.352905	
-0.355469	
-0.355225	
-0.355103	
-0.35498	
-0.355835	
-0.355957	
-0.357056	
-0.35553	
-0.355896	
-0.355042	
-0.356995	
-0.355774	
-0.355774	
-0.355042	
-0.356079	
-0.356262	
-0.356567	
-0.355652	
-0.355713	
-0.355957	
-0.356934	
-0.35553	
-0.355835	
-0.354919	
-0.35614	
-0.356201	
-0.35553	
-0.354919	
-0.355347	
-0.356079	
-0.357056	
-0.356079	
-0.356323	
-0.355896	
-0.357483	
-0.357605	
-0.357239	
-0.357178	
-0.357666	
-0.358398	
-0.359436	
-0.359192	
-0.359192	
-0.358826	
-0.360229	
-0.359619	
-0.359985	
-0.359863	
-0.360352	
-0.360962	
-0.361572	
-0.361206	
-0.360718	
-0.361084	
-0.362305	
-0.362305	
-0.362061	
-0.361206	
-0.362183	
-0.362732	
-0.363098	
-0.362915	
-0.363525	
-0.364502	
-0.364807	
-0.365173	
-0.365051	
-0.365112	
-0.365723	
-0.366211	
-0.367249	
-0.36731	
-0.367249	
-0.367554	
-0.368469	
-0.369202	
-0.368774	
-0.369202	
-0.369507	
-0.369934	
-0.370911	
-0.370544	
-0.371277	
-0.370422	
-0.37207	
-0.372498	
-0.372314	
-0.372437	
-0.372375	
-0.37323	
-0.374146	
-0.373657	
-0.373718	
-0.373108	
-0.37439	
-0.374695	
-0.374817	
-0.374756	
-0.374573	
-0.374939	
-0.37616	
-0.375671	
-0.37561	
-0.375122	
-0.376343	
-0.376526	
-0.376526	
-0.375488	
-0.375732	
-0.375	
-0.376038	
-0.375671	
-0.375427	
-0.375	
-0.375549	
-0.376099	
-0.375549	
-0.373535	
-0.373291	
-0.373291	
-0.374695	
-0.37439	
-0.374146	
-0.374023	
-0.375366	
-0.375671	
-0.375183	
-0.372986	
-0.373474	
-0.373413	
-0.375061	
-0.374573	
-0.374634	
-0.374573	
-0.375977	
-0.376282	
-0.376526	
-0.373657	
-0.37439	
-0.373047	
-0.375732	
-0.375183	
-0.375244	
-0.375427	
-0.376465	
-0.376465	
-0.376953	
-0.375061	
-0.375	
-0.374573	
-0.376099	
-0.376404	
-0.37677	
-0.376282	
-0.377563	
-0.377258	
-0.378357	
-0.376221	
-0.376648	
-0.376221	
-0.377502	
-0.378052	
-0.377869	
-0.377563	
-0.378662	
-0.378662	
-0.379211	
-0.376953	
-0.377808	
-0.377136	
-0.379028	
-0.378784	
-0.378052	
-0.378052	
-0.379456	
-0.378845	
-0.379211	
-0.376831	
-0.377441	
-0.37677	
-0.377808	
-0.378052	
-0.377747	
-0.378479	
-0.378723	
-0.379456	
-0.379272	
-0.377441	
-0.377808	
-0.377258	
-0.378418	
-0.37915	
-0.379089	
-0.379272	
-0.379761	
-0.380615	
-0.381104	
-0.379578	
-0.379944	
-0.3797	
-0.380798	
-0.381531	
-0.380981	
-0.381042	
-0.381775	
-0.382263	
-0.382568	
-0.381409	
-0.380981	
-0.381226	
-0.382751	
-0.382751	
-0.382874	
-0.382813	
-0.383301	
-0.383667	
-0.384399	
-0.382813	
-0.381958	
-0.38208	
-0.383484	
-0.383728	
-0.382935	
-0.382935	
-0.383728	
-0.383606	
-0.383423	
-0.382141	
-0.381409	
-0.381287	
-0.382141	
-0.382996	
-0.382385	
-0.382019	
-0.38208	
-0.382568	
-0.382996	
-0.38147	
-0.381226	
-0.38092	
-0.381897	
-0.383057	
-0.381958	
-0.381653	
-0.381348	
-0.382874	
-0.382751	
-0.382202	
-0.380981	
-0.380737	
-0.38092	
-0.382141	
-0.38208	
-0.382751	
-0.382324	
-0.382629	
-0.382629	
-0.382813	
-0.381592	
-0.381287	
-0.381531	
-0.382996	
-0.382385	
-0.382446	
-0.382629	
-0.383423	
-0.383972	
-0.383667	
-0.382996	
-0.382507	
-0.383118	
-0.384521	
-0.383911	
-0.383545	
-0.383057	
-0.383911	
-0.384705	
-0.384033	
-0.383545	
-0.382935	
-0.383484	
-0.384705	
-0.383728	
-0.383484	
-0.383179	
-0.383484	
-0.38385	
-0.383301	
-0.383118	
-0.38208	
-0.382324	
-0.383667	
-0.382568	
-0.382507	
-0.382019	
-0.382202	
-0.38324	
-0.381775	
-0.381958	
-0.380676	
-0.381958	
-0.382446	
-0.38208	
-0.382019	
-0.381348	
-0.38208	
-0.383606	
-0.382019	
-0.382202	
-0.380066	
-0.381958	
-0.382263	
-0.382202	
-0.382141	
-0.381714	
-0.382629	
-0.383911	
-0.382385	
-0.381653	
-0.380127	
-0.382202	
-0.382751	
-0.382874	
-0.383118	
-0.383057	
-0.383972	
-0.385193	
-0.384094	
-0.383911	
-0.382813	
-0.383911	
-0.385132	
-0.384705	
-0.384766	
-0.384399	
-0.385254	
-0.386292	
-0.385071	
-0.384705	
-0.383789	
-0.384583	
-0.385254	
-0.384644	
-0.38446	
-0.384399	
-0.385376	
-0.386108	
-0.384827	
-0.384766	
-0.38385	
-0.384949	
-0.385864	
-0.385071	
-0.384949	
-0.385132	
-0.38623	
-0.386414	
-0.385193	
-0.384827	
-0.384583	
-0.385925	
-0.385681	
-0.385864	
-0.385864	
-0.386047	
-0.387085	
-0.386597	
-0.386658	
-0.385132	
-0.385376	
-0.384766	
-0.385986	
-0.385742	
-0.385681	
-0.385498	
-0.386475	
-0.386108	
-0.38623	
-0.385193	
-0.385254	
-0.385071	
-0.385925	
-0.385986	
-0.385681	
-0.386169	
-0.386475	
-0.386963	
-0.387268	
-0.387207	
-0.386292	
-0.386719	
-0.385864	
-0.386841	
-0.386841	
-0.386658	
-0.387024	
-0.386902	
-0.386902	
-0.386902	
-0.385803	
-0.385742	
-0.385681	
-0.385681	
-0.385742	
-0.385071	
-0.384827	
-0.385193	
-0.384949	
-0.384888	
-0.384033	
-0.383972	
-0.384338	
-0.383911	
-0.383911	
-0.383301	
-0.383606	
-0.384277	
-0.383667	
-0.38324	
-0.382507	
-0.382568	
-0.382751	
-0.38269	
-0.382874	
-0.382507	
-0.382507	
-0.383484	
-0.382874	
-0.382935	
-0.381226	
-0.382324	
-0.381836	
-0.382629	
-0.382263	
-0.382263	
-0.382629	
-0.383545	
-0.38269	
-0.383179	
-0.381714	
-0.382263	
-0.381775	
-0.382385	
-0.382935	
-0.383484	
-0.383728	
-0.38446	
-0.384277	
-0.384888	
-0.384949	
-0.384338	
-0.383545	
-0.383423	
-0.384827	
-0.38501	
-0.385254	
-0.385742	
-0.385681	
-0.385986	
-0.385986	
-0.38562	
-0.385437	
-0.384583	
-0.385864	
-0.385437	
-0.385742	
-0.385986	
-0.386902	
-0.386108	
-0.38562	
-0.384583	
-0.385559	
-0.385254	
-0.385803	
-0.385681	
-0.385742	
-0.385742	
-0.387512	
-0.386047	
-0.386108	
-0.383728	
-0.385742	
-0.385986	
-0.38562	
-0.385315	
-0.385071	
-0.385742	
-0.387512	
-0.385559	
-0.385986	
-0.383606	
-0.385803	
-0.386108	
-0.385437	
-0.38562	
-0.384888	
-0.38562	
-0.386841	
-0.385254	
-0.386475	
-0.383789	
-0.385132	
-0.384949	
-0.385254	
-0.385254	
-0.384033	
-0.385193	
-0.38623	
-0.385315	
-0.386475	
-0.384827	
-0.385864	
-0.38562	
-0.385742	
-0.385498	
-0.384949	
-0.385986	
-0.38623	
-0.385864	
-0.386292	
-0.384705	
-0.385132	
-0.385132	
-0.38562	
-0.384949	
-0.384338	
-0.385071	
-0.38501	
-0.384949	
-0.384338	
-0.383301	
-0.38385	
-0.383545	
-0.383545	
-0.38324	
-0.382935	
-0.383057	
-0.383179	
-0.38324	
-0.382751	
-0.382751	
-0.381775	
-0.382568	
-0.382141	
-0.382263	
-0.382202	
-0.382385	
-0.382507	
-0.382935	
-0.382446	
-0.383484	
-0.381104	
-0.382446	
-0.381165	
-0.382813	
-0.382751	
-0.383423	
-0.383789	
-0.384644	
-0.384155	
-0.385437	
-0.383728	
-0.384277	
-0.382202	
-0.384949	
-0.384338	
-0.384644	
-0.384705	
-0.386047	
-0.385132	
-0.386047	
-0.383606	
-0.38501	
-0.383911	
-0.385132	
-0.385132	
-0.385132	
-0.384949	
-0.385864	
-0.385681	
-0.386353	
-0.384644	
-0.385315	
-0.38562	
-0.385376	
-0.385681	
-0.385193	
-0.385864	
-0.385925	
-0.386292	
-0.386292	
-0.385193	
-0.385071	
-0.385925	
-0.385315	
-0.385498	
-0.384277	
-0.384949	
-0.38501	
-0.385986	
-0.385193	
-0.384521	
-0.383606	
-0.385071	
-0.384583	
-0.384766	
-0.383606	
-0.38501	
-0.384644	
-0.385864	
-0.385498	
-0.384888	
-0.383789	
-0.38501	
-0.384888	
-0.384583	
-0.38446	
-0.385559	
-0.385376	
-0.386719	
-0.385864	
-0.385925	
-0.384216	
-0.386169	
-0.385193	
-0.386047	
-0.386169	
-0.386292	
-0.386902	
-0.387634	
-0.386963	
-0.38739	
-0.385925	
-0.386658	
-0.385925	
-0.387207	
-0.387085	
-0.386841	
-0.387329	
-0.387207	
-0.387756	
-0.388245	
-0.38739	
-0.386963	
-0.386475	
-0.38739	
-0.387268	
-0.387634	
-0.387634	
-0.387268	
-0.388306	
-0.388367	
-0.387207	
-0.386414	
-0.386658	
-0.387146	
-0.387024	
-0.386841	
-0.385986	
-0.386353	
-0.387329	
-0.386597	
-0.385437	
-0.384277	
-0.38501	
-0.38562	
-0.385071	
-0.384338	
-0.384705	
-0.385132	
-0.386597	
-0.38623	
-0.385803	
-0.384399	
-0.38562	
-0.385193	
-0.38562	
-0.384033	
-0.385132	
-0.385254	
-0.385742	
-0.386108	
-0.385254	
-0.38501	
-0.38562	
-0.384644	
-0.385193	
-0.384277	
-0.384644	
-0.385132	
-0.385071	
-0.385681	
-0.385376	
-0.384583	
-0.383301	
-0.383362	
-0.38446	
-0.384399	
-0.384644	
-0.384521	
-0.384521	
-0.385559	
-0.385498	
-0.384583	
-0.383606	
-0.384094	
-0.384705	
-0.384827	
-0.38501	
-0.385193	
-0.385071	
-0.385986	
-0.386108	
-0.384644	
-0.38385	
-0.384888	
-0.384949	
-0.384521	
-0.384521	
-0.384766	
-0.384705	
-0.385559	
-0.385742	
-0.383972	
-0.382935	
-0.383911	
-0.383972	
-0.383545	
-0.382874	
-0.384338	
-0.384888	
-0.385681	
-0.385559	
-0.385315	
-0.384705	
-0.385559	
-0.385376	
-0.385803	
-0.385559	
-0.385681	
-0.386047	
-0.387085	
-0.386719	
-0.387695	
-0.386353	
-0.387268	
-0.386536	
-0.387268	
-0.387573	
-0.387878	
-0.387695	
-0.388123	
-0.388306	
-0.388733	
-0.387939	
-0.388306	
-0.388123	
-0.388428	
-0.38855	
-0.388489	
-0.388855	
-0.389038	
-0.390259	
-0.38916	
-0.388306	
-0.387817	
-0.388916	
-0.389282	
-0.389221	
-0.389404	
-0.38916	
-0.389343	
-0.390747	
-0.389893	
-0.388428	
-0.387268	
-0.387695	
-0.388306	
-0.387817	
-0.387329	
-0.387878	
-0.387939	
-0.388	
-0.387817	
-0.387268	
-0.386292	
-0.387207	
-0.386658	
-0.386047	
-0.38501	
-0.386108	
-0.386108	
-0.386475	
-0.386169	
-0.386353	
-0.385437	
-0.385986	
-0.385071	
-0.385742	
-0.385498	
-0.385498	
-0.385742	
-0.385925	
-0.386963	
-0.386902	
-0.385315	
-0.385193	
-0.384949	
-0.386047	
-0.385498	
-0.385986	
-0.385864	
-0.385742	
-0.387878	
-0.386841	
-0.385986	
-0.384094	
-0.385132	
-0.385803	
-0.385864	
-0.385986	
-0.386108	
-0.385986	
-0.387329	
-0.387024	
-0.38623	
-0.385498	
-0.385742	
-0.385925	
-0.386597	
-0.385498	
-0.386475	
-0.386292	
-0.386536	
-0.387268	
-0.386292	
-0.385925	
-0.386597	
-0.386108	
-0.386169	
-0.385254	
-0.385864	
-0.386292	
-0.38623	
-0.386475	
-0.385864	
-0.385193	
-0.385315	
-0.384033	
-0.38562	
-0.385254	
-0.385498	
-0.385742	
-0.386047	
-0.387085	
-0.387085	
-0.386169	
-0.385315	
-0.385864	
-0.386536	
-0.386414	
-0.387085	
-0.387756	
-0.388306	
-0.389343	
-0.389038	
-0.388123	
-0.387268	
-0.387146	
-0.388245	
-0.388489	
-0.388672	
-0.388428	
-0.388611	
-0.389465	
-0.390381	
-0.389282	
-0.388611	
-0.388794	
-0.389221	
-0.389038	
-0.388184	
-0.389099	
-0.389038	
-0.389282	
-0.389343	
-0.389465	
-0.388611	
-0.388611	
-0.38739	
-0.388245	
-0.387817	
-0.387573	
-0.387512	
-0.387817	
-0.388428	
-0.388062	
-0.386536	
-0.386047	
-0.386597	
-0.38678	
-0.386475	
-0.386536	
-0.38623	
-0.386719	
-0.388	
-0.387207	
-0.386292	
-0.384888	
-0.385986	
-0.385864	
-0.386108	
-0.386292	
-0.386475	
-0.386597	
-0.387695	
-0.38739	
-0.385986	
-0.384888	
-0.385559	
-0.385864	
-0.386658	
-0.385437	
-0.386292	
-0.385986	
-0.38678	
-0.387268	
-0.38678	
-0.385986	
-0.386108	
-0.386108	
-0.386536	
-0.385498	
-0.38678	
-0.386841	
-0.38739	
-0.387451	
-0.387695	
-0.386353	
-0.386658	
-0.38623	
-0.386597	
-0.38623	
-0.386536	
-0.386658	
-0.386658	
-0.387878	
-0.386841	
-0.385864	
-0.385071	
-0.385681	
-0.385986	
-0.385803	
-0.385315	
-0.385437	
-0.385864	
-0.386841	
-0.385315	
-0.385315	
-0.382935	
-0.384766	
-0.384216	
-0.38446	
-0.384399	
-0.38446	
-0.384216	
-0.385376	
-0.385315	
-0.385254	
-0.383423	
-0.383911	
-0.383179	
-0.38385	
-0.383301	
-0.384216	
-0.38385	
-0.384644	
-0.384277	
-0.38446	
-0.383301	
-0.383911	
-0.383545	
-0.38385	
-0.383545	
-0.383667	
-0.383484	
-0.383911	
-0.384216	
-0.383911	
-0.38385	
-0.384827	
-0.384583	
-0.384949	
-0.384888	
-0.385376	
-0.385986	
-0.385742	
-0.386658	
-0.385864	
-0.385254	
-0.384644	
-0.385742	
-0.385986	
-0.385864	
-0.38623	
-0.38623	
-0.385986	
-0.386169	
-0.386536	
-0.386658	
-0.385254	
-0.385071	
-0.384949	
-0.385742	
-0.384705	
-0.38562	
-0.386353	
-0.385803	
-0.386169	
-0.386475	
-0.385681	
-0.385925	
-0.385803	
-0.386353	
-0.385437	
-0.386169	
-0.386353	
-0.387329	
-0.387817	
-0.386841	
-0.385193	
-0.385498	
-0.386292	
-0.386902	
-0.386169	
-0.386108	
-0.386108	
-0.386841	
-0.387085	
-0.385986	
-0.385803	
-0.385803	
-0.385498	
-0.385742	
-0.385681	
-0.386108	
-0.385864	
-0.385803	
-0.386169	
-0.386047	
-0.386353	
-0.385864	
-0.385986	
-0.386292	
-0.386353	
-0.386902	
-0.386719	
-0.387268	
-0.387268	
-0.388	
-0.387634	
-0.386597	
-0.385986	
-0.385315	
-0.386414	
-0.386169	
-0.386108	
-0.386169	
-0.386169	
-0.386963	
-0.386169	
-0.384399	
-0.383545	
-0.383789	
-0.384521	
-0.383911	
-0.384277	
-0.383972	
-0.384766	
-0.384705	
-0.383789	
-0.382324	
-0.38269	
-0.382629	
-0.382751	
-0.381165	
-0.382629	
-0.382263	
-0.383057	
-0.382385	
-0.382141	
-0.38208	
-0.382507	
-0.381653	
-0.381531	
-0.381104	
-0.381958	
-0.381775	
-0.381775	
-0.381775	
-0.382629	
-0.381897	
-0.381348	
-0.380188	
-0.38031	
-0.381714	
-0.381348	
-0.381531	
-0.381958	
-0.382446	
-0.383667	
-0.382996	
-0.382568	
-0.381409	
-0.382446	
-0.382629	
-0.383423	
-0.383423	
-0.383057	
-0.384216	
-0.384338	
-0.384033	
-0.383057	
-0.383301	
-0.384399	
-0.384155	
-0.38385	
-0.384155	
-0.384644	
-0.385254	
-0.384521	
-0.384949	
-0.384277	
-0.384705	
-0.383362	
-0.383667	
-0.383789	
-0.384888	
-0.384216	
-0.384583	
-0.384521	
-0.385742	
-0.384949	
-0.384949	
-0.383484	
-0.383301	
-0.383728	
-0.384338	
-0.384583	
-0.384399	
-0.384338	
-0.385681	
-0.384094	
-0.38446	
-0.382568	
-0.384094	
-0.383606	
-0.383606	
-0.384094	
-0.383972	
-0.384949	
-0.384399	
-0.383667	
-0.382874	
-0.383118	
-0.38324	
-0.383301	
-0.38385	
-0.383423	
-0.383667	
-0.384583	
-0.384094	
-0.384216	
-0.383911	
-0.383667	
-0.383728	
-0.382935	
-0.384033	
-0.384277	
-0.38446	
-0.384705	
-0.384155	
-0.385559	
-0.384216	
-0.38446	
-0.381592	
-0.383484	
-0.382751	
-0.383789	
-0.383484	
-0.383484	
-0.383423	
-0.384277	
-0.382874	
-0.383301	
-0.381531	
-0.381775	
-0.381531	
-0.381653	
-0.381287	
-0.381226	
-0.38208	
-0.381042	
-0.380981	
-0.379761	
-0.380371	
-0.38031	
-0.380615	
-0.380615	
-0.380249	
-0.38031	
-0.380981	
-0.380615	
-0.38031	
-0.379761	
-0.379944	
-0.379822	
-0.380066	
-0.380066	
-0.380188	
-0.380615	
-0.38092	
-0.381104	
-0.382385	
-0.381714	
-0.381897	
-0.379883	
-0.381042	
-0.381958	
-0.382019	
-0.382141	
-0.382202	
-0.382507	
-0.383789	
-0.382813	
-0.382996	
-0.381348	
-0.382263	
-0.381775	
-0.382751	
-0.382507	
-0.382874	
-0.383667	
-0.383301	
-0.382935	
-0.382385	
-0.382507	
-0.382385	
-0.381531	
-0.382996	
-0.382751	
-0.383179	
-0.383362	
-0.383362	
-0.383667	
-0.38324	
-0.382629	
-0.382568	
-0.382568	
-0.383057	
-0.382935	
-0.383057	
-0.383057	
-0.382813	
-0.384033	
-0.382996	
-0.382019	
-0.380127	
-0.380676	
-0.382202	
-0.382324	
-0.381958	
-0.381775	
-0.382446	
-0.383423	
-0.382996	
-0.381348	
-0.38092	
-0.38147	
-0.382446	
-0.382385	
-0.382141	
-0.382874	
-0.383484	
-0.383362	
-0.383057	
-0.382568	
-0.382629	
-0.382568	
-0.382751	
-0.38385	
-0.38324	
-0.383911	
-0.384155	
-0.384338	
-0.384216	
-0.384766	
-0.383911	
-0.38385	
-0.383789	
-0.384216	
-0.384338	
-0.384338	
-0.384644	
-0.384521	
-0.385864	
-0.385498	
-0.383911	
-0.382324	
-0.383118	
-0.384094	
-0.384705	
-0.384521	
-0.384766	
-0.384949	
-0.385925	
-0.38501	
-0.38446	
-0.38324	
-0.383972	
-0.384155	
-0.384644	
-0.384338	
-0.384521	
-0.384338	
-0.383972	
-0.383545	
-0.382568	
-0.382202	
-0.381897	
-0.381531	
-0.382446	
-0.382324	
-0.381958	
-0.382507	
-0.382446	
-0.382507	
-0.38208	
-0.381897	
-0.381836	
-0.382141	
-0.382202	
-0.382202	
-0.382385	
-0.382507	
-0.382446	
-0.383118	
-0.383057	
-0.382019	
-0.381042	
-0.380981	
-0.381836	
-0.382202	
-0.381775	
-0.382202	
-0.381836	
-0.382813	
-0.382263	
-0.38147	
-0.380005	
-0.380615	
-0.381592	
-0.38147	
-0.381287	
-0.38092	
-0.38147	
-0.382019	
-0.381653	
-0.38147	
-0.380554	
-0.380859	
-0.380615	
-0.381226	
-0.381897	
-0.381653	
-0.382629	
-0.381958	
-0.382629	
-0.381775	
-0.381409	
-0.380676	
-0.381104	
-0.38147	
-0.381531	
-0.381287	
-0.381775	
-0.381531	
-0.382263	
-0.381958	
-0.380432	
-0.379761	
-0.379211	
-0.380798	
-0.380371	
-0.380798	
-0.381104	
-0.38092	
-0.382141	
-0.381775	
-0.381409	
-0.380859	
-0.381104	
-0.382385	
-0.382141	
-0.382385	
-0.382568	
-0.382996	
-0.383972	
-0.382996	
-0.383667	
-0.382263	
-0.382935	
-0.382813	
-0.383911	
-0.384583	
-0.384277	
-0.385742	
-0.385681	
-0.38501	
-0.384277	
-0.383728	
-0.384277	
-0.384277	
-0.385315	
-0.385376	
-0.385132	
-0.38623	
-0.385681	
-0.386292	
-0.386169	
-0.384888	
-0.384949	
-0.384094	
-0.385803	
-0.38562	
-0.385254	
-0.385925	
-0.385864	
-0.385925	
-0.385742	
-0.385437	
-0.385315	
-0.384949	
-0.384827	
-0.384766	
-0.384766	
-0.384399	
-0.384216	
-0.384277	
-0.384094	
-0.384399	
-0.383301	
-0.38324	
-0.38324	
-0.383301	
-0.382996	
-0.382935	
-0.38324	
-0.383484	
-0.383362	
-0.383362	
-0.380859	
-0.381165	
-0.381348	
-0.38269	
-0.382507	
-0.382446	
-0.383606	
-0.383057	
-0.382996	
-0.382629	
-0.382141	
-0.382019	
-0.380859	
-0.382751	
-0.382141	
-0.382507	
-0.383179	
-0.382568	
-0.382324	
-0.382446	
-0.382263	
-0.381775	
-0.381592	
-0.382324	
-0.382813	
-0.382751	
-0.382874	
-0.38269	
-0.383484	
-0.383179	
-0.383362	
-0.382507	
-0.382385	
-0.381836	
-0.382751	
-0.382935	
-0.38269	
-0.383118	
-0.383179	
-0.384033	
-0.383606	
-0.382385	
-0.381836	
-0.382324	
-0.382935	
-0.382568	
-0.383057	
-0.383789	
-0.383362	
-0.383118	
-0.381897	
-0.381226	
-0.382446	
-0.381653	
-0.382385	
-0.382202	
-0.382446	
-0.383179	
-0.38269	
-0.382935	
-0.383301	
-0.382996	
-0.382141	
-0.382141	
-0.383301	
-0.383118	
-0.383484	
-0.384033	
-0.384399	
-0.384644	
	
