C:\DOCUMENTS AND SETTINGS\JASON\DESKTOP\UFRJ\UFRJ EPHYS\RSCI-BM 12 WK SERIES\070806-RSCI-BM-16\RSCI-BM-16-REMG\070806-RSCI-BM-16-REMG-0011.ACQ
0.025000 msec/sample
1 channel
Analog input
Volts
CH1	
2000	
-0.382019	
-0.383179	
-0.381836	
-0.384277	
-0.383057	
-0.382751	
-0.38208	
-0.384705	
-0.383118	
-0.383301	
-0.38208	
-0.382996	
-0.382202	
-0.383972	
-0.382813	
-0.382813	
-0.382263	
-0.383667	
-0.382568	
-0.382385	
-0.382324	
-0.381958	
-0.38269	
-0.383301	
-0.382446	
-0.382263	
-0.382446	
-0.382813	
-0.382141	
-0.381714	
-0.381165	
-0.381958	
-0.382324	
-0.381958	
-0.381775	
-0.381287	
-0.382446	
-0.382446	
-0.381653	
-0.38092	
-0.380432	
-0.38092	
-0.381042	
-0.381165	
-0.38092	
-0.380859	
-0.382202	
-0.381958	
-0.381409	
-0.380249	
-0.380066	
-0.380737	
-0.381165	
-0.381104	
-0.380798	
-0.380859	
-0.381775	
-0.381165	
-0.381165	
-0.379089	
-0.380005	
-0.379456	
-0.380432	
-0.380432	
-0.379822	
-0.379822	
-0.381653	
-0.379822	
-0.380188	
-0.377563	
-0.379883	
-0.378479	
-0.380432	
-0.379822	
-0.379883	
-0.379456	
-0.381775	
-0.380005	
-0.380676	
-0.377319	
-0.379822	
-0.378784	
-0.380981	
-0.379822	
-0.380127	
-0.379456	
-0.38208	
-0.381104	
-0.38147	
-0.380127	
-0.381165	
-0.380371	
-0.382263	
-0.38208	
-0.382324	
-0.382141	
-0.384033	
-0.382874	
-0.383789	
-0.383118	
-0.383179	
-0.383423	
-0.384277	
-0.38385	
-0.383789	
-0.384155	
-0.38501	
-0.384216	
-0.384705	
-0.383118	
-0.384033	
-0.384155	
-0.38385	
-0.384338	
-0.383728	
-0.384033	
-0.384399	
-0.383362	
-0.383301	
-0.381958	
-0.383057	
-0.383179	
-0.383118	
-0.382935	
-0.382629	
-0.383301	
-0.383301	
-0.382568	
-0.381653	
-0.381409	
-0.381165	
-0.381287	
-0.38092	
-0.380798	
-0.380676	
-0.381531	
-0.380676	
-0.380676	
-0.378906	
-0.379883	
-0.379883	
-0.380371	
-0.379578	
-0.379517	
-0.378601	
-0.380859	
-0.379639	
-0.379517	
-0.377808	
-0.379517	
-0.379272	
-0.379822	
-0.379456	
-0.379333	
-0.379578	
-0.38092	
-0.379822	
-0.380066	
-0.378662	
-0.379822	
-0.379883	
-0.38031	
-0.379944	
-0.379822	
-0.380066	
-0.38147	
-0.380493	
-0.380127	
-0.378784	
-0.380188	
-0.380188	
-0.380188	
-0.380188	
-0.380066	
-0.380188	
-0.381409	
-0.38031	
-0.380737	
-0.379089	
-0.380493	
-0.380127	
-0.380676	
-0.380371	
-0.380371	
-0.380981	
-0.382507	
-0.380737	
-0.381104	
-0.379517	
-0.380981	
-0.380798	
-0.380798	
-0.38092	
-0.380066	
-0.381592	
-0.38208	
-0.380981	
-0.373108	
-0.366394	
-0.366333	
-0.367615	
-0.36731	
-0.367737	
-0.376648	
-0.382813	
-0.382935	
-0.382629	
-0.382385	
-0.382202	
-0.382141	
-0.381958	
-0.38208	
-0.381897	
-0.381409	
-0.382568	
-0.381409	
-0.381531	
-0.379761	
-0.380798	
-0.381165	
-0.380554	
-0.38031	
-0.3797	
-0.380249	
-0.381592	
-0.3797	
-0.379028	
-0.377014	
-0.379333	
-0.379089	
-0.37854	
-0.378662	
-0.378723	
-0.378662	
-0.379883	
-0.378113	
-0.37793	
-0.376282	
-0.377991	
-0.378357	
-0.377808	
-0.377686	
-0.37677	
-0.377625	
-0.379272	
-0.377258	
-0.377136	
-0.375732	
-0.376892	
-0.376587	
-0.375977	
-0.375488	
-0.375366	
-0.37616	
-0.376587	
-0.375671	
-0.375793	
-0.374756	
-0.375732	
-0.375305	
-0.375916	
-0.375977	
-0.376953	
-0.377258	
-0.378113	
-0.377502	
-0.377991	
-0.377197	
-0.378662	
-0.378113	
-0.378906	
-0.378845	
-0.378967	
-0.3797	
-0.379578	
-0.379578	
-0.379883	
-0.379883	
-0.380432	
-0.37915	
-0.380066	
-0.380554	
-0.380432	
-0.382202	
-0.381104	
-0.381287	
-0.381287	
-0.381653	
-0.382568	
-0.381348	
-0.383118	
-0.382996	
-0.384155	
-0.386353	
-0.385437	
-0.386108	
-0.386047	
-0.387634	
-0.389648	
-0.389771	
-0.39093	
-0.390686	
-0.394043	
-0.39563	
-0.396118	
-0.397339	
-0.398254	
-0.400879	
-0.402161	
-0.404297	
-0.406067	
-0.408203	
-0.411194	
-0.411072	
-0.412048	
-0.412842	
-0.414185	
-0.416443	
-0.4151	
-0.417358	
-0.417664	
-0.418945	
-0.419556	
-0.418579	
-0.418274	
-0.416931	
-0.417908	
-0.417358	
-0.417542	
-0.417664	
-0.41864	
-0.421082	
-0.420959	
-0.422363	
-0.423767	
-0.42688	
-0.430237	
-0.431091	
-0.434998	
-0.43573	
-0.439331	
-0.44165	
-0.442383	
-0.443909	
-0.44574	
-0.447388	
-0.449158	
-0.449585	
-0.45105	
-0.451599	
-0.453308	
-0.453796	
-0.453796	
-0.452881	
-0.452087	
-0.453064	
-0.452026	
-0.451782	
-0.450439	
-0.449158	
-0.44928	
-0.447327	
-0.444946	
-0.442078	
-0.441467	
-0.440613	
-0.43866	
-0.438293	
-0.436646	
-0.436279	
-0.436157	
-0.433838	
-0.432495	
-0.431458	
-0.431335	
-0.431091	
-0.429321	
-0.429565	
-0.429077	
-0.42926	
-0.42981	
-0.428894	
-0.428772	
-0.428772	
-0.428833	
-0.428345	
-0.427002	
-0.425659	
-0.423462	
-0.423523	
-0.422119	
-0.419434	
-0.416382	
-0.414368	
-0.411316	
-0.408447	
-0.404175	
-0.400818	
-0.397217	
-0.394958	
-0.391418	
-0.38739	
-0.383179	
-0.379517	
-0.377869	
-0.375366	
-0.372742	
-0.370178	
-0.368286	
-0.367188	
-0.365417	
-0.362854	
-0.360168	
-0.358948	
-0.358582	
-0.357056	
-0.355957	
-0.354553	
-0.353882	
-0.354248	
-0.352051	
-0.350098	
-0.348816	
-0.347534	
-0.346375	
-0.343445	
-0.342651	
-0.341125	
-0.341187	
-0.341125	
-0.339172	
-0.338623	
-0.337708	
-0.337585	
-0.337769	
-0.336792	
-0.33667	
-0.337219	
-0.337952	
-0.338318	
-0.338318	
-0.33728	
-0.338135	
-0.339905	
-0.34021	
-0.340332	
-0.341064	
-0.342041	
-0.343811	
-0.34436	
-0.343994	
-0.344543	
-0.345703	
-0.346985	
-0.345581	
-0.346619	
-0.347473	
-0.348755	
-0.349365	
-0.349426	
-0.349915	
-0.351318	
-0.352478	
-0.352661	
-0.352905	
-0.353333	
-0.353699	
-0.354614	
-0.354858	
-0.354126	
-0.355164	
-0.355164	
-0.356201	
-0.35498	
-0.355957	
-0.355469	
-0.3573	
-0.352783	
-0.343018	
-0.34198	
-0.343018	
-0.34375	
-0.344543	
-0.351318	
-0.357605	
-0.358643	
-0.359131	
-0.359436	
-0.357666	
-0.358276	
-0.357788	
-0.358093	
-0.356506	
-0.357239	
-0.35675	
-0.357422	
-0.357483	
-0.357117	
-0.356079	
-0.357178	
-0.358093	
-0.359009	
-0.358582	
-0.358704	
-0.359436	
-0.359985	
-0.360962	
-0.359924	
-0.360535	
-0.360229	
-0.360779	
-0.359375	
-0.360596	
-0.361145	
-0.362	
-0.361877	
-0.361328	
-0.360657	
-0.361755	
-0.361572	
-0.362915	
-0.362244	
-0.362183	
-0.362244	
-0.363037	
-0.364136	
-0.36322	
-0.363831	
-0.363159	
-0.364441	
-0.364258	
-0.364746	
-0.364929	
-0.365479	
-0.36615	
-0.36554	
-0.364746	
-0.364685	
-0.365112	
-0.365784	
-0.365234	
-0.365601	
-0.365723	
-0.366577	
-0.366516	
-0.366394	
-0.366089	
-0.36676	
-0.36731	
-0.368591	
-0.368103	
-0.368286	
-0.36792	
-0.369263	
-0.36969	
-0.369324	
-0.370544	
-0.369751	
-0.371155	
-0.370911	
-0.371033	
-0.371521	
-0.372009	
-0.373352	
-0.373413	
-0.372559	
-0.373169	
-0.373352	
-0.375	
-0.374634	
-0.375549	
-0.376221	
-0.377869	
-0.378418	
-0.379089	
-0.379456	
-0.380676	
-0.381958	
-0.38324	
-0.384583	
-0.386047	
-0.387085	
-0.390991	
-0.391907	
-0.39325	
-0.395325	
-0.395996	
-0.398438	
-0.399658	
-0.402649	
-0.404785	
-0.407166	
-0.40918	
-0.410583	
-0.411072	
-0.412292	
-0.412537	
-0.413086	
-0.413208	
-0.413025	
-0.411743	
-0.413635	
-0.412842	
-0.411316	
-0.411987	
-0.410156	
-0.412292	
-0.412109	
-0.413757	
-0.414917	
-0.417419	
-0.418945	
-0.420959	
-0.42157	
-0.425049	
-0.427979	
-0.431152	
-0.432434	
-0.434937	
-0.43573	
-0.438599	
-0.440613	
-0.440247	
-0.441956	
-0.441589	
-0.443604	
-0.44342	
-0.444336	
-0.445007	
-0.446045	
-0.446106	
-0.446045	
-0.444275	
-0.44458	
-0.442993	
-0.443359	
-0.441711	
-0.441101	
-0.440247	
-0.440796	
-0.439514	
-0.43811	
-0.436157	
-0.436279	
-0.434937	
-0.434814	
-0.433655	
-0.433716	
-0.431946	
-0.433228	
-0.431641	
-0.430847	
-0.430237	
-0.430481	
-0.430542	
-0.430969	
-0.429749	
-0.429443	
-0.428101	
-0.429382	
-0.42804	
-0.426636	
-0.425659	
-0.424194	
-0.423523	
-0.422485	
-0.420349	
-0.41803	
-0.416077	
-0.414368	
-0.411072	
-0.40686	
-0.40332	
-0.399597	
-0.397949	
-0.393005	
-0.391357	
-0.387146	
-0.385315	
-0.381653	
-0.378845	
-0.374084	
-0.372314	
-0.369934	
-0.367615	
-0.364807	
-0.362427	
-0.359497	
-0.359497	
-0.356873	
-0.355164	
-0.354187	
-0.353088	
-0.3526	
-0.352173	
-0.351196	
-0.350037	
-0.349243	
-0.349121	
-0.34845	
-0.34729	
-0.347046	
-0.346008	
-0.345764	
-0.34491	
-0.345276	
-0.344482	
-0.34491	
-0.345398	
-0.345154	
-0.344116	
-0.344727	
-0.343689	
-0.345093	
-0.344666	
-0.345337	
-0.345398	
-0.348083	
-0.347717	
-0.348206	
-0.348633	
-0.349121	
-0.350525	
-0.350464	
-0.35083	
-0.351074	
-0.351807	
-0.35199	
-0.352173	
-0.351868	
-0.35144	
-0.351685	
-0.353088	
-0.353149	
-0.353882	
-0.354431	
-0.356201	
-0.355835	
-0.356689	
-0.356018	
-0.357544	
-0.357361	
-0.357727	
-0.357666	
-0.357727	
-0.358032	
-0.358765	
-0.359314	
-0.358643	
-0.357971	
-0.358093	
-0.35968	
-0.359192	
-0.359558	
-0.359314	
-0.360779	
-0.360168	
-0.360413	
-0.359436	
-0.361694	
-0.361145	
-0.361816	
-0.361023	
-0.361511	
-0.362122	
-0.362305	
-0.362366	
-0.361877	
-0.361267	
-0.361389	
-0.362244	
-0.362183	
-0.36322	
-0.362793	
-0.364075	
-0.364075	
-0.364136	
-0.363281	
-0.364929	
-0.36499	
-0.365784	
-0.36438	
-0.365173	
-0.365051	
-0.365723	
-0.365723	
-0.365479	
-0.365479	
-0.366028	
-0.366211	
-0.366272	
-0.366516	
-0.36615	
-0.367615	
-0.367188	
-0.366882	
-0.365662	
-0.366516	
-0.365845	
-0.367371	
-0.365784	
-0.366455	
-0.365906	
-0.367126	
-0.366455	
-0.367371	
-0.367004	
-0.368103	
-0.367615	
-0.367676	
-0.367371	
-0.367798	
-0.368408	
-0.368713	
-0.368408	
-0.367676	
-0.368042	
-0.368896	
-0.369385	
-0.369141	
-0.369507	
-0.369751	
-0.370789	
-0.371155	
-0.371033	
-0.370483	
-0.370422	
-0.370422	
-0.372314	
-0.371399	
-0.372009	
-0.371155	
-0.372253	
-0.37207	
-0.372559	
-0.372192	
-0.372864	
-0.372437	
-0.372681	
-0.37146	
-0.372375	
-0.373779	
-0.37384	
-0.373413	
-0.372681	
-0.373474	
-0.37439	
-0.37384	
-0.37384	
-0.374084	
-0.373535	
-0.37439	
-0.375061	
-0.374512	
-0.37439	
-0.374573	
-0.374268	
-0.375671	
-0.374817	
-0.374939	
-0.374939	
-0.375061	
-0.375122	
-0.375244	
-0.374939	
-0.376404	
-0.374878	
-0.376587	
-0.375244	
-0.376465	
-0.377136	
-0.377136	
-0.376709	
-0.377136	
-0.376404	
-0.37738	
-0.377014	
-0.376526	
-0.376099	
-0.376404	
-0.376465	
-0.376526	
-0.37616	
-0.375549	
-0.375732	
-0.375549	
-0.376282	
-0.375305	
-0.375244	
-0.374756	
-0.375183	
-0.37616	
-0.375183	
-0.374878	
-0.374512	
-0.374512	
-0.375427	
-0.374634	
-0.374939	
-0.37561	
-0.375122	
-0.375183	
-0.374573	
-0.374817	
-0.375427	
-0.374268	
-0.375	
-0.374023	
-0.375122	
-0.375671	
-0.375305	
-0.375122	
-0.375488	
-0.375061	
-0.376038	
-0.375305	
-0.374695	
-0.374878	
-0.373901	
-0.374756	
-0.375977	
-0.374756	
-0.375122	
-0.374512	
-0.375244	
-0.376221	
-0.375366	
-0.37561	
-0.376892	
-0.376587	
-0.377502	
-0.377075	
-0.377808	
-0.378906	
-0.378052	
-0.37915	
-0.378479	
-0.379272	
-0.380371	
-0.380493	
-0.379944	
-0.380676	
-0.380493	
-0.381714	
-0.381775	
-0.380737	
-0.381287	
-0.381592	
-0.38147	
-0.38208	
-0.380981	
-0.381714	
-0.381531	
-0.381226	
-0.381226	
-0.381165	
-0.381592	
-0.382263	
-0.38147	
-0.381531	
-0.381958	
-0.381104	
-0.381226	
-0.380127	
-0.380188	
-0.379211	
-0.379456	
-0.380066	
-0.381042	
-0.379822	
-0.379761	
-0.379944	
-0.379822	
-0.379517	
-0.378967	
-0.378662	
-0.379272	
-0.378479	
-0.378235	
-0.376648	
-0.377014	
-0.377319	
-0.376831	
-0.376221	
-0.37561	
-0.375427	
-0.375488	
-0.375916	
-0.374939	
-0.375854	
-0.373718	
-0.375061	
-0.375122	
-0.374756	
-0.374756	
-0.374512	
-0.37561	
-0.375671	
-0.375793	
-0.376221	
-0.37677	
-0.377991	
-0.377197	
-0.37677	
-0.375977	
-0.37793	
-0.377563	
-0.377197	
-0.376099	
-0.377075	
-0.377197	
-0.37793	
-0.376648	
-0.377197	
-0.37677	
-0.37738	
-0.377991	
-0.377258	
-0.377747	
-0.37616	
-0.377502	
-0.378174	
-0.377502	
-0.377136	
-0.377014	
-0.377502	
-0.377991	
-0.377319	
-0.378113	
-0.377197	
-0.377563	
-0.376831	
-0.377625	
-0.377563	
-0.377991	
-0.378235	
-0.378113	
-0.377136	
-0.37793	
-0.378174	
-0.378418	
-0.377625	
-0.378296	
-0.377502	
-0.378723	
-0.37854	
-0.377808	
-0.377991	
-0.376953	
-0.377747	
-0.378723	
-0.377869	
-0.377686	
-0.376709	
-0.378174	
-0.378784	
-0.377869	
-0.379211	
-0.377869	
-0.378601	
-0.37915	
-0.37915	
-0.379089	
-0.378906	
-0.379211	
-0.379333	
-0.378662	
-0.379578	
-0.378967	
-0.379211	
-0.379944	
-0.3797	
-0.379089	
-0.380066	
-0.379822	
-0.379578	
-0.379883	
-0.3797	
-0.380188	
-0.380737	
-0.380249	
-0.379883	
-0.378967	
-0.380066	
-0.380798	
-0.379578	
-0.380066	
-0.378418	
-0.379456	
-0.379333	
-0.379272	
-0.379089	
-0.378662	
-0.378723	
-0.378296	
-0.377625	
-0.378357	
-0.377563	
-0.377319	
-0.377197	
-0.377136	
-0.37677	
-0.376648	
-0.376709	
-0.376587	
-0.376404	
-0.376404	
-0.376587	
-0.376709	
-0.377258	
-0.376343	
-0.376221	
-0.376709	
-0.376709	
-0.376404	
-0.377197	
-0.376404	
-0.377502	
-0.377991	
-0.377502	
-0.37738	
-0.376953	
-0.378235	
-0.378906	
-0.37793	
-0.379456	
-0.377991	
-0.37915	
-0.379089	
-0.379517	
-0.379089	
-0.379761	
-0.379517	
-0.380554	
-0.379456	
-0.380249	
-0.380432	
-0.381042	
-0.381226	
-0.380676	
-0.380554	
-0.380798	
-0.381287	
-0.381104	
-0.381287	
-0.381104	
-0.381592	
-0.381531	
-0.382202	
-0.381287	
-0.381592	
-0.380615	
-0.381958	
-0.381165	
-0.381836	
-0.381714	
-0.381165	
-0.381653	
-0.382263	
-0.38092	
-0.380798	
-0.380737	
-0.381714	
-0.3797	
-0.381531	
-0.380188	
-0.380981	
-0.381104	
-0.380737	
-0.38092	
-0.380676	
-0.381226	
-0.382324	
-0.380859	
-0.381592	
-0.380676	
-0.38092	
-0.381714	
-0.380188	
-0.381104	
-0.380493	
-0.380981	
-0.380493	
-0.380981	
-0.380737	
-0.380432	
-0.38092	
-0.381836	
-0.38092	
-0.381042	
-0.379517	
-0.38092	
-0.380676	
-0.381042	
-0.38031	
-0.380798	
-0.380798	
-0.381226	
-0.380737	
-0.380798	
-0.380554	
-0.381165	
-0.379272	
-0.380798	
-0.379089	
-0.379883	
-0.379517	
-0.379883	
-0.380615	
-0.380127	
-0.380432	
-0.380493	
-0.379822	
-0.381287	
-0.38092	
-0.381226	
-0.382385	
-0.381653	
-0.381714	
-0.381226	
-0.382813	
-0.382141	
-0.382751	
-0.382446	
-0.383057	
-0.382935	
-0.384277	
-0.383423	
-0.38324	
-0.382385	
-0.384521	
-0.383667	
-0.384583	
-0.382751	
-0.384277	
-0.383789	
-0.385071	
-0.384949	
-0.384827	
-0.383728	
-0.38562	
-0.384888	
-0.385803	
-0.385315	
-0.385437	
-0.385559	
-0.386353	
-0.385864	
-0.387024	
-0.386414	
-0.386658	
-0.386108	
-0.387329	
-0.387085	
-0.386963	
-0.388062	
-0.387573	
-0.387329	
-0.387146	
-0.387817	
-0.387207	
-0.387268	
-0.386475	
-0.385986	
-0.385803	
-0.386597	
-0.38501	
-0.384827	
-0.384033	
-0.384888	
-0.383972	
-0.384155	
-0.383179	
-0.383972	
-0.382813	
-0.384155	
-0.383118	
-0.383362	
-0.38208	
-0.38324	
-0.382324	
-0.382996	
-0.382263	
-0.382019	
-0.381348	
-0.382935	
-0.382202	
-0.382202	
-0.381653	
-0.382446	
-0.380981	
-0.38208	
-0.381531	
-0.381531	
-0.382385	
-0.381775	
-0.382202	
-0.382263	
-0.382019	
-0.381714	
-0.381958	
-0.381775	
-0.38208	
-0.381836	
-0.383606	
-0.382507	
-0.382629	
-0.381592	
-0.383362	
-0.38324	
-0.38385	
-0.383545	
-0.383911	
-0.383728	
-0.386108	
-0.38501	
-0.385132	
-0.384094	
-0.386047	
-0.385803	
-0.387024	
-0.386414	
-0.386169	
-0.386353	
-0.387939	
-0.386475	
-0.38678	
-0.386719	
-0.38739	
-0.386047	
-0.386963	
-0.38562	
-0.386658	
-0.386902	
-0.386658	
-0.386353	
-0.387268	
-0.386719	
-0.387268	
-0.386169	
-0.386536	
-0.385437	
-0.386475	
-0.387024	
-0.386902	
-0.386963	
-0.385559	
-0.386108	
-0.387085	
-0.386597	
-0.385498	
-0.38562	
-0.385071	
-0.386841	
-0.385925	
-0.385498	
-0.385193	
-0.385864	
-0.385498	
-0.386169	
-0.385071	
-0.38562	
-0.384583	
-0.38623	
-0.385376	
-0.384888	
-0.384338	
-0.385193	
-0.384888	
-0.385193	
-0.38446	
-0.38446	
-0.384949	
-0.385376	
-0.384766	
-0.384949	
-0.38446	
-0.38446	
-0.384155	
-0.384399	
-0.38446	
-0.383911	
-0.384949	
-0.384644	
-0.384155	
-0.38446	
-0.384521	
-0.384583	
-0.383362	
-0.384033	
-0.383911	
-0.38385	
-0.384766	
-0.383728	
-0.383789	
-0.38324	
-0.383362	
-0.384216	
-0.382996	
-0.383301	
-0.382263	
-0.382935	
-0.384277	
-0.383362	
-0.383118	
-0.382263	
-0.38324	
-0.383789	
-0.384216	
-0.383057	
-0.38269	
-0.382446	
-0.383972	
-0.383118	
-0.383118	
-0.382935	
-0.383423	
-0.38324	
-0.384399	
-0.383484	
-0.383728	
-0.383728	
-0.383911	
-0.384521	
-0.384094	
-0.384338	
-0.38501	
-0.384705	
-0.386292	
-0.385559	
-0.385437	
-0.38623	
-0.386353	
-0.386169	
-0.385559	
-0.386475	
-0.386841	
-0.386475	
-0.387146	
-0.386658	
-0.386719	
-0.388184	
-0.387268	
-0.387146	
-0.386108	
-0.386963	
-0.387146	
-0.385803	
-0.386597	
-0.385986	
-0.386108	
-0.387085	
-0.386169	
-0.385925	
-0.385986	
-0.385925	
-0.38623	
-0.384949	
-0.385315	
-0.384399	
-0.384949	
-0.385376	
-0.384338	
-0.384094	
-0.384216	
-0.384155	
-0.384155	
-0.384216	
-0.383057	
-0.382874	
-0.382568	
-0.383423	
-0.382935	
-0.382263	
-0.382324	
-0.38208	
-0.382141	
-0.382874	
-0.382507	
-0.382202	
-0.382324	
-0.381775	
-0.381775	
-0.381348	
-0.381775	
-0.382263	
-0.381836	
-0.382385	
-0.381653	
-0.381897	
-0.382568	
-0.382568	
-0.382141	
-0.382568	
-0.382385	
-0.382874	
-0.382629	
-0.382813	
-0.382141	
-0.38269	
-0.383301	
-0.382568	
-0.382568	
-0.382813	
-0.38269	
-0.383118	
-0.381714	
-0.382751	
-0.382385	
-0.383301	
-0.383789	
-0.383057	
-0.382507	
-0.382446	
-0.383179	
-0.383728	
-0.382751	
-0.38324	
-0.381958	
-0.383545	
-0.383728	
-0.383118	
-0.382263	
-0.383606	
-0.383301	
-0.384033	
-0.384216	
-0.382813	
-0.382813	
-0.38269	
-0.383179	
-0.382996	
-0.383484	
-0.383667	
-0.384521	
-0.384644	
-0.384949	
-0.38385	
-0.384399	
-0.384521	
-0.384583	
-0.384155	
-0.384155	
-0.383789	
-0.383789	
-0.383728	
-0.383728	
-0.383057	
-0.38385	
-0.383118	
-0.382385	
-0.381775	
-0.382507	
-0.382446	
-0.382385	
-0.381409	
-0.381653	
-0.381409	
-0.382202	
-0.381592	
-0.381165	
-0.380127	
-0.380859	
-0.380432	
-0.380615	
-0.380127	
-0.380188	
-0.379883	
-0.379456	
-0.380981	
-0.379517	
-0.379517	
-0.378723	
-0.379761	
-0.380005	
-0.3797	
-0.379211	
-0.378601	
-0.378357	
-0.3797	
-0.378418	
-0.378296	
-0.377869	
-0.377869	
-0.378296	
-0.378052	
-0.377625	
-0.376831	
-0.377258	
-0.377502	
-0.376892	
-0.377747	
-0.377319	
-0.377808	
-0.378174	
-0.378723	
-0.378601	
-0.379517	
-0.379761	
-0.3797	
-0.378967	
-0.380859	
-0.380493	
-0.38092	
-0.380188	
-0.380798	
-0.380737	
-0.382141	
-0.382019	
-0.381592	
-0.381531	
-0.382263	
-0.382385	
-0.382263	
-0.382568	
-0.382507	
-0.382324	
-0.382935	
-0.383301	
-0.382751	
-0.383301	
-0.382446	
-0.383179	
-0.383423	
-0.383911	
-0.383179	
-0.382813	
-0.382324	
-0.38324	
-0.38269	
-0.383484	
-0.382446	
-0.382751	
-0.383545	
-0.38385	
-0.382813	
-0.382141	
-0.382202	
-0.383667	
-0.382629	
-0.383301	
-0.381836	
-0.382263	
-0.381714	
-0.382507	
-0.381531	
-0.381226	
-0.380798	
-0.381165	
-0.379211	
-0.380432	
-0.379517	
-0.379395	
-0.379272	
-0.379456	
-0.379089	
-0.379272	
-0.378723	
-0.378723	
-0.378235	
-0.378723	
-0.378418	
-0.378418	
-0.378845	
-0.378418	
-0.378784	
-0.378296	
-0.378845	
-0.378479	
-0.378723	
-0.378235	
-0.378418	
-0.378845	
-0.379395	
-0.379028	
-0.378845	
-0.377625	
-0.379395	
-0.378113	
-0.379639	
-0.378601	
-0.37854	
-0.378906	
-0.380371	
-0.3797	
-0.378906	
-0.37915	
-0.380249	
-0.378662	
-0.380249	
-0.378601	
-0.379639	
-0.380493	
-0.3797	
-0.380005	
-0.379517	
-0.380066	
-0.38092	
-0.379883	
-0.380676	
-0.379333	
-0.38031	
-0.381409	
-0.38031	
-0.380554	
-0.380249	
-0.381348	
-0.381287	
-0.380981	
-0.380676	
-0.380371	
-0.380859	
-0.380798	
-0.380737	
-0.380798	
-0.380493	
-0.381042	
-0.38092	
-0.380981	
-0.380493	
-0.381165	
-0.381165	
-0.381592	
-0.381287	
-0.381165	
-0.38092	
-0.381653	
-0.381775	
-0.382202	
-0.381592	
-0.382141	
-0.381836	
-0.383179	
-0.381958	
-0.381592	
-0.381592	
-0.382141	
-0.381897	
-0.382629	
-0.382019	
-0.382263	
-0.38208	
-0.382813	
-0.381958	
-0.381653	
-0.382019	
-0.382446	
-0.382019	
-0.38269	
-0.381592	
-0.381714	
-0.381409	
-0.381653	
-0.380981	
-0.38147	
-0.380493	
-0.381409	
-0.379456	
-0.38092	
-0.379395	
-0.379578	
-0.379822	
-0.379028	
-0.378845	
-0.379883	
-0.378723	
-0.379883	
-0.377319	
-0.378235	
-0.377136	
-0.378296	
-0.378418	
-0.377991	
-0.377808	
-0.378235	
-0.378052	
-0.378662	
-0.378052	
-0.377869	
-0.37793	
-0.377991	
-0.378601	
-0.378418	
-0.378662	
-0.378662	
-0.379395	
-0.379089	
-0.379944	
-0.379395	
-0.379639	
-0.379028	
-0.380432	
-0.38031	
-0.379822	
-0.380737	
-0.381165	
-0.38092	
-0.381653	
-0.380615	
-0.381592	
-0.382263	
-0.382019	
-0.38208	
-0.38092	
-0.38208	
-0.38269	
-0.382385	
-0.382996	
-0.382202	
-0.383118	
-0.383606	
-0.38324	
-0.383057	
-0.383057	
-0.383423	
-0.383972	
-0.383423	
-0.38324	
-0.382324	
-0.383362	
-0.383606	
-0.383301	
-0.382874	
-0.383179	
-0.383118	
-0.383606	
-0.38324	
-0.382568	
-0.382568	
-0.382324	
-0.383301	
-0.383118	
-0.382019	
-0.382141	
-0.38269	
-0.382507	
-0.38269	
-0.382385	
-0.382874	
-0.38208	
-0.383423	
-0.38208	
-0.381104	
-0.381897	
-0.382629	
-0.382324	
-0.381409	
-0.381897	
-0.381897	
-0.382385	
-0.382202	
-0.381287	
-0.381592	
-0.382629	
-0.381836	
-0.381592	
-0.381226	
-0.381714	
-0.381653	
-0.381775	
-0.381836	
-0.381897	
-0.381531	
-0.382324	
-0.382751	
-0.381592	
-0.381409	
-0.380981	
-0.381348	
-0.381042	
-0.380798	
-0.380615	
-0.380798	
-0.381348	
-0.381714	
-0.381042	
-0.381287	
-0.38031	
-0.381775	
-0.381958	
-0.381104	
-0.38147	
-0.381165	
-0.382751	
-0.382996	
-0.382996	
-0.382813	
-0.381836	
-0.383728	
-0.384033	
-0.383423	
-0.382385	
-0.382935	
-0.384399	
-0.384827	
-0.384644	
-0.384277	
-0.383972	
-0.385254	
-0.385193	
-0.384888	
-0.384399	
-0.385559	
-0.385193	
-0.385803	
-0.386047	
-0.385498	
-0.385864	
-0.385132	
-0.385803	
-0.385864	
-0.385498	
-0.386353	
-0.386353	
-0.386719	
-0.387268	
-0.38678	
-0.387329	
-0.387512	
-0.387634	
-0.387329	
-0.387817	
-0.388855	
-0.387573	
-0.387939	
-0.387085	
-0.387268	
-0.387268	
-0.387451	
-0.386353	
-0.386047	
-0.385498	
-0.386047	
-0.385681	
-0.385376	
-0.383362	
-0.383362	
-0.383972	
-0.384766	
-0.383667	
-0.383301	
-0.382202	
-0.383667	
-0.383789	
-0.382813	
-0.382202	
-0.381592	
-0.382813	
-0.383362	
-0.382141	
-0.382019	
-0.381226	
-0.38269	
-0.382935	
-0.381836	
-0.381958	
-0.381104	
-0.382019	
-0.382263	
-0.38208	
-0.381592	
-0.382019	
-0.382324	
-0.382629	
-0.381958	
-0.381775	
-0.38147	
-0.382141	
-0.382385	
-0.382385	
-0.381226	
-0.382385	
-0.382996	
-0.382813	
-0.383606	
-0.382935	
-0.383179	
-0.383606	
-0.383179	
-0.384033	
-0.38269	
-0.384949	
-0.385376	
-0.385254	
-0.386353	
-0.385071	
-0.386292	
-0.387329	
-0.385925	
-0.38623	
-0.385132	
-0.387085	
-0.387085	
-0.386719	
-0.386414	
-0.385864	
-0.386658	
-0.387329	
-0.386292	
-0.385681	
	
