C:\DOCUMENTS AND SETTINGS\JASON\DESKTOP\UFRJ\UFRJ EPHYS\RSCI-BM 12 WK SERIES\070806-RSCI-BM-16\RSCI-BM-16-REMG\070806-RSCI-BM-16-REMG-0004.ACQ
0.025000 msec/sample
1 channel
Analog input
Volts
CH1	
2000	
-0.380798	
-0.381836	
-0.382568	
-0.381409	
-0.38147	
-0.380981	
-0.382385	
-0.382263	
-0.382751	
-0.381653	
-0.380981	
-0.381592	
-0.382446	
-0.381897	
-0.381958	
-0.382019	
-0.38208	
-0.382568	
-0.382996	
-0.381958	
-0.381653	
-0.382141	
-0.382019	
-0.381897	
-0.381653	
-0.382385	
-0.382141	
-0.383301	
-0.382813	
-0.382324	
-0.381531	
-0.382507	
-0.38324	
-0.38208	
-0.381653	
-0.382263	
-0.38208	
-0.382874	
-0.381775	
-0.38147	
-0.38031	
-0.381226	
-0.381714	
-0.380798	
-0.381165	
-0.38147	
-0.381226	
-0.382019	
-0.381409	
-0.381042	
-0.379822	
-0.38092	
-0.381409	
-0.380615	
-0.380981	
-0.380432	
-0.380859	
-0.381592	
-0.38092	
-0.380615	
-0.379578	
-0.380798	
-0.380981	
-0.38031	
-0.380493	
-0.379761	
-0.380066	
-0.380737	
-0.380615	
-0.379822	
-0.37915	
-0.380005	
-0.380859	
-0.379761	
-0.379395	
-0.378723	
-0.379883	
-0.380493	
-0.380615	
-0.3797	
-0.378784	
-0.379761	
-0.38092	
-0.379944	
-0.379944	
-0.380249	
-0.38092	
-0.381287	
-0.380981	
-0.380249	
-0.379822	
-0.379883	
-0.381592	
-0.380188	
-0.380554	
-0.380127	
-0.380615	
-0.381104	
-0.381287	
-0.38031	
-0.379517	
-0.380371	
-0.38147	
-0.380615	
-0.380371	
-0.379883	
-0.38031	
-0.381104	
-0.380249	
-0.379944	
-0.379822	
-0.380981	
-0.382935	
-0.381531	
-0.381897	
-0.380737	
-0.381836	
-0.382813	
-0.382446	
-0.382446	
-0.381348	
-0.382568	
-0.383423	
-0.38208	
-0.382202	
-0.381165	
-0.382874	
-0.382996	
-0.383789	
-0.383118	
-0.383301	
-0.383423	
-0.385132	
-0.38385	
-0.38324	
-0.381592	
-0.383728	
-0.383728	
-0.384338	
-0.38385	
-0.38385	
-0.384888	
-0.385925	
-0.384216	
-0.383911	
-0.382385	
-0.384338	
-0.384338	
-0.384094	
-0.383789	
-0.383789	
-0.383606	
-0.385315	
-0.383179	
-0.383118	
-0.38092	
-0.382751	
-0.38269	
-0.382507	
-0.382568	
-0.382202	
-0.381958	
-0.383789	
-0.381653	
-0.382202	
-0.3797	
-0.381714	
-0.382141	
-0.381653	
-0.381531	
-0.381042	
-0.38208	
-0.38324	
-0.381775	
-0.381897	
-0.380432	
-0.38208	
-0.382202	
-0.381775	
-0.381958	
-0.381165	
-0.382385	
-0.383606	
-0.382019	
-0.381775	
-0.380432	
-0.382324	
-0.382385	
-0.38092	
-0.381958	
-0.381592	
-0.382446	
-0.383667	
-0.382446	
-0.382141	
-0.381897	
-0.382813	
-0.374939	
-0.368286	
-0.368164	
-0.368469	
-0.368896	
-0.369751	
-0.377258	
-0.382751	
-0.38385	
-0.383423	
-0.38385	
-0.382324	
-0.383606	
-0.382996	
-0.383179	
-0.383972	
-0.383423	
-0.383179	
-0.38324	
-0.383301	
-0.383728	
-0.381836	
-0.382568	
-0.382019	
-0.382568	
-0.383667	
-0.382629	
-0.382507	
-0.381897	
-0.382935	
-0.382996	
-0.381226	
-0.382507	
-0.382141	
-0.383179	
-0.383545	
-0.382629	
-0.383118	
-0.382629	
-0.38324	
-0.383545	
-0.382446	
-0.38324	
-0.382813	
-0.383606	
-0.384155	
-0.38385	
-0.384155	
-0.384399	
-0.384338	
-0.385071	
-0.383728	
-0.384155	
-0.384094	
-0.385071	
-0.385315	
-0.385559	
-0.384949	
-0.38562	
-0.385681	
-0.38623	
-0.384827	
-0.385254	
-0.385376	
-0.385132	
-0.385803	
-0.384949	
-0.385132	
-0.38446	
-0.384216	
-0.384583	
-0.383667	
-0.384033	
-0.383484	
-0.383728	
-0.384338	
-0.383911	
-0.383606	
-0.383789	
-0.38324	
-0.383789	
-0.383057	
-0.383484	
-0.382996	
-0.383545	
-0.384033	
-0.383484	
-0.383789	
-0.383911	
-0.384399	
-0.385071	
-0.384644	
-0.385193	
-0.384521	
-0.385132	
-0.38678	
-0.386841	
-0.387451	
-0.387817	
-0.389038	
-0.390259	
-0.390564	
-0.391785	
-0.391907	
-0.394165	
-0.396423	
-0.396973	
-0.398315	
-0.398804	
-0.401489	
-0.40387	
-0.404541	
-0.406921	
-0.409302	
-0.411682	
-0.414978	
-0.415039	
-0.416443	
-0.418823	
-0.4198	
-0.421936	
-0.421997	
-0.422302	
-0.422363	
-0.423706	
-0.423828	
-0.424011	
-0.423218	
-0.422913	
-0.422668	
-0.421143	
-0.420837	
-0.419128	
-0.41925	
-0.420349	
-0.42041	
-0.420593	
-0.421082	
-0.423279	
-0.425842	
-0.426208	
-0.428894	
-0.430298	
-0.432434	
-0.435547	
-0.435669	
-0.437134	
-0.438354	
-0.440186	
-0.442566	
-0.443115	
-0.444031	
-0.444275	
-0.446411	
-0.447815	
-0.446533	
-0.447327	
-0.446594	
-0.447632	
-0.447571	
-0.44635	
-0.445435	
-0.444214	
-0.443909	
-0.44342	
-0.440552	
-0.438416	
-0.436768	
-0.436096	
-0.435486	
-0.433594	
-0.432373	
-0.431396	
-0.431152	
-0.430542	
-0.429199	
-0.42804	
-0.427307	
-0.427124	
-0.426575	
-0.425171	
-0.424194	
-0.423584	
-0.4245	
-0.423889	
-0.42395	
-0.423401	
-0.423523	
-0.423645	
-0.42334	
-0.422119	
-0.420715	
-0.419312	
-0.418701	
-0.417236	
-0.414734	
-0.412537	
-0.409424	
-0.40802	
-0.404785	
-0.401489	
-0.397461	
-0.394714	
-0.391602	
-0.388855	
-0.385254	
-0.382019	
-0.379272	
-0.37677	
-0.374939	
-0.371582	
-0.369568	
-0.367493	
-0.365967	
-0.365173	
-0.362427	
-0.361267	
-0.359741	
-0.359131	
-0.357971	
-0.35675	
-0.355225	
-0.354919	
-0.354919	
-0.354187	
-0.352661	
-0.351746	
-0.350586	
-0.350342	
-0.348877	
-0.347656	
-0.346252	
-0.346008	
-0.346313	
-0.344971	
-0.344971	
-0.344238	
-0.344238	
-0.344482	
-0.343323	
-0.343811	
-0.34314	
-0.34375	
-0.344604	
-0.343323	
-0.343994	
-0.343506	
-0.344788	
-0.345337	
-0.344177	
-0.345703	
-0.34436	
-0.346375	
-0.347351	
-0.346863	
-0.346924	
-0.34729	
-0.348511	
-0.349792	
-0.348877	
-0.349548	
-0.348999	
-0.351135	
-0.351501	
-0.352051	
-0.352051	
-0.352722	
-0.353882	
-0.353577	
-0.353943	
-0.354187	
-0.354797	
-0.355774	
-0.354675	
-0.354553	
-0.353699	
-0.35498	
-0.355408	
-0.354187	
-0.355164	
-0.354126	
-0.355652	
-0.356995	
-0.356323	
-0.356506	
-0.355774	
-0.356628	
-0.357849	
-0.356018	
-0.357117	
-0.35675	
-0.358154	
-0.358032	
-0.358032	
-0.35791	
-0.358093	
-0.359009	
-0.359253	
-0.358826	
-0.358337	
-0.359375	
-0.360168	
-0.359924	
-0.359802	
-0.359863	
-0.36084	
-0.361511	
-0.360657	
-0.36145	
-0.360535	
-0.362183	
-0.363647	
-0.362427	
-0.362366	
-0.362671	
-0.363342	
-0.36438	
-0.362732	
-0.363281	
-0.362671	
-0.364502	
-0.365173	
-0.36438	
-0.364441	
-0.36499	
-0.365234	
-0.365601	
-0.365295	
-0.365479	
-0.365967	
-0.366455	
-0.366394	
-0.366333	
-0.366272	
-0.366638	
-0.367371	
-0.367188	
-0.366943	
-0.366882	
-0.367798	
-0.368652	
-0.368042	
-0.367493	
-0.36676	
-0.368164	
-0.369263	
-0.368713	
-0.369141	
-0.368591	
-0.369629	
-0.371216	
-0.370239	
-0.369873	
-0.369141	
-0.370789	
-0.371887	
-0.370911	
-0.371277	
-0.3703	
-0.371582	
-0.373169	
-0.371948	
-0.372253	
-0.371399	
-0.372681	
-0.373657	
-0.371704	
-0.372864	
-0.372803	
-0.373291	
-0.373718	
-0.372803	
-0.373352	
-0.373535	
-0.37323	
-0.373169	
-0.371643	
-0.372498	
-0.372314	
-0.373413	
-0.372681	
-0.37262	
-0.372314	
-0.372253	
-0.372681	
-0.372864	
-0.372375	
-0.371887	
-0.371704	
-0.373169	
-0.371887	
-0.372192	
-0.371277	
-0.37262	
-0.372925	
-0.373169	
-0.372925	
-0.372559	
-0.372314	
-0.374512	
-0.374023	
-0.374084	
-0.373779	
-0.374878	
-0.374817	
-0.375183	
-0.374634	
-0.374268	
-0.374207	
-0.37561	
-0.374695	
-0.375	
-0.375671	
-0.375	
-0.37561	
-0.375671	
-0.375366	
-0.374756	
-0.375305	
-0.37561	
-0.375793	
-0.375854	
-0.376343	
-0.375793	
-0.376953	
-0.376221	
-0.376282	
-0.375732	
-0.376953	
-0.377502	
-0.377441	
-0.377258	
-0.378662	
-0.37793	
-0.379028	
-0.37738	
-0.378235	
-0.378479	
-0.379089	
-0.379395	
-0.378784	
-0.379028	
-0.379822	
-0.379272	
-0.379333	
-0.37854	
-0.378723	
-0.378662	
-0.379028	
-0.378479	
-0.378052	
-0.377563	
-0.378235	
-0.377808	
-0.377747	
-0.377502	
-0.377502	
-0.377136	
-0.378601	
-0.377869	
-0.37793	
-0.376831	
-0.377319	
-0.377869	
-0.378174	
-0.377808	
-0.377075	
-0.376953	
-0.378479	
-0.378113	
-0.37793	
-0.37854	
-0.378174	
-0.379272	
-0.378601	
-0.378418	
-0.377014	
-0.378357	
-0.378418	
-0.378601	
-0.37854	
-0.37915	
-0.378723	
-0.38031	
-0.379272	
-0.379211	
-0.378235	
-0.380005	
-0.379761	
-0.380127	
-0.378967	
-0.380493	
-0.379639	
-0.379883	
-0.379333	
-0.380188	
-0.379944	
-0.381287	
-0.380676	
-0.381409	
-0.380188	
-0.381653	
-0.380005	
-0.381042	
-0.379883	
-0.380432	
-0.38031	
-0.380249	
-0.380554	
-0.380798	
-0.379822	
-0.380188	
-0.379272	
-0.381042	
-0.380005	
-0.380066	
-0.379639	
-0.380554	
-0.380432	
-0.380859	
-0.380432	
-0.380371	
-0.380249	
-0.380798	
-0.380066	
-0.379272	
-0.379822	
-0.380371	
-0.380859	
-0.380798	
-0.380859	
-0.380371	
-0.380859	
-0.380615	
-0.380249	
-0.380127	
-0.380798	
-0.38031	
-0.380432	
-0.380615	
-0.380737	
-0.379822	
-0.380737	
-0.379944	
-0.38031	
-0.379944	
-0.381042	
-0.380493	
-0.380615	
-0.380188	
-0.381104	
-0.380798	
-0.380981	
-0.380493	
-0.381287	
-0.381226	
-0.382019	
-0.381897	
-0.381531	
-0.380676	
-0.382446	
-0.381897	
-0.381775	
-0.380371	
-0.381226	
-0.381348	
-0.38269	
-0.381592	
-0.381775	
-0.380554	
-0.382263	
-0.382263	
-0.381836	
-0.380737	
-0.380554	
-0.381531	
-0.382141	
-0.381104	
-0.381958	
-0.381287	
-0.382385	
-0.382629	
-0.382263	
-0.382385	
-0.382019	
-0.38324	
-0.38324	
-0.383118	
-0.383789	
-0.383301	
-0.383606	
-0.383118	
-0.383423	
-0.384033	
-0.383423	
-0.384583	
-0.384216	
-0.384277	
-0.384949	
-0.384888	
-0.384705	
-0.383789	
-0.385193	
-0.384827	
-0.385132	
-0.385132	
-0.385437	
-0.385559	
-0.386902	
-0.38678	
-0.386108	
-0.38562	
-0.385925	
-0.385864	
-0.386292	
-0.385986	
-0.386108	
-0.38623	
-0.386047	
-0.387146	
-0.385925	
-0.385681	
-0.385437	
-0.385437	
-0.385193	
-0.385376	
-0.385132	
-0.384949	
-0.384399	
-0.385254	
-0.384766	
-0.384338	
-0.384644	
-0.383545	
-0.384155	
-0.384277	
-0.384094	
-0.38385	
-0.38385	
-0.383789	
-0.384705	
-0.38385	
-0.384521	
-0.382629	
-0.383972	
-0.383484	
-0.383362	
-0.383789	
-0.383789	
-0.383789	
-0.384521	
-0.383301	
-0.384216	
-0.383301	
-0.384094	
-0.382935	
-0.383606	
-0.383911	
-0.383972	
-0.384094	
-0.384094	
-0.383789	
-0.384827	
-0.384094	
-0.384277	
-0.383484	
-0.384583	
-0.385071	
-0.385132	
-0.385254	
-0.384583	
-0.385071	
-0.385559	
-0.385498	
-0.385437	
-0.384155	
-0.385437	
-0.385498	
-0.385437	
-0.385498	
-0.384888	
-0.385376	
-0.386169	
-0.385376	
-0.385803	
-0.384827	
-0.385742	
-0.384949	
-0.38562	
-0.385254	
-0.384888	
-0.385498	
-0.385864	
-0.38501	
-0.38562	
-0.384094	
-0.38501	
-0.384583	
-0.384949	
-0.385193	
-0.385071	
-0.384888	
-0.38562	
-0.385803	
-0.386292	
-0.385376	
-0.385376	
-0.385071	
-0.38623	
-0.386047	
-0.384766	
-0.384766	
-0.386047	
-0.38623	
-0.387146	
-0.386353	
-0.386597	
-0.38678	
-0.387329	
-0.387329	
-0.386475	
-0.386475	
-0.387146	
-0.388184	
-0.388489	
-0.387939	
-0.388123	
-0.388489	
-0.388794	
-0.388855	
-0.387329	
-0.386841	
-0.387573	
-0.387634	
-0.387329	
-0.387146	
-0.387268	
-0.387024	
-0.387634	
-0.386841	
-0.386292	
-0.385986	
-0.38501	
-0.386475	
-0.386536	
-0.385925	
-0.386047	
-0.386169	
-0.386841	
-0.386169	
-0.38562	
-0.386047	
-0.38501	
-0.386658	
-0.38562	
-0.386169	
-0.386353	
-0.386414	
-0.386414	
-0.386169	
-0.386169	
-0.386353	
-0.38562	
-0.386414	
-0.385925	
-0.386169	
-0.386536	
-0.38623	
-0.386658	
-0.385864	
-0.385742	
-0.386047	
-0.386047	
-0.386047	
-0.385925	
-0.386292	
-0.386475	
-0.386475	
-0.386597	
-0.386719	
-0.386414	
-0.386719	
-0.387024	
-0.386963	
-0.386963	
-0.387146	
-0.386963	
-0.387573	
-0.387695	
-0.38678	
-0.386658	
-0.387146	
-0.386536	
-0.386719	
-0.386414	
-0.386353	
-0.386292	
-0.386169	
-0.386353	
-0.386353	
-0.385681	
-0.385803	
-0.385132	
-0.385254	
-0.384521	
-0.385193	
-0.384766	
-0.384705	
-0.385132	
-0.384888	
-0.384766	
-0.385132	
-0.384766	
-0.385254	
-0.384216	
-0.385315	
-0.38446	
-0.384644	
-0.384399	
-0.384705	
-0.384644	
-0.384888	
-0.38446	
-0.384644	
-0.384033	
-0.385803	
-0.384583	
-0.385254	
-0.383972	
-0.384949	
-0.38501	
-0.384827	
-0.384644	
-0.384521	
-0.383728	
-0.385437	
-0.384094	
-0.385193	
-0.384033	
-0.384766	
-0.384644	
-0.386108	
-0.385803	
-0.385925	
-0.385498	
-0.386719	
-0.385742	
-0.386292	
-0.385315	
-0.386169	
-0.385254	
-0.386414	
-0.385986	
-0.386047	
-0.385132	
-0.386475	
-0.385986	
-0.38623	
-0.386292	
-0.38623	
-0.385986	
-0.386963	
-0.385864	
-0.386292	
-0.385437	
-0.386658	
-0.386536	
-0.386963	
-0.387268	
-0.386902	
-0.386414	
-0.387512	
-0.386902	
-0.387268	
-0.386292	
-0.387878	
-0.386963	
-0.387451	
-0.387878	
-0.387268	
-0.387085	
-0.387695	
-0.387207	
-0.387512	
-0.386353	
-0.387085	
-0.386475	
-0.387634	
-0.387146	
-0.386597	
-0.386353	
-0.386963	
-0.387146	
-0.38678	
-0.387024	
-0.386841	
-0.386658	
-0.387695	
-0.387451	
-0.387085	
-0.386658	
-0.387085	
-0.387268	
-0.386536	
-0.387268	
-0.387085	
-0.387329	
-0.388123	
-0.38739	
-0.387329	
-0.386597	
-0.387268	
-0.38678	
-0.386963	
-0.387085	
-0.385986	
-0.385559	
-0.386047	
-0.385742	
-0.385681	
-0.384521	
-0.385132	
-0.385071	
-0.385315	
-0.385376	
-0.384705	
-0.384583	
-0.385376	
-0.385437	
-0.384338	
-0.383545	
-0.384277	
-0.384094	
-0.384033	
-0.384277	
-0.38385	
-0.38324	
-0.384216	
-0.384033	
-0.383606	
-0.383179	
-0.383118	
-0.383423	
-0.383362	
-0.383728	
-0.382874	
-0.382751	
-0.383484	
-0.383667	
-0.382935	
-0.38269	
-0.383118	
-0.383545	
-0.382813	
-0.38446	
-0.383728	
-0.383972	
-0.384338	
-0.384583	
-0.384399	
-0.384583	
-0.384827	
-0.384949	
-0.384033	
-0.385986	
-0.384949	
-0.38501	
-0.384766	
-0.385559	
-0.385498	
-0.385742	
-0.385254	
-0.385193	
-0.38501	
-0.386414	
-0.385437	
-0.384949	
-0.385132	
-0.385803	
-0.385193	
-0.385864	
-0.385315	
-0.385132	
-0.386108	
-0.385864	
-0.385437	
-0.384583	
-0.384705	
-0.385132	
-0.384827	
-0.385376	
-0.384583	
-0.384888	
-0.385559	
-0.385498	
-0.384888	
-0.383911	
-0.384277	
-0.384705	
-0.384644	
-0.384705	
-0.383972	
-0.384583	
-0.384766	
-0.384949	
-0.384033	
-0.383728	
-0.384094	
-0.38446	
-0.383972	
-0.384583	
-0.384399	
-0.384277	
-0.384583	
-0.385437	
-0.384399	
-0.384155	
-0.384399	
-0.38446	
-0.384399	
-0.384766	
-0.384338	
-0.384521	
-0.384949	
-0.385742	
-0.384888	
-0.384399	
-0.384216	
-0.385071	
-0.38501	
-0.385193	
-0.384644	
-0.384644	
-0.385437	
-0.385193	
-0.384521	
-0.384216	
-0.383911	
-0.384766	
-0.383972	
-0.384521	
-0.384216	
-0.384033	
-0.384216	
-0.384521	
-0.383606	
-0.383179	
-0.383789	
-0.384033	
-0.383179	
-0.383545	
-0.382507	
-0.382874	
-0.383484	
-0.382751	
-0.382263	
-0.382263	
-0.382202	
-0.382202	
-0.381775	
-0.381958	
-0.380981	
-0.381775	
-0.382263	
-0.381897	
-0.381897	
-0.381958	
-0.382629	
-0.383362	
-0.382629	
-0.383179	
-0.382935	
-0.382935	
-0.384277	
-0.383911	
-0.383423	
-0.383301	
-0.383301	
-0.383972	
-0.382874	
-0.38385	
-0.383606	
-0.383911	
-0.385071	
-0.384888	
-0.383667	
-0.383484	
-0.383118	
-0.384216	
-0.38324	
-0.383728	
-0.383423	
-0.383545	
-0.384521	
-0.384216	
-0.383545	
-0.383423	
-0.383179	
-0.38446	
-0.383667	
-0.384094	
-0.383606	
-0.383972	
-0.385071	
-0.384766	
-0.384705	
-0.38446	
-0.383972	
-0.384766	
-0.384521	
-0.38446	
-0.383728	
-0.384277	
-0.384521	
-0.384644	
-0.383911	
-0.383423	
-0.383362	
-0.383911	
-0.38385	
-0.383179	
-0.38269	
-0.383484	
-0.384216	
-0.384216	
-0.38385	
-0.383911	
-0.383972	
-0.383972	
-0.384094	
-0.383667	
-0.383911	
-0.384094	
-0.384949	
-0.385376	
-0.38501	
-0.38501	
-0.384399	
-0.385437	
-0.385803	
-0.385315	
-0.384888	
-0.384888	
-0.385315	
-0.385864	
-0.385254	
-0.385254	
-0.384705	
-0.38562	
-0.385376	
-0.385437	
-0.385254	
-0.385132	
-0.385864	
-0.385803	
-0.385925	
-0.385498	
-0.385254	
-0.385925	
-0.385315	
-0.38562	
-0.384583	
-0.385437	
-0.385803	
-0.38623	
-0.385742	
-0.385864	
-0.385071	
-0.386536	
-0.386414	
-0.385559	
-0.384521	
-0.385803	
-0.385376	
-0.386047	
-0.384827	
-0.384644	
-0.383728	
-0.384888	
-0.384888	
-0.384399	
-0.383545	
-0.38501	
-0.384644	
-0.385254	
-0.384216	
-0.384338	
-0.383789	
-0.384827	
-0.384338	
-0.384155	
-0.383179	
-0.384277	
-0.384277	
-0.384766	
-0.384216	
-0.383972	
-0.383118	
-0.384644	
-0.383911	
-0.383667	
-0.382385	
-0.383728	
-0.383118	
-0.384338	
-0.383118	
-0.382996	
-0.38208	
-0.383911	
-0.383118	
-0.382935	
-0.381836	
-0.383179	
-0.383118	
-0.383667	
-0.383118	
-0.38269	
-0.382324	
-0.384155	
-0.383789	
-0.383118	
-0.382385	
-0.384399	
-0.384338	
-0.384094	
-0.382874	
-0.383423	
-0.382751	
-0.383728	
-0.383484	
-0.38324	
-0.382751	
-0.384216	
-0.383423	
-0.384155	
-0.382751	
-0.383606	
-0.382385	
-0.384216	
-0.38385	
-0.383484	
-0.382568	
-0.38385	
-0.382996	
-0.384094	
-0.382568	
-0.383484	
-0.38269	
-0.384277	
-0.384827	
-0.384399	
-0.384338	
-0.384949	
-0.384827	
-0.38562	
-0.384583	
-0.385681	
-0.384338	
-0.385315	
-0.385803	
-0.385559	
-0.385437	
-0.386292	
-0.385742	
-0.386475	
-0.385498	
-0.386597	
-0.385254	
-0.38678	
-0.386169	
-0.386536	
-0.386292	
-0.386963	
-0.386902	
-0.387512	
-0.386536	
-0.386963	
-0.385864	
-0.387878	
-0.387756	
-0.387329	
-0.386719	
-0.387939	
-0.387085	
-0.387878	
-0.386353	
-0.386719	
-0.385803	
-0.386719	
-0.386414	
-0.385864	
-0.385437	
-0.386414	
-0.385864	
-0.386475	
-0.384949	
-0.385315	
-0.384094	
-0.384583	
-0.385315	
-0.384888	
-0.384949	
-0.385132	
-0.384277	
-0.38501	
-0.384155	
-0.38501	
-0.383484	
-0.38446	
-0.385193	
-0.384216	
-0.384766	
-0.384888	
-0.384949	
-0.386047	
-0.38446	
-0.38446	
-0.383789	
-0.384033	
-0.385071	
-0.384399	
-0.384827	
-0.385376	
-0.385193	
-0.385498	
-0.38446	
-0.384888	
-0.384277	
-0.38385	
-0.385193	
-0.384766	
-0.384949	
-0.385681	
-0.38562	
-0.38623	
-0.385559	
-0.385498	
-0.38501	
-0.385071	
-0.385742	
-0.385559	
-0.385681	
-0.386047	
-0.385376	
-0.38623	
-0.386108	
-0.385559	
-0.384338	
-0.384705	
-0.385925	
-0.385254	
-0.385498	
-0.385681	
-0.385193	
-0.386047	
-0.385193	
-0.384888	
-0.383728	
-0.383484	
-0.385437	
-0.384705	
-0.384766	
-0.385132	
-0.384705	
-0.385681	
-0.384705	
-0.384827	
-0.383789	
-0.384216	
-0.385437	
-0.384705	
-0.385315	
-0.385376	
-0.385498	
-0.38623	
-0.385254	
-0.385986	
-0.38501	
-0.384705	
-0.386353	
-0.386047	
-0.386475	
-0.386414	
-0.387024	
-0.387085	
-0.386719	
-0.386719	
-0.386108	
-0.385986	
-0.387756	
-0.387207	
-0.387695	
-0.388	
-0.388	
-0.388916	
-0.388428	
-0.387756	
-0.386841	
-0.386658	
-0.388184	
-0.386902	
-0.386963	
-0.386597	
-0.38678	
-0.38739	
-0.386475	
-0.385864	
-0.385132	
-0.385254	
-0.38678	
-0.385803	
-0.385864	
-0.385437	
-0.385376	
-0.386292	
-0.385132	
-0.385498	
-0.384033	
-0.384888	
-0.386475	
-0.385193	
-0.385681	
-0.385437	
-0.385986	
-0.386475	
-0.385254	
-0.386047	
-0.384644	
-0.385315	
-0.386475	
-0.385437	
-0.385681	
-0.385559	
-0.385376	
-0.385986	
-0.384827	
-0.385132	
-0.384521	
-0.385437	
-0.385803	
-0.385315	
-0.385315	
-0.384705	
-0.385315	
-0.385803	
-0.384949	
-0.384888	
-0.385742	
-0.385681	
-0.386597	
-0.385742	
-0.385986	
-0.385681	
-0.385986	
-0.386169	
-0.385681	
-0.385559	
-0.385803	
-0.385437	
-0.386963	
-0.385437	
-0.385254	
-0.385193	
-0.385498	
-0.385986	
-0.384949	
-0.384583	
-0.384521	
-0.384033	
-0.385315	
-0.383728	
-0.384216	
-0.383545	
-0.384033	
-0.384277	
-0.382996	
-0.383789	
-0.383545	
-0.38385	
-0.38446	
-0.383362	
-0.383728	
-0.383362	
-0.383362	
-0.383728	
-0.382629	
-0.382935	
-0.383179	
-0.383606	
-0.383484	
-0.383301	
-0.383362	
-0.383911	
-0.38385	
-0.383728	
-0.383179	
-0.382874	
-0.383362	
-0.383423	
-0.382751	
-0.383057	
-0.382813	
-0.383301	
-0.383423	
-0.383545	
-0.383179	
-0.38324	
-0.383667	
-0.384216	
-0.384094	
-0.384216	
-0.384094	
-0.384827	
-0.384277	
-0.384827	
-0.384155	
-0.383911	
-0.384094	
-0.384705	
-0.38446	
-0.384277	
-0.383911	
-0.385193	
-0.384521	
-0.384583	
-0.384399	
-0.384033	
-0.384583	
-0.384766	
-0.384888	
-0.384521	
-0.384277	
-0.385254	
-0.385132	
-0.385254	
-0.384521	
-0.384949	
-0.385132	
-0.386108	
-0.385498	
-0.385193	
-0.38446	
-0.386292	
-0.385559	
-0.385376	
-0.384949	
-0.384949	
-0.385437	
-0.386597	
-0.385132	
-0.384888	
-0.38385	
-0.385803	
-0.385315	
-0.384766	
-0.384888	
-0.384827	
-0.384766	
-0.385559	
-0.384216	
-0.384644	
-0.383118	
-0.385742	
-0.385254	
-0.384827	
-0.384888	
-0.384521	
-0.384888	
-0.385437	
-0.384827	
-0.385193	
-0.383118	
-0.385864	
-0.385193	
-0.385315	
-0.385071	
-0.38501	
-0.385071	
-0.385376	
-0.385132	
-0.384583	
-0.382202	
-0.384888	
-0.383789	
-0.383484	
-0.382935	
-0.382568	
-0.382874	
-0.383057	
-0.382996	
-0.382446	
-0.381531	
-0.383606	
-0.382813	
-0.382751	
-0.382019	
-0.382263	
-0.381897	
-0.38208	
-0.381958	
-0.381531	
-0.380798	
-0.382141	
-0.381836	
-0.381165	
-0.381104	
-0.380798	
-0.381226	
-0.381287	
-0.380737	
-0.380554	
-0.380615	
-0.381653	
-0.38092	
-0.380554	
-0.380432	
-0.380554	
-0.381165	
-0.381409	
-0.380737	
-0.380798	
-0.380188	
-0.38208	
-0.381775	
-0.381775	
-0.382385	
-0.381531	
-0.382568	
-0.381897	
-0.382629	
-0.382507	
-0.382019	
-0.383545	
-0.383057	
-0.383057	
-0.383118	
-0.382629	
-0.383118	
-0.382446	
-0.382813	
-0.382324	
-0.382263	
-0.383484	
-0.38324	
-0.382996	
-0.383179	
-0.382874	
-0.383179	
-0.382629	
-0.382935	
-0.382446	
-0.381897	
-0.382874	
-0.383118	
-0.382751	
-0.382629	
-0.382446	
-0.382813	
-0.382813	
-0.382751	
-0.382202	
-0.382019	
-0.382996	
-0.38269	
-0.382324	
-0.382813	
-0.382324	
-0.382202	
-0.381165	
-0.381836	
-0.381897	
-0.381409	
-0.382324	
-0.381836	
-0.381653	
-0.382874	
-0.381531	
-0.381958	
-0.381104	
-0.381897	
-0.382141	
-0.38147	
-0.382507	
-0.382202	
-0.382324	
-0.382324	
-0.381653	
-0.382324	
-0.381592	
-0.382324	
-0.382019	
-0.382263	
-0.383057	
-0.382568	
-0.382507	
-0.382751	
-0.382202	
-0.382446	
-0.381287	
-0.382263	
-0.382263	
-0.38208	
-0.382385	
-0.382263	
-0.382019	
-0.382446	
-0.38147	
-0.381897	
-0.381836	
-0.381592	
-0.380737	
-0.381104	
-0.38147	
-0.38147	
-0.381287	
-0.381165	
-0.380737	
-0.380981	
-0.380798	
-0.380371	
-0.379883	
-0.379822	
-0.380188	
-0.3797	
-0.379395	
-0.379883	
-0.37915	
-0.379089	
-0.378601	
-0.379333	
-0.378967	
-0.379211	
-0.379395	
-0.379883	
-0.380066	
-0.380676	
-0.380249	
-0.380493	
-0.380615	
-0.380432	
-0.380493	
-0.38031	
-0.381226	
-0.38092	
-0.381653	
-0.381287	
-0.380676	
-0.381104	
-0.381287	
-0.381531	
-0.380737	
-0.380859	
-0.381409	
-0.381165	
-0.381714	
-0.381104	
-0.380981	
-0.380798	
-0.381165	
-0.380981	
-0.380615	
-0.381104	
-0.38147	
-0.381409	
-0.382446	
-0.381042	
-0.381226	
-0.381409	
-0.381531	
-0.38147	
-0.381226	
-0.38147	
-0.381714	
-0.381897	
-0.382141	
-0.381592	
-0.381592	
-0.381714	
-0.381836	
-0.381287	
-0.381226	
-0.381226	
-0.381287	
-0.381104	
-0.381348	
-0.380615	
-0.380676	
-0.380188	
-0.38092	
-0.380859	
-0.380798	
-0.381226	
-0.381287	
-0.381592	
-0.382446	
-0.381348	
-0.380859	
-0.380981	
-0.381592	
-0.381775	
-0.381165	
-0.38208	
-0.382385	
	
