C:\DOCUMENTS AND SETTINGS\JASON\DESKTOP\UFRJ\UFRJ EPHYS\RSCI-BM 12 WK SERIES\070806-RSCI-BM-16\RSCI-BM-16-REMG\070806-RSCI-BM-16-REMG-0008.ACQ
0.025000 msec/sample
1 channel
Analog input
Volts
CH1	
2000	
-0.378967	
-0.377808	
-0.378601	
-0.378845	
-0.378296	
-0.378418	
-0.379272	
-0.378784	
-0.379272	
-0.379211	
-0.378906	
-0.37793	
-0.378662	
-0.379272	
-0.37915	
-0.379395	
-0.379639	
-0.379517	
-0.380493	
-0.38031	
-0.380127	
-0.379639	
-0.379578	
-0.380371	
-0.380127	
-0.380005	
-0.380615	
-0.380371	
-0.381348	
-0.381165	
-0.380554	
-0.380432	
-0.38092	
-0.380798	
-0.38031	
-0.379333	
-0.381714	
-0.381348	
-0.382202	
-0.381165	
-0.381409	
-0.381958	
-0.382263	
-0.381348	
-0.38092	
-0.381348	
-0.382568	
-0.381897	
-0.382202	
-0.381104	
-0.382019	
-0.38269	
-0.382263	
-0.382263	
-0.381775	
-0.382751	
-0.384155	
-0.382813	
-0.38324	
-0.381958	
-0.383301	
-0.383545	
-0.38324	
-0.383667	
-0.383118	
-0.38385	
-0.384277	
-0.383911	
-0.38385	
-0.382629	
-0.383606	
-0.384338	
-0.383301	
-0.383179	
-0.382751	
-0.382996	
-0.383118	
-0.383118	
-0.382202	
-0.382019	
-0.382019	
-0.382019	
-0.381775	
-0.381226	
-0.380798	
-0.380981	
-0.380859	
-0.38092	
-0.380249	
-0.380005	
-0.379639	
-0.380798	
-0.379883	
-0.379639	
-0.378479	
-0.379517	
-0.379761	
-0.379456	
-0.37915	
-0.37915	
-0.378662	
-0.379944	
-0.378906	
-0.378845	
-0.377869	
-0.379028	
-0.378784	
-0.379395	
-0.378906	
-0.378845	
-0.377869	
-0.378845	
-0.378357	
-0.378052	
-0.377991	
-0.378235	
-0.378113	
-0.378174	
-0.377808	
-0.377991	
-0.37854	
-0.377991	
-0.377625	
-0.377441	
-0.377869	
-0.378113	
-0.37793	
-0.378418	
-0.37793	
-0.378174	
-0.379089	
-0.378174	
-0.378784	
-0.378479	
-0.379395	
-0.379761	
-0.379517	
-0.379517	
-0.379272	
-0.379089	
-0.380249	
-0.378784	
-0.378967	
-0.378235	
-0.379578	
-0.37915	
-0.379517	
-0.379578	
-0.379822	
-0.379639	
-0.380554	
-0.3797	
-0.380127	
-0.378723	
-0.380249	
-0.380676	
-0.380859	
-0.380493	
-0.380798	
-0.380615	
-0.381836	
-0.380615	
-0.380859	
-0.381104	
-0.381409	
-0.381714	
-0.381653	
-0.381409	
-0.381775	
-0.380737	
-0.38208	
-0.380676	
-0.381836	
-0.381409	
-0.381897	
-0.383057	
-0.38269	
-0.381958	
-0.381836	
-0.380859	
-0.382751	
-0.381287	
-0.381958	
-0.382019	
-0.382019	
-0.382874	
-0.382813	
-0.382813	
-0.382263	
-0.382324	
-0.383606	
-0.381775	
-0.383057	
-0.382507	
-0.383301	
-0.384338	
-0.383972	
-0.375488	
-0.369141	
-0.369019	
-0.369202	
-0.368042	
-0.368896	
-0.376282	
-0.382996	
-0.384033	
-0.383606	
-0.383301	
-0.383118	
-0.383179	
-0.383667	
-0.38269	
-0.382385	
-0.381409	
-0.382629	
-0.382813	
-0.382813	
-0.382019	
-0.38147	
-0.382446	
-0.382324	
-0.381836	
-0.380859	
-0.380981	
-0.381531	
-0.381836	
-0.381409	
-0.380981	
-0.380737	
-0.380981	
-0.380859	
-0.380493	
-0.379639	
-0.379944	
-0.380127	
-0.380493	
-0.379761	
-0.380005	
-0.379456	
-0.381409	
-0.380188	
-0.379517	
-0.378601	
-0.379883	
-0.379822	
-0.38031	
-0.379395	
-0.379211	
-0.37793	
-0.380127	
-0.37854	
-0.378418	
-0.377502	
-0.378662	
-0.378845	
-0.379517	
-0.378723	
-0.378479	
-0.377686	
-0.379517	
-0.378174	
-0.378418	
-0.377747	
-0.378296	
-0.378845	
-0.378418	
-0.377808	
-0.377625	
-0.377686	
-0.379272	
-0.37793	
-0.378479	
-0.377991	
-0.378601	
-0.379578	
-0.378967	
-0.379211	
-0.378784	
-0.379517	
-0.380188	
-0.378906	
-0.379456	
-0.379089	
-0.379883	
-0.381165	
-0.380188	
-0.380432	
-0.380371	
-0.381287	
-0.382507	
-0.38092	
-0.382446	
-0.38208	
-0.384399	
-0.385864	
-0.386169	
-0.386292	
-0.387878	
-0.388611	
-0.390137	
-0.390991	
-0.39209	
-0.394226	
-0.395813	
-0.397827	
-0.398132	
-0.399902	
-0.401123	
-0.404053	
-0.405457	
-0.407715	
-0.40918	
-0.411804	
-0.414612	
-0.415161	
-0.416382	
-0.418091	
-0.411926	
-0.407104	
-0.406006	
-0.407532	
-0.407654	
-0.409363	
-0.418335	
-0.42334	
-0.423523	
-0.422546	
-0.423462	
-0.422546	
-0.422852	
-0.422485	
-0.42395	
-0.425232	
-0.425781	
-0.427246	
-0.42981	
-0.432556	
-0.43573	
-0.436523	
-0.439453	
-0.440186	
-0.443481	
-0.444824	
-0.446167	
-0.447815	
-0.449585	
-0.450806	
-0.452881	
-0.452942	
-0.453857	
-0.454224	
-0.455261	
-0.455688	
-0.455383	
-0.454773	
-0.454041	
-0.454407	
-0.453552	
-0.452271	
-0.451416	
-0.449768	
-0.448914	
-0.447266	
-0.444763	
-0.442505	
-0.441345	
-0.440796	
-0.438599	
-0.437195	
-0.434875	
-0.43396	
-0.433899	
-0.432007	
-0.430603	
-0.428772	
-0.42865	
-0.429749	
-0.42749	
-0.427307	
-0.425903	
-0.427002	
-0.427917	
-0.426636	
-0.426636	
-0.426636	
-0.425842	
-0.426514	
-0.423218	
-0.423401	
-0.420837	
-0.42041	
-0.418701	
-0.415466	
-0.412842	
-0.409851	
-0.406311	
-0.403809	
-0.397949	
-0.394897	
-0.389771	
-0.388306	
-0.384888	
-0.381531	
-0.378723	
-0.375488	
-0.373169	
-0.371704	
-0.368652	
-0.366455	
-0.363647	
-0.36322	
-0.361816	
-0.360657	
-0.360107	
-0.359314	
-0.35907	
-0.358948	
-0.358582	
-0.35791	
-0.358337	
-0.358826	
-0.359009	
-0.358826	
-0.358948	
-0.358154	
-0.359375	
-0.358887	
-0.359131	
-0.358887	
-0.359863	
-0.361328	
-0.361511	
-0.361877	
-0.362061	
-0.363647	
-0.365967	
-0.365051	
-0.366455	
-0.365051	
-0.368103	
-0.369995	
-0.370178	
-0.370239	
-0.371521	
-0.371826	
-0.37262	
-0.372681	
-0.372681	
-0.373901	
-0.37561	
-0.377441	
-0.378723	
-0.380493	
-0.382324	
-0.385986	
-0.388062	
-0.39093	
-0.393311	
-0.396423	
-0.399353	
-0.401733	
-0.403564	
-0.404785	
-0.407532	
-0.409973	
-0.409912	
-0.411377	
-0.410217	
-0.413208	
-0.414734	
-0.414368	
-0.414551	
-0.416321	
-0.417358	
-0.418335	
-0.416931	
-0.417236	
-0.41626	
-0.416931	
-0.416809	
-0.416199	
-0.41571	
-0.415833	
-0.414368	
-0.41449	
-0.41156	
-0.411194	
-0.40918	
-0.40979	
-0.408875	
-0.407654	
-0.407043	
-0.407288	
-0.406311	
-0.406189	
-0.403748	
-0.403809	
-0.402588	
-0.40332	
-0.402527	
-0.401794	
-0.400513	
-0.400574	
-0.399963	
-0.399597	
-0.397339	
-0.396484	
-0.395996	
-0.39563	
-0.393738	
-0.391907	
-0.389771	
-0.389771	
-0.388733	
-0.386597	
-0.384644	
-0.382324	
-0.381531	
-0.380798	
-0.37793	
-0.37561	
-0.372803	
-0.371826	
-0.370544	
-0.367493	
-0.36615	
-0.362915	
-0.361816	
-0.360596	
-0.358704	
-0.355591	
-0.353088	
-0.351013	
-0.350586	
-0.347839	
-0.346008	
-0.344238	
-0.345032	
-0.343628	
-0.342896	
-0.342224	
-0.342285	
-0.342285	
-0.342285	
-0.341553	
-0.34198	
-0.341736	
-0.343506	
-0.342468	
-0.342163	
-0.341003	
-0.342468	
-0.342346	
-0.341736	
-0.34021	
-0.340576	
-0.34137	
-0.341919	
-0.342468	
-0.341309	
-0.341492	
-0.340942	
-0.34259	
-0.342285	
-0.342407	
-0.342712	
-0.34436	
-0.344238	
-0.345276	
-0.345703	
-0.346619	
-0.347595	
-0.348938	
-0.34845	
-0.348938	
-0.350037	
-0.351746	
-0.351868	
-0.352417	
-0.352173	
-0.354675	
-0.355652	
-0.355896	
-0.356262	
-0.356384	
-0.358154	
-0.358521	
-0.359985	
-0.359436	
-0.360413	
-0.360474	
-0.362183	
-0.361755	
-0.361755	
-0.361511	
-0.363586	
-0.363953	
-0.363892	
-0.363647	
-0.364807	
-0.364929	
-0.365234	
-0.36438	
-0.364502	
-0.364258	
-0.364929	
-0.364868	
-0.36322	
-0.362671	
-0.362732	
-0.362732	
-0.361389	
-0.361145	
-0.360046	
-0.361206	
-0.360901	
-0.360413	
-0.360291	
-0.36084	
-0.360901	
-0.362	
-0.360474	
-0.360291	
-0.360657	
-0.361755	
-0.361572	
-0.360535	
-0.360046	
-0.361389	
-0.362122	
-0.362183	
-0.361389	
-0.362305	
-0.363342	
-0.363281	
-0.363831	
-0.363831	
-0.364136	
-0.364624	
-0.366089	
-0.364929	
-0.364807	
-0.363953	
-0.366272	
-0.366394	
-0.366394	
-0.366394	
-0.367432	
-0.367432	
-0.36853	
-0.367432	
-0.36792	
-0.368042	
-0.36908	
-0.369507	
-0.369141	
-0.36908	
-0.369507	
-0.370483	
-0.370728	
-0.369324	
-0.369934	
-0.370667	
-0.371338	
-0.371582	
-0.371277	
-0.370422	
-0.371948	
-0.372192	
-0.37146	
-0.371643	
-0.370544	
-0.371643	
-0.372498	
-0.372437	
-0.372009	
-0.37207	
-0.372803	
-0.373413	
-0.373535	
-0.373718	
-0.373718	
-0.374939	
-0.375977	
-0.375061	
-0.375549	
-0.375854	
-0.376587	
-0.376953	
-0.375732	
-0.376465	
-0.377686	
-0.378601	
-0.377808	
-0.378113	
-0.378296	
-0.378418	
-0.379211	
-0.378723	
-0.378845	
-0.379211	
-0.379639	
-0.380127	
-0.379639	
-0.379395	
-0.379822	
-0.380066	
-0.379944	
-0.378357	
-0.379028	
-0.378357	
-0.379456	
-0.379639	
-0.378723	
-0.378479	
-0.378845	
-0.379883	
-0.379456	
-0.378723	
-0.37854	
-0.379211	
-0.380676	
-0.379395	
-0.379639	
-0.379578	
-0.380249	
-0.380554	
-0.379883	
-0.380005	
-0.380676	
-0.380859	
-0.382019	
-0.381042	
-0.381775	
-0.381958	
-0.382202	
-0.381775	
-0.380859	
-0.381836	
-0.381348	
-0.381531	
-0.382385	
-0.380859	
-0.380676	
-0.380188	
-0.381042	
-0.380493	
-0.379517	
-0.378906	
-0.378052	
-0.379028	
-0.378601	
-0.37793	
-0.377319	
-0.377441	
-0.378113	
-0.377258	
-0.376465	
-0.375244	
-0.375854	
-0.376648	
-0.375732	
-0.375854	
-0.374939	
-0.375183	
-0.375671	
-0.374512	
-0.374756	
-0.373718	
-0.374573	
-0.375488	
-0.37439	
-0.374634	
-0.37384	
-0.374573	
-0.374634	
-0.373352	
-0.373962	
-0.374084	
-0.374268	
-0.375549	
-0.374268	
-0.374146	
-0.374329	
-0.374939	
-0.374939	
-0.374084	
-0.374084	
-0.374146	
-0.37561	
-0.375977	
-0.375549	
-0.375366	
-0.375671	
-0.376526	
-0.376953	
-0.377136	
-0.376465	
-0.378235	
-0.379272	
-0.380005	
-0.379822	
-0.379517	
-0.381226	
-0.381592	
-0.381592	
-0.381836	
-0.382385	
-0.382202	
-0.383301	
-0.382263	
-0.382019	
-0.382996	
-0.382996	
-0.383301	
-0.381531	
-0.381897	
-0.382874	
-0.383179	
-0.383911	
-0.383179	
-0.382568	
-0.381897	
-0.383423	
-0.382202	
-0.382874	
-0.382202	
-0.382751	
-0.383057	
-0.382935	
-0.382568	
-0.381287	
-0.382202	
-0.382202	
-0.381836	
-0.381653	
-0.381653	
-0.381714	
-0.382141	
-0.38147	
-0.381042	
-0.381226	
-0.381226	
-0.381714	
-0.380066	
-0.380676	
-0.37915	
-0.380493	
-0.380615	
-0.380005	
-0.380127	
-0.380493	
-0.380615	
-0.381042	
-0.378967	
-0.379517	
-0.380859	
-0.381775	
-0.381897	
-0.381104	
-0.380798	
-0.381226	
-0.382874	
-0.381836	
-0.382019	
-0.381409	
-0.381958	
-0.382385	
-0.381775	
-0.381287	
-0.380615	
-0.380676	
-0.381531	
-0.380432	
-0.38031	
-0.380127	
-0.380127	
-0.380615	
-0.379822	
-0.379761	
-0.380005	
-0.380432	
-0.380615	
-0.379639	
-0.379456	
-0.378845	
-0.380432	
-0.380188	
-0.379639	
-0.379944	
-0.38031	
-0.380737	
-0.380493	
-0.379517	
-0.379272	
-0.3797	
-0.380432	
-0.379639	
-0.379944	
-0.379883	
-0.380432	
-0.380676	
-0.379944	
-0.378906	
-0.378784	
-0.379578	
-0.380432	
-0.379883	
-0.379456	
-0.378113	
-0.379517	
-0.379272	
-0.378601	
-0.378235	
-0.378174	
-0.378357	
-0.378601	
-0.37854	
-0.377686	
-0.37793	
-0.377014	
-0.37793	
-0.37793	
-0.377747	
-0.377441	
-0.378052	
-0.377747	
-0.378174	
-0.377014	
-0.377258	
-0.377319	
-0.37677	
-0.375916	
-0.375732	
-0.375793	
-0.376892	
-0.376099	
-0.376099	
-0.374878	
-0.376526	
-0.377136	
-0.377319	
-0.375793	
-0.374817	
-0.375549	
-0.37677	
-0.37616	
-0.376038	
-0.375732	
-0.376892	
-0.376587	
-0.376709	
-0.374817	
-0.375977	
-0.375488	
-0.376587	
-0.376282	
-0.376099	
-0.376343	
-0.376953	
-0.376831	
-0.377563	
-0.376587	
-0.37738	
-0.378113	
-0.37854	
-0.379272	
-0.378784	
-0.379578	
-0.379456	
-0.380554	
-0.380554	
-0.380493	
-0.381042	
-0.381592	
-0.381653	
-0.382568	
-0.382202	
-0.382751	
-0.38208	
-0.383179	
-0.382446	
-0.382751	
-0.38324	
-0.383301	
-0.383423	
-0.384155	
-0.38324	
-0.383484	
-0.38269	
-0.383911	
-0.382996	
-0.382629	
-0.382935	
-0.384033	
-0.383667	
-0.384216	
-0.382813	
-0.383301	
-0.383606	
-0.382996	
-0.381348	
-0.381592	
-0.38147	
-0.383362	
-0.382446	
-0.38269	
-0.381287	
-0.382874	
-0.382629	
-0.382263	
-0.381042	
-0.381226	
-0.380615	
-0.382324	
-0.381226	
-0.380859	
-0.380127	
-0.380371	
-0.380554	
-0.380615	
-0.379333	
-0.37915	
-0.379761	
-0.379761	
-0.379639	
-0.379395	
-0.378357	
-0.378906	
-0.378845	
-0.379028	
-0.37854	
-0.379028	
-0.378967	
-0.378845	
-0.37915	
-0.378113	
-0.37854	
-0.378113	
-0.378296	
-0.378296	
-0.378235	
-0.378601	
-0.379089	
-0.379211	
-0.380005	
-0.378601	
-0.379333	
-0.378418	
-0.379333	
-0.378784	
-0.378418	
-0.378906	
-0.379089	
-0.378723	
-0.378906	
-0.378784	
-0.378845	
-0.379272	
-0.379028	
-0.37738	
-0.376892	
-0.377625	
-0.378601	
-0.378784	
-0.377441	
-0.37677	
-0.378479	
-0.378784	
-0.378662	
-0.376526	
-0.376892	
-0.376953	
-0.379395	
-0.378845	
-0.378418	
-0.378845	
-0.3797	
-0.380493	
-0.380188	
-0.379822	
-0.379944	
-0.380249	
-0.380737	
-0.381287	
-0.381104	
-0.381348	
-0.380493	
-0.382324	
-0.381836	
-0.38208	
-0.382202	
-0.382568	
-0.382629	
-0.382935	
-0.382507	
-0.382568	
-0.383362	
-0.383118	
-0.383179	
-0.382996	
-0.383301	
-0.383911	
-0.383728	
-0.383667	
-0.38324	
-0.383911	
-0.384216	
-0.384033	
-0.383362	
-0.384216	
-0.384399	
-0.385681	
-0.385132	
-0.384888	
-0.383789	
-0.385193	
-0.385254	
-0.385193	
-0.384521	
-0.384521	
-0.385254	
-0.386108	
-0.386353	
-0.385498	
-0.385254	
-0.384705	
-0.386108	
-0.385925	
-0.385315	
-0.383972	
-0.384766	
-0.384949	
-0.385254	
-0.384521	
-0.384583	
-0.384399	
-0.38501	
-0.384521	
-0.383789	
-0.38385	
-0.384094	
-0.384888	
-0.384583	
-0.383972	
-0.384644	
-0.384705	
-0.38446	
-0.384155	
-0.383972	
-0.383972	
-0.38324	
-0.384155	
-0.38324	
-0.382813	
-0.384216	
-0.382874	
-0.383301	
-0.383057	
-0.382751	
-0.38324	
-0.383667	
-0.383179	
-0.382263	
-0.381226	
-0.381958	
-0.382324	
-0.382324	
-0.382568	
-0.382141	
-0.382019	
-0.38269	
-0.382935	
-0.381836	
-0.382202	
-0.381104	
-0.382385	
-0.382507	
-0.381409	
-0.381226	
-0.381531	
-0.381775	
-0.381714	
-0.381226	
-0.381348	
-0.381348	
-0.38208	
-0.380798	
-0.38092	
-0.380005	
-0.380737	
-0.380798	
-0.380737	
-0.380188	
-0.380859	
-0.379822	
-0.380798	
-0.378967	
-0.379639	
-0.378967	
-0.379822	
-0.38092	
-0.380249	
-0.380676	
-0.381226	
-0.380981	
-0.381287	
-0.381348	
-0.380737	
-0.38092	
-0.380493	
-0.381714	
-0.381226	
-0.380981	
-0.380432	
-0.381775	
-0.381531	
-0.382874	
-0.381653	
-0.382385	
-0.382385	
-0.382507	
-0.382385	
-0.381287	
-0.382385	
-0.383423	
-0.382324	
-0.383301	
-0.382568	
-0.383057	
-0.38446	
-0.383301	
-0.383301	
-0.382935	
-0.383972	
-0.383728	
-0.382813	
-0.38385	
-0.383789	
-0.383911	
-0.384949	
-0.38446	
-0.384338	
-0.38446	
-0.384277	
-0.384399	
-0.384827	
-0.38446	
-0.383911	
-0.384644	
-0.385376	
-0.385071	
-0.385071	
-0.384705	
-0.385132	
-0.385742	
-0.385803	
-0.385376	
-0.384521	
-0.385254	
-0.386658	
-0.385559	
-0.385498	
-0.385071	
-0.385498	
-0.386719	
-0.386902	
-0.386108	
-0.384705	
-0.384766	
-0.38678	
-0.385254	
-0.385315	
-0.383972	
-0.385315	
-0.385376	
-0.385254	
-0.38446	
-0.384094	
-0.384399	
-0.385071	
-0.384216	
-0.384033	
-0.383606	
-0.38446	
-0.383789	
-0.383911	
-0.384094	
-0.383301	
-0.383667	
-0.383179	
-0.383057	
-0.383728	
-0.382935	
-0.383179	
-0.381653	
-0.382813	
-0.382629	
-0.382324	
-0.382996	
-0.382263	
-0.382141	
-0.381897	
-0.382019	
-0.382019	
-0.381714	
-0.381348	
-0.381165	
-0.380859	
-0.382507	
-0.381409	
-0.381348	
-0.379944	
-0.381409	
-0.38147	
-0.381897	
-0.381042	
-0.380005	
-0.379822	
-0.381897	
-0.380859	
-0.380615	
-0.379944	
-0.380737	
-0.381226	
-0.381104	
-0.380859	
-0.379395	
-0.380493	
-0.38147	
-0.380798	
-0.381226	
-0.380432	
-0.381531	
-0.382019	
-0.381958	
-0.381226	
-0.381042	
-0.381409	
-0.382446	
-0.38147	
-0.382141	
-0.380859	
-0.381653	
-0.381104	
-0.381958	
-0.381775	
-0.381958	
-0.382813	
-0.382935	
-0.382324	
-0.383057	
-0.382935	
-0.382751	
-0.382996	
-0.382874	
-0.382629	
-0.382385	
-0.384216	
-0.383545	
-0.38324	
-0.382568	
-0.383789	
-0.383484	
-0.383911	
-0.383606	
-0.383545	
-0.383362	
-0.38501	
-0.384155	
-0.383911	
-0.383179	
-0.384766	
-0.385132	
-0.385376	
-0.384705	
-0.384033	
-0.384521	
-0.385254	
-0.384705	
-0.385071	
-0.384521	
-0.384583	
-0.385742	
-0.385559	
-0.38501	
-0.383728	
-0.385254	
-0.385986	
-0.385986	
-0.386108	
-0.38562	
-0.386047	
-0.385986	
-0.386169	
-0.385864	
-0.386475	
-0.38678	
-0.38739	
-0.387024	
-0.387329	
-0.385986	
-0.387024	
-0.385681	
-0.386597	
-0.386169	
-0.386475	
-0.386658	
-0.38678	
-0.38562	
-0.385864	
-0.38446	
-0.385437	
-0.384949	
-0.385071	
-0.384277	
-0.384521	
-0.384583	
-0.385071	
-0.383789	
-0.383606	
-0.382507	
-0.38324	
-0.383301	
-0.382751	
-0.382263	
-0.382202	
-0.383301	
-0.383423	
-0.382507	
-0.381897	
-0.381958	
-0.382446	
-0.38269	
-0.381836	
-0.380859	
-0.380859	
-0.382935	
-0.382202	
-0.381775	
-0.38092	
-0.381653	
-0.381836	
-0.382874	
-0.381592	
-0.381104	
-0.380066	
-0.382385	
-0.381165	
-0.381226	
-0.379883	
-0.381042	
-0.380737	
-0.381409	
-0.380554	
-0.380432	
-0.381042	
-0.381714	
-0.380432	
-0.381104	
-0.380554	
-0.381165	
-0.38092	
-0.381348	
-0.381287	
-0.381531	
-0.382202	
-0.382813	
-0.382324	
-0.383057	
-0.381775	
-0.382874	
-0.381836	
-0.382568	
-0.382263	
-0.382385	
-0.382874	
-0.382751	
-0.382324	
-0.382813	
-0.381775	
-0.382751	
-0.38208	
-0.382935	
-0.382324	
-0.382324	
-0.383728	
-0.384155	
-0.383118	
-0.383606	
-0.382507	
-0.384583	
-0.384766	
-0.383789	
-0.382874	
-0.383118	
-0.384705	
-0.384949	
-0.38446	
-0.383484	
-0.384705	
-0.385193	
-0.385498	
-0.384644	
-0.384277	
-0.384766	
-0.385803	
-0.385071	
-0.384888	
-0.384888	
-0.385254	
-0.38562	
-0.385376	
-0.385315	
-0.385132	
-0.38501	
-0.385681	
-0.385681	
-0.385498	
-0.385315	
-0.385376	
-0.385986	
-0.385925	
-0.385864	
-0.386047	
-0.386292	
-0.386536	
-0.386169	
-0.386414	
-0.38623	
-0.386841	
-0.386169	
-0.386658	
-0.386292	
-0.385864	
-0.386414	
-0.385925	
-0.385742	
-0.386658	
-0.385498	
-0.385925	
-0.385437	
-0.385864	
-0.385376	
-0.384644	
-0.385742	
-0.385559	
-0.385132	
-0.385498	
-0.384888	
-0.385742	
-0.384766	
-0.384644	
-0.383606	
-0.383484	
-0.38562	
-0.384644	
-0.384338	
-0.383606	
-0.383728	
-0.385071	
-0.383423	
-0.383972	
-0.382629	
-0.382568	
-0.383789	
-0.383789	
-0.383057	
-0.383728	
-0.382019	
-0.383484	
-0.383057	
-0.382874	
-0.38269	
-0.382202	
-0.382874	
-0.383606	
-0.382568	
-0.383118	
-0.381348	
-0.382751	
-0.382446	
-0.381653	
-0.381836	
-0.381836	
-0.381836	
-0.382751	
-0.381592	
-0.382019	
-0.381653	
-0.381775	
-0.381897	
-0.38147	
-0.381714	
-0.381714	
-0.381531	
-0.381531	
-0.381042	
-0.38092	
-0.381104	
-0.381226	
-0.381165	
-0.380737	
-0.380981	
-0.382141	
-0.382019	
-0.38208	
-0.381348	
-0.382019	
-0.382385	
-0.382263	
-0.382263	
-0.382568	
-0.382751	
-0.383789	
-0.383301	
-0.383301	
-0.382568	
-0.383423	
-0.384033	
-0.383179	
-0.383118	
-0.382996	
-0.383606	
-0.38446	
-0.384216	
-0.383972	
-0.384583	
-0.384033	
-0.385315	
-0.384338	
-0.384705	
-0.383545	
-0.384705	
-0.384827	
-0.385132	
-0.384949	
-0.385559	
-0.38501	
-0.386169	
-0.385559	
-0.385559	
-0.384888	
-0.385071	
-0.385742	
-0.386475	
-0.385498	
-0.386292	
-0.384949	
-0.386597	
-0.385986	
-0.386047	
-0.385803	
-0.385803	
-0.386719	
-0.38739	
-0.385925	
-0.387146	
-0.385986	
-0.387207	
-0.387207	
-0.386597	
-0.386841	
-0.386536	
-0.386475	
-0.386719	
-0.384888	
-0.385925	
-0.385864	
-0.38562	
-0.386475	
-0.385437	
-0.38562	
-0.386353	
-0.385986	
-0.385681	
-0.385193	
-0.385437	
-0.385376	
-0.385193	
-0.38501	
-0.384827	
-0.384888	
-0.385254	
-0.384766	
-0.384277	
-0.384644	
-0.384827	
-0.384521	
-0.384094	
-0.384216	
-0.384094	
-0.384033	
-0.383728	
-0.38446	
-0.383972	
-0.384277	
-0.383423	
-0.383911	
-0.383789	
-0.383545	
-0.382996	
-0.382813	
-0.382813	
-0.384033	
-0.382813	
-0.38324	
-0.382141	
-0.38324	
-0.382813	
-0.383057	
-0.382568	
-0.382874	
-0.382751	
-0.383179	
-0.382141	
-0.383118	
-0.381592	
-0.382568	
-0.381836	
-0.381958	
-0.381226	
-0.382141	
-0.382202	
-0.382568	
-0.380432	
-0.382324	
-0.380493	
-0.382568	
-0.381348	
-0.381287	
-0.379395	
-0.380554	
-0.380676	
-0.381409	
-0.380249	
-0.381592	
-0.381287	
-0.381653	
-0.380554	
-0.381287	
-0.381287	
-0.381714	
-0.381653	
-0.38208	
-0.38208	
-0.382996	
-0.382996	
-0.383179	
-0.38269	
-0.382874	
-0.383179	
-0.383911	
-0.383667	
-0.383667	
-0.384216	
-0.384521	
-0.38446	
-0.384705	
-0.385193	
-0.384399	
-0.385132	
-0.385071	
-0.385437	
-0.38501	
-0.385193	
-0.385132	
-0.385681	
-0.385803	
-0.385437	
-0.385254	
-0.385681	
-0.385803	
-0.386597	
-0.385193	
-0.386169	
-0.384827	
-0.386108	
-0.386047	
-0.386169	
-0.386169	
-0.386536	
-0.386414	
-0.387573	
-0.386047	
-0.386841	
-0.386292	
-0.387085	
-0.386292	
-0.386292	
-0.386353	
-0.386597	
-0.386841	
-0.387024	
-0.385925	
-0.387268	
-0.38623	
-0.386963	
-0.385498	
-0.386169	
-0.385437	
-0.386108	
-0.385498	
-0.384888	
-0.384583	
-0.385315	
-0.385071	
-0.385681	
-0.385986	
-0.385376	
-0.384216	
-0.385254	
-0.385437	
-0.384949	
-0.384094	
-0.384583	
-0.384949	
-0.385559	
-0.385376	
-0.384644	
-0.383606	
-0.384338	
-0.384399	
-0.383545	
-0.383362	
-0.383667	
-0.38385	
-0.384338	
-0.384583	
-0.382996	
-0.383362	
-0.383118	
-0.38324	
-0.382874	
-0.382507	
-0.382141	
-0.382751	
-0.382507	
-0.383789	
-0.382568	
-0.382935	
-0.382202	
-0.38324	
-0.382629	
-0.383362	
-0.38147	
-0.382324	
-0.381287	
-0.383118	
-0.382202	
-0.382446	
-0.38208	
-0.383118	
-0.382141	
-0.382996	
-0.38147	
-0.382263	
-0.38092	
-0.382507	
-0.381653	
-0.381653	
-0.381165	
-0.382507	
-0.381042	
-0.381531	
-0.381042	
-0.381287	
-0.381287	
-0.381775	
-0.381165	
-0.381897	
-0.382202	
-0.382019	
-0.381653	
-0.38208	
-0.381897	
-0.382629	
-0.382263	
-0.382202	
-0.38147	
-0.382385	
-0.382629	
-0.382019	
-0.382568	
-0.382446	
-0.38269	
-0.383667	
-0.383057	
-0.383179	
-0.382141	
-0.383179	
-0.383728	
-0.383423	
-0.383606	
-0.383789	
-0.383789	
-0.384399	
-0.384033	
-0.384338	
-0.383911	
-0.384521	
-0.384705	
-0.384583	
-0.384766	
-0.384583	
-0.384338	
-0.384521	
-0.385742	
-0.384399	
-0.384399	
-0.384949	
-0.385559	
-0.385437	
-0.385559	
-0.38501	
-0.38501	
-0.384521	
-0.386353	
-0.385193	
-0.385498	
-0.385132	
-0.386597	
-0.385559	
-0.385498	
-0.38501	
-0.386292	
-0.385559	
-0.387024	
-0.385864	
-0.386292	
-0.387024	
-0.387146	
-0.386047	
-0.385681	
-0.385437	
-0.38678	
-0.386475	
-0.386475	
-0.385864	
-0.386108	
-0.386658	
-0.386475	
-0.385254	
-0.384644	
-0.384399	
-0.385071	
-0.384644	
-0.384521	
-0.384094	
-0.384216	
-0.384827	
-0.38446	
-0.384399	
-0.384277	
-0.383789	
-0.384399	
-0.38385	
-0.383667	
-0.382568	
-0.38324	
-0.384216	
-0.383179	
-0.383362	
-0.382751	
-0.382874	
-0.383423	
-0.383301	
-0.382446	
-0.382324	
-0.382141	
-0.382507	
-0.382324	
-0.382202	
-0.381653	
-0.381958	
-0.381775	
-0.382751	
-0.38147	
-0.381653	
-0.380432	
-0.381531	
-0.381531	
-0.381714	
-0.381348	
-0.381348	
-0.380615	
-0.381897	
-0.381165	
-0.380798	
-0.380615	
-0.380981	
-0.380798	
-0.381348	
-0.380859	
-0.381104	
-0.380066	
-0.381165	
-0.380859	
-0.381531	
-0.381958	
	
