E:\DOCUMENTS AND SETTINGS\JPOTAS\MEUS DOCUMENTOS\UFRJ\RSCI-BM 12 WK SERIES\070723-RSCI-BM-06\RSCI-BM-06-REMG\070723-RSCI-BM-REMG-0008.ACQ
0.025000 msec/sample
1 channel
Analog input
Volts
CH1	
2000	
-0.388733	
-0.39032	
-0.38855	
-0.389465	
-0.388306	
-0.390564	
-0.389526	
-0.388977	
-0.389282	
-0.390015	
-0.389709	
-0.389343	
-0.390869	
-0.388306	
-0.389526	
-0.389954	
-0.390503	
-0.388794	
-0.388184	
-0.389282	
-0.388733	
-0.389893	
-0.389404	
-0.390442	
-0.387817	
-0.389404	
-0.389587	
-0.389771	
-0.389587	
-0.389282	
-0.389587	
-0.389587	
-0.390564	
-0.389587	
-0.390503	
-0.389038	
-0.389465	
-0.390076	
-0.389709	
-0.389526	
-0.389465	
-0.389404	
-0.388428	
-0.390381	
-0.389771	
-0.389954	
-0.389038	
-0.389282	
-0.390015	
-0.388977	
-0.390808	
-0.390259	
-0.390259	
-0.390015	
-0.391602	
-0.390259	
-0.390259	
-0.390381	
-0.389465	
-0.388977	
-0.387817	
-0.389587	
-0.389343	
-0.388306	
-0.389404	
-0.389893	
-0.389465	
-0.390015	
-0.391052	
-0.390015	
-0.389771	
-0.389282	
-0.391052	
-0.39032	
-0.389343	
-0.390564	
-0.390869	
-0.390869	
-0.390503	
-0.391785	
-0.389832	
-0.39032	
-0.390564	
-0.391113	
-0.390076	
-0.390137	
-0.389893	
-0.390381	
-0.390808	
-0.389893	
-0.390869	
-0.388489	
-0.389587	
-0.38916	
-0.389099	
-0.388611	
-0.388306	
-0.388245	
-0.386902	
-0.388428	
-0.387695	
-0.388306	
-0.387085	
-0.387329	
-0.387329	
-0.386963	
-0.388428	
-0.387146	
-0.387634	
-0.387329	
-0.388733	
-0.388367	
-0.389282	
-0.388184	
-0.38855	
-0.388977	
-0.387207	
-0.389282	
-0.388123	
-0.388855	
-0.388611	
-0.38855	
-0.388	
-0.388489	
-0.388306	
-0.388123	
-0.387756	
-0.385742	
-0.387695	
-0.386902	
-0.386414	
-0.387512	
-0.386719	
-0.387146	
-0.387512	
-0.387329	
-0.386841	
-0.386475	
-0.385315	
-0.386536	
-0.386597	
-0.38501	
-0.38623	
-0.385742	
-0.386047	
-0.385925	
-0.38678	
-0.384949	
-0.386047	
-0.385193	
-0.385742	
-0.386169	
-0.384644	
-0.385437	
-0.384949	
-0.385681	
-0.385803	
-0.386475	
-0.384888	
-0.385742	
-0.385559	
-0.385803	
-0.38678	
-0.385681	
-0.385071	
-0.385376	
-0.386292	
-0.385681	
-0.386841	
-0.384827	
-0.385376	
-0.386475	
-0.386597	
-0.387085	
-0.38739	
-0.387512	
-0.387573	
-0.388367	
-0.388367	
-0.388916	
-0.387634	
-0.388489	
-0.388611	
-0.387817	
-0.389587	
-0.388855	
-0.388794	
-0.388672	
-0.389771	
-0.389099	
-0.389221	
-0.388245	
-0.388733	
-0.388245	
-0.387329	
-0.388733	
-0.388184	
-0.385437	
-0.382446	
-0.381653	
-0.382202	
-0.382629	
-0.382324	
-0.38385	
-0.387329	
-0.388245	
-0.388	
-0.387756	
-0.386414	
-0.386658	
-0.386414	
-0.386841	
-0.386719	
-0.386658	
-0.38678	
-0.386902	
-0.386597	
-0.386475	
-0.38678	
-0.386047	
-0.38623	
-0.386414	
-0.385864	
-0.386353	
-0.387329	
-0.385742	
-0.385742	
-0.385986	
-0.386475	
-0.386414	
-0.385742	
-0.386353	
-0.386108	
-0.386108	
-0.386475	
-0.387329	
-0.385376	
-0.386597	
-0.386963	
-0.387512	
-0.388489	
-0.387451	
-0.387085	
-0.388245	
-0.388611	
-0.387939	
-0.389832	
-0.388062	
-0.388489	
-0.388611	
-0.389038	
-0.389282	
-0.388916	
-0.387939	
-0.388367	
-0.388794	
-0.388306	
-0.389282	
-0.388123	
-0.38916	
-0.38916	
-0.389893	
-0.390564	
-0.39032	
-0.389038	
-0.389038	
-0.390686	
-0.390747	
-0.392029	
-0.390442	
-0.391113	
-0.391418	
-0.391724	
-0.391846	
-0.392334	
-0.391296	
-0.392761	
-0.39386	
-0.394165	
-0.394714	
-0.39447	
-0.394714	
-0.394958	
-0.396301	
-0.397522	
-0.397461	
-0.397034	
-0.398865	
-0.39978	
-0.39978	
-0.401306	
-0.400574	
-0.401245	
-0.400696	
-0.402588	
-0.403564	
-0.403442	
-0.402832	
-0.404358	
-0.405762	
-0.405212	
-0.406189	
-0.405273	
-0.40625	
-0.405884	
-0.406555	
-0.40741	
-0.406921	
-0.406067	
-0.406677	
-0.407593	
-0.406555	
-0.406799	
-0.405212	
-0.40509	
-0.404541	
-0.403992	
-0.40387	
-0.402649	
-0.401672	
-0.400513	
-0.399292	
-0.39917	
-0.397522	
-0.395691	
-0.395691	
-0.395264	
-0.395569	
-0.395447	
-0.393921	
-0.394226	
-0.394226	
-0.394897	
-0.39624	
-0.396484	
-0.39563	
-0.39801	
-0.398865	
-0.399902	
-0.402466	
-0.403076	
-0.404358	
-0.405457	
-0.407227	
-0.409851	
-0.409729	
-0.411011	
-0.412537	
-0.414368	
-0.4151	
-0.416443	
-0.416931	
-0.418579	
-0.419495	
-0.420715	
-0.422424	
-0.422607	
-0.424194	
-0.424683	
-0.425964	
-0.428345	
-0.429199	
-0.428894	
-0.431274	
-0.433411	
-0.434509	
-0.437134	
-0.437378	
-0.439331	
-0.439941	
-0.443298	
-0.445007	
-0.446838	
-0.447937	
-0.450073	
-0.451355	
-0.45343	
-0.4552	
-0.45343	
-0.455872	
-0.455078	
-0.456238	
-0.457153	
-0.456299	
-0.455322	
-0.455688	
-0.45459	
-0.453918	
-0.453613	
-0.450806	
-0.450012	
-0.447083	
-0.44696	
-0.445313	
-0.443359	
-0.441345	
-0.441467	
-0.4375	
-0.433167	
-0.432312	
-0.42981	
-0.428589	
-0.426392	
-0.428467	
-0.430969	
-0.430237	
-0.427673	
-0.427979	
-0.426025	
-0.427063	
-0.427307	
-0.425232	
-0.425171	
-0.424744	
-0.425232	
-0.424133	
-0.424133	
-0.422485	
-0.422363	
-0.42157	
-0.420898	
-0.420532	
-0.417786	
-0.41803	
-0.416931	
-0.417114	
-0.415527	
-0.416138	
-0.414001	
-0.413391	
-0.412598	
-0.412476	
-0.411865	
-0.409119	
-0.408752	
-0.407837	
-0.408691	
-0.407288	
-0.407471	
-0.405762	
-0.405945	
-0.404968	
-0.405518	
-0.406006	
-0.403748	
-0.40448	
-0.404114	
-0.404541	
-0.404053	
-0.404541	
-0.402344	
-0.402222	
-0.4021	
-0.401794	
-0.401733	
-0.400146	
-0.401123	
-0.400696	
-0.399292	
-0.400391	
-0.400879	
-0.400269	
-0.400085	
-0.400146	
-0.39856	
-0.399048	
-0.399048	
-0.397949	
-0.398193	
-0.397095	
-0.398743	
-0.399475	
-0.398926	
-0.398987	
-0.39978	
-0.398987	
-0.399475	
-0.400085	
-0.398987	
-0.398926	
-0.397888	
-0.399048	
-0.398804	
-0.398804	
-0.399109	
-0.399719	
-0.398438	
-0.398926	
-0.398804	
-0.398132	
-0.397705	
-0.396423	
-0.397034	
-0.39679	
-0.396484	
-0.396362	
-0.396912	
-0.394592	
-0.394958	
-0.395081	
-0.394287	
-0.39386	
-0.393188	
-0.39325	
-0.392639	
-0.391541	
-0.390991	
-0.389771	
-0.387451	
-0.388367	
-0.386658	
-0.384949	
-0.383728	
-0.382813	
-0.381653	
-0.380127	
-0.378357	
-0.377197	
-0.377136	
-0.375061	
-0.37439	
-0.373047	
-0.372803	
-0.372192	
-0.372192	
-0.372559	
-0.373291	
-0.37262	
-0.374023	
-0.374817	
-0.376282	
-0.37854	
-0.378052	
-0.380127	
-0.381714	
-0.382996	
-0.385803	
-0.388245	
-0.388245	
-0.391174	
-0.392883	
-0.394958	
-0.397827	
-0.397888	
-0.399048	
-0.399902	
-0.402222	
-0.40332	
-0.404663	
-0.405273	
-0.406921	
-0.407227	
-0.408569	
-0.410034	
-0.410645	
-0.412231	
-0.412415	
-0.415222	
-0.416382	
-0.418884	
-0.419067	
-0.420715	
-0.421936	
-0.424133	
-0.426147	
-0.427429	
-0.429565	
-0.430115	
-0.432373	
-0.434753	
-0.436584	
-0.437439	
-0.439087	
-0.438965	
-0.441284	
-0.44281	
-0.442017	
-0.44281	
-0.44458	
-0.443542	
-0.444092	
-0.443909	
-0.443054	
-0.442871	
-0.440918	
-0.440796	
-0.439636	
-0.438599	
-0.437744	
-0.43689	
-0.43512	
-0.434082	
-0.432434	
-0.431213	
-0.430908	
-0.429565	
-0.429199	
-0.428589	
-0.427917	
-0.426697	
-0.425537	
-0.42511	
-0.425049	
-0.424011	
-0.423035	
-0.423279	
-0.422241	
-0.421875	
-0.420776	
-0.419983	
-0.419617	
-0.418152	
-0.418213	
-0.417419	
-0.416382	
-0.415466	
-0.414551	
-0.411926	
-0.412354	
-0.410767	
-0.408936	
-0.408142	
-0.407166	
-0.407532	
-0.40564	
-0.404541	
-0.404114	
-0.404541	
-0.402466	
-0.402344	
-0.400269	
-0.399658	
-0.398804	
-0.397278	
-0.397156	
-0.395996	
-0.394409	
-0.394409	
-0.394226	
-0.392273	
-0.391541	
-0.390808	
-0.389587	
-0.388489	
-0.387695	
-0.387268	
-0.386597	
-0.385559	
-0.385559	
-0.385193	
-0.384338	
-0.383972	
-0.383179	
-0.381897	
-0.381714	
-0.381042	
-0.379883	
-0.379028	
-0.378235	
-0.377625	
-0.377625	
-0.376648	
-0.375854	
-0.37616	
-0.375366	
-0.374512	
-0.374146	
-0.373352	
-0.372803	
-0.372253	
-0.372681	
-0.373352	
-0.371704	
-0.371948	
-0.371826	
-0.37085	
-0.369568	
-0.369141	
-0.368469	
-0.367615	
-0.366272	
-0.367004	
-0.367126	
-0.365601	
-0.365845	
-0.365051	
-0.364136	
-0.363586	
-0.362915	
-0.363342	
-0.362915	
-0.362488	
-0.363098	
-0.363647	
-0.363037	
-0.36499	
-0.364014	
-0.364685	
-0.365234	
-0.365173	
-0.366455	
-0.366821	
-0.368469	
-0.368225	
-0.369324	
-0.369751	
-0.370117	
-0.370667	
-0.371704	
-0.371399	
-0.372192	
-0.373474	
-0.373596	
-0.374817	
-0.375977	
-0.375916	
-0.375732	
-0.37793	
-0.37793	
-0.378235	
-0.378845	
-0.378906	
-0.378906	
-0.378479	
-0.379089	
-0.380005	
-0.378967	
-0.380066	
-0.379272	
-0.379333	
-0.379822	
-0.379395	
-0.38031	
-0.380371	
-0.381226	
-0.381226	
-0.381836	
-0.381653	
-0.383606	
-0.381897	
-0.382813	
-0.382996	
-0.383362	
-0.383179	
-0.383484	
-0.383728	
-0.383484	
-0.383179	
-0.383789	
-0.384155	
-0.383179	
-0.383484	
-0.382874	
-0.383423	
-0.383118	
-0.383118	
-0.384094	
-0.384399	
-0.383484	
-0.383179	
-0.383667	
-0.382996	
-0.38269	
-0.38208	
-0.382629	
-0.382324	
-0.382019	
-0.383728	
-0.38324	
-0.381958	
-0.382202	
-0.382874	
-0.382629	
-0.382385	
-0.381042	
-0.382935	
-0.383301	
-0.383667	
-0.385132	
-0.385193	
-0.384827	
-0.384338	
-0.38501	
-0.384827	
-0.385254	
-0.38324	
-0.384827	
-0.384827	
-0.384705	
-0.385132	
-0.385254	
-0.384521	
-0.384094	
-0.384033	
-0.383789	
-0.383484	
-0.381897	
-0.383667	
-0.383972	
-0.383911	
-0.384521	
-0.384644	
-0.383728	
-0.383423	
-0.383179	
-0.383484	
-0.38324	
-0.383057	
-0.383423	
-0.383606	
-0.383789	
-0.383972	
-0.384521	
-0.383911	
-0.383911	
-0.382935	
-0.38385	
-0.383179	
-0.38269	
-0.382813	
-0.382996	
-0.382874	
-0.383972	
-0.384277	
-0.383972	
-0.384277	
-0.38324	
-0.383179	
-0.383667	
-0.383545	
-0.383911	
-0.383789	
-0.383789	
-0.383606	
-0.384644	
-0.383728	
-0.384888	
-0.384338	
-0.384766	
-0.384949	
-0.385437	
-0.386292	
-0.386047	
-0.386169	
-0.385559	
-0.38678	
-0.386841	
-0.387329	
-0.386414	
-0.38678	
-0.386597	
-0.386536	
-0.388	
-0.387329	
-0.387878	
-0.387451	
-0.388733	
-0.387817	
-0.387939	
-0.387024	
-0.387512	
-0.38739	
-0.386536	
-0.388062	
-0.387146	
-0.387146	
-0.386597	
-0.38855	
-0.387268	
-0.387329	
-0.387512	
-0.387329	
-0.386719	
-0.385864	
-0.386902	
-0.385986	
-0.385742	
-0.385315	
-0.38678	
-0.385498	
-0.385986	
-0.386292	
-0.385681	
-0.385681	
-0.385681	
-0.387329	
-0.386353	
-0.386414	
-0.386292	
-0.387817	
-0.386475	
-0.386963	
-0.386597	
-0.386475	
-0.386597	
-0.386292	
-0.387817	
-0.387085	
-0.387451	
-0.38678	
-0.388367	
-0.386902	
-0.387024	
-0.38739	
-0.387146	
-0.386414	
-0.386597	
-0.388306	
-0.387207	
-0.387573	
-0.387329	
-0.388428	
-0.387573	
-0.387695	
-0.387207	
-0.38678	
-0.387085	
-0.386047	
-0.387756	
-0.386841	
-0.386292	
-0.385193	
-0.386963	
-0.385986	
-0.385864	
-0.385376	
-0.386169	
-0.38562	
-0.385071	
-0.386169	
-0.385559	
-0.385193	
-0.384033	
-0.386597	
-0.385498	
-0.386047	
-0.385559	
-0.385559	
-0.385681	
-0.385071	
-0.385681	
-0.386475	
-0.386658	
-0.386108	
-0.387817	
-0.386841	
-0.388062	
-0.387451	
-0.387695	
-0.388672	
-0.388245	
-0.389709	
-0.390015	
-0.390259	
-0.390808	
-0.391357	
-0.390869	
-0.392151	
-0.391174	
-0.39093	
-0.391663	
-0.391663	
-0.391968	
-0.392395	
-0.392212	
-0.392639	
-0.3927	
-0.392151	
-0.393433	
-0.392212	
-0.391235	
-0.391663	
-0.392151	
-0.391907	
-0.391846	
-0.392212	
-0.392761	
-0.392334	
-0.391663	
-0.392944	
-0.392334	
-0.390686	
-0.391174	
-0.392212	
-0.391907	
-0.392273	
-0.390808	
-0.390625	
-0.391113	
-0.391846	
-0.391541	
-0.390198	
-0.38855	
-0.390625	
-0.391235	
-0.390198	
-0.389954	
-0.389954	
-0.390015	
-0.389709	
-0.39093	
-0.390869	
-0.389221	
-0.387512	
-0.388916	
-0.390076	
-0.388916	
-0.389099	
-0.388855	
-0.389587	
-0.389771	
-0.390503	
-0.390137	
-0.389343	
-0.387695	
-0.388672	
-0.390137	
-0.390137	
-0.389526	
-0.389221	
-0.389771	
-0.390137	
-0.391052	
-0.39093	
-0.389832	
-0.388733	
-0.389709	
-0.389832	
-0.389282	
-0.389099	
-0.388916	
-0.389526	
-0.389832	
-0.390686	
-0.390625	
-0.390198	
-0.388428	
-0.389526	
-0.389587	
-0.389465	
-0.389893	
-0.389404	
-0.390137	
-0.390198	
-0.390869	
-0.390076	
-0.391052	
-0.389221	
-0.389709	
-0.390137	
-0.389282	
-0.389343	
-0.388855	
-0.388672	
-0.388672	
-0.390259	
-0.389343	
-0.389954	
-0.389099	
-0.388855	
-0.39032	
-0.389893	
-0.389893	
-0.389343	
-0.389709	
-0.389954	
-0.391418	
-0.390015	
-0.389954	
-0.38916	
-0.387878	
-0.389526	
-0.388916	
-0.388428	
-0.387756	
-0.38855	
-0.388855	
-0.389282	
-0.388794	
-0.389343	
-0.388306	
-0.387512	
-0.388794	
-0.388367	
-0.388794	
-0.388	
-0.388489	
-0.388245	
-0.389709	
-0.389648	
-0.389343	
-0.388367	
-0.388428	
-0.389465	
-0.389893	
-0.389832	
-0.388977	
-0.389648	
-0.390808	
-0.391479	
-0.391235	
-0.390503	
-0.390686	
-0.390442	
-0.391113	
-0.390503	
-0.391113	
-0.390625	
-0.391724	
-0.391846	
-0.392334	
-0.392029	
-0.391235	
-0.39093	
-0.390442	
-0.390686	
-0.389404	
-0.390259	
-0.390198	
-0.390625	
-0.39032	
-0.391479	
-0.391663	
-0.39093	
-0.390747	
-0.390747	
-0.390991	
-0.390198	
-0.391541	
-0.391357	
-0.391235	
-0.391418	
-0.392212	
-0.391724	
-0.391968	
-0.391724	
-0.391724	
-0.391846	
-0.391296	
-0.391541	
-0.391846	
-0.392395	
-0.391907	
-0.393066	
-0.392395	
-0.393127	
-0.392883	
-0.392456	
-0.392334	
-0.391541	
-0.393005	
-0.392822	
-0.392883	
-0.392944	
-0.393188	
-0.392761	
-0.393494	
-0.392944	
-0.391907	
-0.392212	
-0.391724	
-0.39209	
-0.392273	
-0.392456	
-0.392273	
-0.392761	
-0.392822	
-0.39325	
-0.39325	
-0.392212	
-0.391296	
-0.391296	
-0.391296	
-0.391113	
-0.390686	
-0.39093	
-0.39093	
-0.390503	
-0.390991	
-0.390381	
-0.389282	
-0.388611	
-0.389099	
-0.388977	
-0.388977	
-0.389038	
-0.388733	
-0.388855	
-0.388855	
-0.389709	
-0.389526	
-0.388855	
-0.388	
-0.388489	
-0.388977	
-0.388855	
-0.388733	
-0.389038	
-0.389343	
-0.389404	
-0.390198	
-0.389343	
-0.389404	
-0.38916	
-0.388489	
-0.389282	
-0.389832	
-0.390076	
-0.390503	
-0.390991	
-0.390747	
-0.391663	
-0.391418	
-0.389832	
-0.390625	
-0.389893	
-0.390503	
-0.390808	
-0.390503	
-0.390991	
-0.391296	
-0.391541	
-0.391541	
-0.39209	
-0.390198	
-0.391357	
-0.390991	
-0.390259	
-0.391479	
-0.390503	
-0.390991	
-0.391663	
-0.392212	
-0.391357	
-0.392334	
-0.390686	
-0.391479	
-0.390564	
-0.389771	
-0.390015	
-0.389404	
-0.390503	
-0.390137	
-0.391052	
-0.390564	
-0.391602	
-0.390869	
-0.390869	
-0.39032	
-0.390259	
-0.390686	
-0.390686	
-0.391663	
-0.391907	
-0.393433	
-0.3927	
-0.393738	
-0.39386	
-0.392822	
-0.392822	
-0.393372	
-0.393799	
-0.392944	
-0.393799	
-0.393799	
-0.394287	
-0.393921	
-0.394836	
-0.393921	
-0.393555	
-0.39386	
-0.392761	
-0.393555	
-0.393311	
-0.393433	
-0.393311	
-0.393555	
-0.392944	
-0.393127	
-0.392395	
-0.391968	
-0.391479	
-0.390869	
-0.39093	
-0.390747	
-0.390137	
-0.389893	
-0.389648	
-0.389465	
-0.389954	
-0.38855	
-0.388367	
-0.387878	
-0.387268	
-0.388306	
-0.388306	
-0.387085	
-0.387634	
-0.388	
-0.388062	
-0.388916	
-0.387756	
-0.387634	
-0.387512	
-0.388	
-0.386719	
-0.387878	
-0.386658	
-0.387878	
-0.388	
-0.387756	
-0.388916	
-0.387878	
-0.388489	
-0.387512	
-0.387695	
-0.387329	
-0.387939	
-0.387268	
-0.388306	
-0.389038	
-0.388367	
-0.388733	
-0.388245	
-0.38916	
-0.387817	
-0.388062	
-0.387085	
-0.389038	
-0.388367	
-0.388916	
-0.389221	
-0.389404	
-0.389587	
-0.389832	
-0.390137	
-0.389587	
-0.389587	
-0.389465	
-0.390198	
-0.390564	
-0.39032	
-0.39032	
-0.390381	
-0.390503	
-0.390686	
-0.389954	
-0.389587	
-0.38916	
-0.390076	
-0.389771	
-0.389282	
-0.390015	
-0.390198	
-0.389526	
-0.389282	
-0.390808	
-0.389038	
-0.389465	
-0.388611	
-0.390564	
-0.390381	
-0.390503	
-0.390076	
-0.390198	
-0.390503	
-0.390381	
-0.391235	
-0.390259	
-0.390442	
-0.389404	
-0.390747	
-0.39032	
-0.390198	
-0.389526	
-0.390442	
-0.390869	
-0.390381	
-0.391235	
-0.390747	
-0.390686	
-0.390137	
-0.390137	
-0.390442	
-0.390869	
-0.389954	
-0.390991	
-0.391785	
-0.39093	
-0.391968	
-0.391052	
-0.389893	
-0.389465	
-0.390198	
-0.389832	
-0.389709	
-0.389099	
-0.389893	
-0.390625	
-0.390137	
-0.390991	
-0.389954	
-0.390442	
-0.390259	
-0.390686	
-0.390564	
-0.390808	
-0.390808	
-0.391052	
-0.391174	
-0.390747	
-0.391418	
-0.391235	
-0.391052	
-0.390442	
-0.390442	
-0.390076	
-0.390747	
-0.390137	
-0.390869	
-0.391113	
-0.390503	
-0.39093	
-0.391235	
-0.390686	
-0.389709	
-0.389587	
-0.388	
-0.389648	
-0.388794	
-0.388611	
-0.388855	
-0.388184	
-0.388428	
-0.388733	
-0.387024	
-0.387024	
-0.386047	
-0.386536	
-0.387878	
-0.387329	
-0.387573	
-0.388306	
-0.388611	
-0.388245	
-0.389587	
-0.388855	
-0.388672	
-0.387329	
-0.387573	
-0.389587	
-0.388794	
-0.388245	
-0.389099	
-0.389709	
-0.388794	
-0.389526	
-0.388	
-0.387634	
-0.388	
-0.38678	
-0.387634	
-0.387573	
-0.38623	
-0.387695	
-0.388245	
-0.387634	
-0.388123	
-0.387268	
-0.386902	
-0.386597	
-0.386353	
-0.386536	
-0.386475	
-0.385559	
-0.386841	
-0.387024	
-0.386536	
-0.386902	
-0.386841	
-0.385681	
-0.385742	
-0.385559	
-0.38562	
-0.385559	
-0.385254	
-0.385559	
-0.38562	
-0.386108	
-0.38623	
-0.387268	
-0.385132	
-0.385498	
-0.386047	
-0.386292	
-0.386108	
-0.385803	
-0.386353	
-0.385803	
-0.38562	
-0.386597	
-0.38678	
-0.384888	
-0.385925	
-0.386536	
-0.386719	
-0.387146	
-0.387329	
-0.387573	
-0.387878	
-0.388672	
-0.388733	
-0.389648	
-0.388367	
-0.388306	
-0.388123	
-0.388306	
-0.389038	
-0.388916	
-0.389099	
-0.389221	
-0.389709	
-0.389709	
-0.390015	
-0.388977	
-0.389099	
-0.388794	
-0.388977	
-0.388733	
-0.389038	
-0.388184	
-0.388611	
-0.388855	
-0.38916	
-0.389465	
-0.388062	
-0.388245	
-0.388062	
-0.388733	
-0.388123	
-0.387146	
-0.386353	
-0.387329	
-0.386536	
-0.386719	
-0.387451	
-0.386719	
-0.386475	
-0.385132	
-0.386414	
-0.386414	
-0.386658	
-0.386108	
-0.386169	
-0.386597	
-0.386536	
-0.387207	
-0.386414	
-0.386169	
-0.385132	
-0.385986	
-0.386292	
-0.386353	
-0.385986	
-0.386292	
-0.38678	
-0.386719	
-0.38739	
-0.387207	
-0.384644	
-0.385803	
-0.386902	
-0.386475	
-0.386719	
-0.38678	
-0.387268	
-0.387146	
-0.387451	
-0.388184	
-0.387573	
-0.385437	
-0.386353	
-0.386353	
-0.386108	
-0.385681	
-0.385498	
-0.385376	
-0.384888	
-0.385803	
-0.385376	
-0.385437	
-0.383667	
-0.383423	
-0.382874	
-0.383789	
-0.383789	
-0.383179	
-0.383484	
-0.383667	
-0.384644	
-0.38385	
-0.384033	
-0.383057	
-0.383423	
-0.382263	
-0.383728	
-0.383545	
-0.383728	
-0.382935	
-0.384521	
-0.384583	
-0.385193	
-0.385681	
-0.38501	
-0.385437	
-0.383301	
-0.386414	
-0.386536	
-0.387085	
-0.386169	
-0.388	
-0.387756	
-0.388123	
-0.388855	
-0.388367	
-0.38739	
-0.386475	
-0.388855	
-0.388733	
-0.388672	
-0.388977	
-0.389526	
-0.389465	
-0.389832	
-0.390259	
-0.389099	
-0.387878	
-0.387695	
-0.389038	
-0.389221	
-0.389099	
-0.389343	
-0.389771	
-0.389587	
-0.390076	
-0.390808	
-0.389343	
-0.388977	
-0.388611	
-0.388428	
-0.38916	
-0.389038	
-0.388855	
-0.388428	
-0.388672	
-0.389893	
-0.389954	
-0.388794	
-0.387695	
-0.387695	
-0.388306	
-0.388611	
-0.387573	
-0.387756	
-0.387878	
-0.387634	
-0.387817	
-0.388123	
-0.388489	
-0.386719	
-0.38678	
-0.386841	
-0.387146	
-0.38678	
-0.387024	
-0.386963	
-0.386902	
-0.387268	
-0.387329	
-0.388	
-0.386963	
-0.386536	
-0.386353	
-0.387146	
-0.387573	
-0.386902	
-0.387268	
-0.387024	
-0.387878	
-0.387695	
-0.388855	
-0.38739	
-0.38562	
-0.385437	
-0.387085	
-0.386902	
-0.386841	
-0.385498	
-0.387085	
-0.387146	
-0.387146	
-0.387573	
-0.386292	
-0.385803	
-0.384705	
-0.386536	
-0.386353	
-0.386597	
-0.386047	
-0.386414	
-0.386658	
-0.387939	
-0.388062	
-0.386169	
-0.386353	
-0.385681	
-0.38678	
-0.386108	
-0.386475	
-0.385254	
-0.385742	
-0.385925	
-0.386169	
-0.387939	
-0.386841	
-0.386414	
-0.386108	
-0.387573	
-0.38739	
-0.386841	
-0.386597	
-0.386841	
-0.386597	
-0.387024	
-0.388	
-0.386658	
-0.386108	
-0.385315	
-0.38562	
-0.38562	
-0.385559	
-0.385315	
-0.385681	
-0.385864	
-0.386108	
-0.387024	
-0.38678	
-0.385986	
-0.384949	
-0.385437	
-0.386047	
-0.385742	
-0.385864	
-0.385742	
-0.385986	
-0.386658	
-0.387939	
-0.38739	
-0.385986	
-0.385437	
-0.386536	
-0.387146	
-0.387451	
-0.387268	
-0.388184	
-0.388184	
-0.388611	
-0.389954	
-0.389465	
-0.388733	
-0.387939	
-0.388245	
-0.38855	
-0.388611	
-0.388733	
-0.388733	
-0.388916	
-0.389099	
-0.390198	
-0.389526	
-0.388306	
-0.387146	
-0.388184	
-0.387817	
-0.388123	
-0.387634	
-0.386658	
-0.387817	
-0.388367	
-0.389832	
-0.389587	
-0.38855	
-0.387512	
-0.388367	
-0.387878	
-0.388489	
-0.388611	
-0.38855	
-0.388672	
-0.388611	
-0.390747	
-0.389465	
-0.389221	
-0.388611	
-0.389038	
-0.389526	
-0.388855	
-0.389771	
-0.389648	
-0.389587	
-0.389954	
-0.390747	
-0.389771	
-0.390747	
-0.389465	
-0.389832	
-0.390442	
-0.390381	
-0.390198	
-0.390076	
-0.390442	
-0.391052	
-0.391174	
-0.390808	
-0.390503	
-0.389709	
-0.389221	
-0.388855	
-0.389893	
-0.389954	
-0.390259	
-0.390015	
-0.390564	
-0.39093	
-0.390808	
-0.390747	
-0.389954	
-0.388855	
-0.389099	
-0.389282	
-0.388977	
-0.38916	
-0.386902	
-0.388184	
-0.388489	
-0.388123	
-0.388245	
-0.387512	
-0.385681	
-0.386719	
-0.386292	
-0.387146	
-0.387329	
-0.385986	
-0.386963	
-0.387085	
-0.387512	
-0.387817	
-0.387329	
-0.38501	
-0.387085	
-0.387207	
-0.387329	
-0.387024	
-0.386597	
-0.387451	
-0.387329	
-0.388916	
-0.38855	
-0.38855	
-0.386292	
-0.387085	
-0.388428	
-0.388855	
-0.388367	
-0.388	
-0.38916	
-0.389465	
-0.391052	
-0.390137	
-0.390198	
-0.388977	
-0.389038	
-0.390198	
-0.389587	
-0.38916	
-0.389526	
-0.389526	
-0.390015	
-0.390747	
-0.390503	
-0.390137	
-0.389954	
-0.389709	
-0.390137	
-0.389709	
-0.390076	
-0.389893	
-0.390259	
-0.389954	
-0.390869	
-0.390076	
-0.390015	
-0.390137	
-0.388611	
-0.389465	
-0.38916	
-0.389648	
-0.388733	
-0.389038	
-0.389282	
-0.390076	
-0.390503	
-0.389709	
-0.388977	
-0.387939	
-0.389709	
-0.389404	
-0.390808	
-0.390503	
-0.39032	
-0.391052	
-0.391602	
-0.392761	
-0.391541	
-0.391968	
-0.392029	
-0.392273	
-0.391174	
-0.392639	
-0.392578	
-0.390808	
-0.392334	
-0.393066	
-0.393738	
-0.392761	
-0.393188	
-0.391418	
-0.391846	
-0.391785	
-0.391602	
-0.392029	
-0.391479	
-0.391479	
-0.391785	
-0.392639	
-0.39093	
-0.391235	
-0.389343	
-0.388977	
-0.390259	
-0.389282	
-0.388672	
-0.388794	
-0.388245	
-0.387756	
-0.388794	
-0.387939	
-0.388062	
-0.386047	
-0.385681	
-0.387451	
-0.386536	
-0.386536	
-0.38623	
-0.386536	
-0.387024	
-0.387817	
-0.387024	
-0.387329	
-0.386719	
-0.384094	
-0.386414	
-0.386902	
-0.386353	
-0.386292	
-0.386169	
-0.386963	
-0.387451	
-0.387695	
-0.387329	
-0.386414	
-0.385071	
-0.387268	
-0.386597	
-0.387329	
-0.387207	
-0.386475	
-0.387634	
-0.387756	
-0.388977	
-0.387573	
-0.387573	
-0.386292	
-0.387634	
-0.387268	
-0.387939	
-0.388062	
-0.387024	
-0.38855	
	
