E:\DOCUMENTS AND SETTINGS\JPOTAS\MEUS DOCUMENTOS\UFRJ\RSCI-BM 12 WK SERIES\070723-RSCI-BM-06\RSCI-BM-06-REMG\070723-RSCI-BM-REMG-0015.ACQ
0.025000 msec/sample
1 channel
Analog input
Volts
CH1	
2000	
-0.392517	
-0.391418	
-0.392212	
-0.392212	
-0.391846	
-0.392883	
-0.390381	
-0.390869	
-0.391663	
-0.391296	
-0.390991	
-0.39093	
-0.390381	
-0.389893	
-0.390076	
-0.389832	
-0.389893	
-0.387756	
-0.387878	
-0.387573	
-0.38855	
-0.388245	
-0.388672	
-0.387512	
-0.388367	
-0.387817	
-0.388611	
-0.390625	
-0.389587	
-0.389648	
-0.388062	
-0.390076	
-0.390625	
-0.391052	
-0.390564	
-0.391479	
-0.390442	
-0.391602	
-0.391907	
-0.391235	
-0.391602	
-0.390137	
-0.391602	
-0.391541	
-0.391785	
-0.392029	
-0.392151	
-0.390503	
-0.391724	
-0.391174	
-0.392151	
-0.391113	
-0.390869	
-0.391174	
-0.391479	
-0.390747	
-0.391113	
-0.391663	
-0.390198	
-0.390808	
-0.389893	
-0.390076	
-0.389709	
-0.390808	
-0.390076	
-0.390503	
-0.389587	
-0.389832	
-0.390076	
-0.390015	
-0.391418	
-0.388855	
-0.389526	
-0.389099	
-0.390076	
-0.389221	
-0.389648	
-0.387756	
-0.388794	
-0.388062	
-0.388062	
-0.388733	
-0.387451	
-0.38855	
-0.387329	
-0.389343	
-0.388733	
-0.388916	
-0.387756	
-0.389099	
-0.388855	
-0.389771	
-0.390564	
-0.389832	
-0.390198	
-0.390381	
-0.390747	
-0.390747	
-0.390869	
-0.389465	
-0.391113	
-0.389648	
-0.391418	
-0.39209	
-0.391357	
-0.391296	
-0.390564	
-0.391296	
-0.390869	
-0.391235	
-0.390015	
-0.392029	
-0.391052	
-0.392395	
-0.392029	
-0.391235	
-0.390625	
-0.390564	
-0.391235	
-0.390686	
-0.390808	
-0.390747	
-0.391541	
-0.390991	
-0.391907	
-0.390808	
-0.390503	
-0.389221	
-0.389465	
-0.390015	
-0.389954	
-0.389954	
-0.390442	
-0.390747	
-0.390991	
-0.390991	
-0.390808	
-0.390625	
-0.390503	
-0.390259	
-0.391235	
-0.392395	
-0.391541	
-0.391663	
-0.392029	
-0.392395	
-0.39209	
-0.391174	
-0.391357	
-0.391541	
-0.391724	
-0.392029	
-0.393066	
-0.391541	
-0.392151	
-0.391541	
-0.391724	
-0.391235	
-0.390381	
-0.391724	
-0.391357	
-0.391174	
-0.390686	
-0.391907	
-0.39093	
-0.391418	
-0.391235	
-0.391785	
-0.391846	
-0.390564	
-0.391785	
-0.391418	
-0.39209	
-0.391235	
-0.392151	
-0.391418	
-0.391602	
-0.390869	
-0.392883	
-0.3927	
-0.391113	
-0.391907	
-0.391907	
-0.393494	
-0.3927	
-0.391968	
-0.391357	
-0.39209	
-0.391602	
-0.392822	
-0.392334	
-0.391602	
-0.391968	
-0.391724	
-0.391663	
-0.392151	
-0.391113	
-0.386536	
-0.388489	
-0.390686	
-0.392212	
-0.391846	
-0.390808	
-0.390564	
-0.391174	
-0.391174	
-0.391663	
-0.391296	
-0.39093	
-0.391602	
-0.391418	
-0.391907	
-0.392395	
-0.391357	
-0.390564	
-0.391418	
-0.391663	
-0.391846	
-0.391602	
-0.391724	
-0.3927	
-0.39209	
-0.391846	
-0.392273	
-0.391968	
-0.391418	
-0.391907	
-0.391846	
-0.392578	
-0.392151	
-0.392395	
-0.392761	
-0.392395	
-0.391235	
-0.390747	
-0.391357	
-0.391724	
-0.390625	
-0.391357	
-0.391174	
-0.390442	
-0.391357	
-0.391907	
-0.392639	
-0.393005	
-0.392822	
-0.393372	
-0.393677	
-0.393311	
-0.394226	
-0.39502	
-0.393921	
-0.395325	
-0.394775	
-0.395813	
-0.39563	
-0.395386	
-0.395142	
-0.395447	
-0.395447	
-0.395569	
-0.396484	
-0.394714	
-0.395386	
-0.394592	
-0.39563	
-0.394226	
-0.394104	
-0.393799	
-0.394226	
-0.393921	
-0.393616	
-0.394226	
-0.393372	
-0.39386	
-0.392517	
-0.392883	
-0.392883	
-0.392517	
-0.391174	
-0.392761	
-0.3927	
-0.392456	
-0.393555	
-0.393311	
-0.393555	
-0.392578	
-0.394104	
-0.393738	
-0.394348	
-0.394653	
-0.39502	
-0.395813	
-0.396179	
-0.394958	
-0.396851	
-0.39679	
-0.39801	
-0.397888	
-0.397949	
-0.398254	
-0.399231	
-0.398682	
-0.398987	
-0.399841	
-0.398682	
-0.399109	
-0.398682	
-0.399475	
-0.398376	
-0.398254	
-0.397156	
-0.398254	
-0.396179	
-0.39502	
-0.394043	
-0.392944	
-0.391235	
-0.389648	
-0.388855	
-0.388672	
-0.387268	
-0.386047	
-0.385803	
-0.386047	
-0.38562	
-0.385315	
-0.387085	
-0.386841	
-0.386963	
-0.388855	
-0.391174	
-0.391296	
-0.392883	
-0.393921	
-0.395874	
-0.398254	
-0.399414	
-0.401245	
-0.401611	
-0.404358	
-0.404053	
-0.406311	
-0.40802	
-0.410828	
-0.411438	
-0.412781	
-0.414063	
-0.415588	
-0.416565	
-0.417847	
-0.41925	
-0.421509	
-0.42218	
-0.423767	
-0.424561	
-0.426941	
-0.427795	
-0.429688	
-0.432434	
-0.4328	
-0.43512	
-0.435303	
-0.437866	
-0.43866	
-0.44281	
-0.44342	
-0.446289	
-0.448242	
-0.450562	
-0.451904	
-0.452698	
-0.454834	
-0.456299	
-0.456726	
-0.458069	
-0.458862	
-0.460266	
-0.461121	
-0.461853	
-0.463257	
-0.462463	
-0.461609	
-0.460327	
-0.4599	
-0.457458	
-0.456116	
-0.453857	
-0.453125	
-0.451111	
-0.449463	
-0.448364	
-0.446167	
-0.445496	
-0.442444	
-0.441406	
-0.439026	
-0.439392	
-0.435974	
-0.435364	
-0.434204	
-0.431885	
-0.430786	
-0.429321	
-0.429382	
-0.427612	
-0.427917	
-0.425964	
-0.427185	
-0.424988	
-0.426453	
-0.426331	
-0.426147	
-0.425781	
-0.424072	
-0.424377	
-0.424377	
-0.424133	
-0.422302	
-0.422424	
-0.420837	
-0.420776	
-0.418213	
-0.418213	
-0.41687	
-0.416504	
-0.414795	
-0.414368	
-0.411865	
-0.411011	
-0.409302	
-0.408447	
-0.408447	
-0.40741	
-0.407593	
-0.406433	
-0.407104	
-0.40509	
-0.406189	
-0.404602	
-0.404541	
-0.403198	
-0.403015	
-0.402344	
-0.401184	
-0.401306	
-0.399414	
-0.400696	
-0.399231	
-0.400513	
-0.39856	
-0.398804	
-0.39679	
-0.396423	
-0.396667	
-0.395203	
-0.394348	
-0.393005	
-0.39386	
-0.392822	
-0.392578	
-0.390869	
-0.392029	
-0.39032	
-0.390015	
-0.389465	
-0.388916	
-0.388306	
-0.387268	
-0.38739	
-0.386963	
-0.387085	
-0.386597	
-0.385925	
-0.385193	
-0.384827	
-0.383667	
-0.384888	
-0.383606	
-0.38385	
-0.382263	
-0.382874	
-0.381165	
-0.381042	
-0.380188	
-0.379456	
-0.379456	
-0.378296	
-0.378235	
-0.376526	
-0.376587	
-0.374573	
-0.374756	
-0.373047	
-0.37323	
-0.370422	
-0.371521	
-0.370544	
-0.370178	
-0.368164	
-0.367371	
-0.367371	
-0.367493	
-0.366272	
-0.365662	
-0.364685	
-0.364746	
-0.364441	
-0.363281	
-0.363037	
-0.362366	
-0.362671	
-0.360107	
-0.361267	
-0.359558	
-0.360596	
-0.359131	
-0.360535	
-0.359924	
-0.360352	
-0.360107	
-0.359375	
-0.360535	
-0.360901	
-0.360779	
-0.361755	
-0.361816	
-0.362061	
-0.36322	
-0.363708	
-0.365234	
-0.364197	
-0.365479	
-0.364136	
-0.366333	
-0.365784	
-0.367615	
-0.365784	
-0.367981	
-0.36792	
-0.369019	
-0.369141	
-0.368896	
-0.369141	
-0.370117	
-0.370667	
-0.371033	
-0.371094	
-0.372009	
-0.372192	
-0.371826	
-0.373047	
-0.372192	
-0.373352	
-0.372498	
-0.373718	
-0.372314	
-0.374207	
-0.373047	
-0.374817	
-0.373901	
-0.376038	
-0.374451	
-0.375366	
-0.37561	
-0.37616	
-0.375916	
-0.375671	
-0.376038	
-0.376953	
-0.377747	
-0.377075	
-0.378784	
-0.377136	
-0.378662	
-0.376587	
-0.377869	
-0.376038	
-0.37793	
-0.37616	
-0.377197	
-0.376404	
-0.376526	
-0.376953	
-0.376648	
-0.377014	
-0.377258	
-0.377319	
-0.377747	
-0.377441	
-0.37793	
-0.378296	
-0.377625	
-0.378357	
-0.377869	
-0.379456	
-0.378845	
-0.380615	
-0.379089	
-0.380615	
-0.379944	
-0.380737	
-0.380676	
-0.381165	
-0.38208	
-0.381592	
-0.383057	
-0.382324	
-0.383667	
-0.38446	
-0.385437	
-0.384338	
-0.386169	
-0.385071	
-0.386902	
-0.386597	
-0.387878	
-0.387146	
-0.387573	
-0.387817	
-0.388428	
-0.387939	
-0.388489	
-0.389587	
-0.388672	
-0.389282	
-0.388367	
-0.389771	
-0.388977	
-0.389709	
-0.388672	
-0.39032	
-0.38855	
-0.388611	
-0.388916	
-0.389465	
-0.389954	
-0.387878	
-0.388733	
-0.388367	
-0.389709	
-0.388367	
-0.38916	
-0.387939	
-0.388855	
-0.387695	
-0.388794	
-0.388794	
-0.389282	
-0.389343	
-0.388733	
-0.389099	
-0.389221	
-0.388306	
-0.389465	
-0.389465	
-0.38916	
-0.389832	
-0.390015	
-0.390198	
-0.388855	
-0.389893	
-0.388855	
-0.389038	
-0.388184	
-0.388367	
-0.388977	
-0.388611	
-0.388977	
-0.388	
-0.388855	
-0.388245	
-0.388123	
-0.386841	
-0.388611	
-0.385925	
-0.386658	
-0.387756	
-0.387146	
-0.38739	
-0.385315	
-0.386475	
-0.385254	
-0.385681	
-0.384583	
-0.385193	
-0.385132	
-0.385193	
-0.383667	
-0.384399	
-0.38501	
-0.385071	
-0.385437	
-0.385315	
-0.386169	
-0.386719	
-0.386719	
-0.387329	
-0.387634	
-0.387207	
-0.388184	
-0.387451	
-0.388611	
-0.388245	
-0.389038	
-0.388306	
-0.389465	
-0.388367	
-0.389404	
-0.389832	
-0.388794	
-0.389343	
-0.388428	
-0.38916	
-0.388123	
-0.388489	
-0.387329	
-0.388916	
-0.388123	
-0.388184	
-0.388	
-0.387878	
-0.388245	
-0.387207	
-0.387817	
-0.388367	
-0.387146	
-0.38739	
-0.387878	
-0.387268	
-0.386841	
-0.386292	
-0.38739	
-0.387817	
-0.387695	
-0.38739	
-0.386658	
-0.386658	
-0.386841	
-0.386047	
-0.387207	
-0.386963	
-0.38501	
-0.385986	
-0.385071	
-0.386597	
-0.385681	
-0.384827	
-0.383911	
-0.385071	
-0.38562	
-0.385559	
-0.386169	
-0.384583	
-0.386414	
-0.385437	
-0.386169	
-0.386963	
-0.38678	
-0.386414	
-0.386719	
-0.38739	
-0.388245	
-0.388245	
-0.387451	
-0.388489	
-0.388	
-0.388733	
-0.388489	
-0.388428	
-0.389038	
-0.387939	
-0.389221	
-0.389465	
-0.38855	
-0.388367	
-0.389282	
-0.390198	
-0.389221	
-0.388245	
-0.389282	
-0.389832	
-0.389465	
-0.389282	
-0.389526	
-0.388367	
-0.389038	
-0.388428	
-0.389526	
-0.389832	
-0.388245	
-0.387085	
-0.388733	
-0.388733	
-0.388123	
-0.388123	
-0.388062	
-0.388306	
-0.388611	
-0.388794	
-0.389709	
-0.388489	
-0.389099	
-0.388428	
-0.390625	
-0.390869	
-0.390137	
-0.389587	
-0.390442	
-0.391418	
-0.390686	
-0.390503	
-0.390808	
-0.391541	
-0.390808	
-0.392395	
-0.392273	
-0.391479	
-0.390442	
-0.391541	
-0.391846	
-0.391724	
-0.391418	
-0.390381	
-0.391907	
-0.391907	
-0.391418	
-0.39209	
-0.391418	
-0.391602	
-0.392883	
-0.392029	
-0.3927	
-0.391357	
-0.392517	
-0.392578	
-0.393188	
-0.392456	
-0.391724	
-0.391174	
-0.392151	
-0.392944	
-0.391418	
-0.39209	
-0.390503	
-0.392151	
-0.391113	
-0.391968	
-0.392883	
-0.391663	
-0.390869	
-0.391357	
-0.392151	
-0.391418	
-0.391235	
-0.389282	
-0.391174	
-0.391296	
-0.390991	
-0.390747	
-0.389954	
-0.390076	
-0.389465	
-0.390381	
-0.390442	
-0.389648	
-0.389465	
-0.390015	
-0.390747	
-0.39032	
-0.390015	
-0.390259	
-0.390808	
-0.39093	
-0.390259	
-0.390869	
-0.389404	
-0.390564	
-0.390137	
-0.390991	
-0.391174	
-0.391296	
-0.389832	
-0.390808	
-0.392517	
-0.39093	
-0.391785	
-0.389709	
-0.391541	
-0.39032	
-0.391968	
-0.392273	
-0.390991	
-0.391724	
-0.391052	
-0.392273	
-0.391418	
-0.391968	
-0.390808	
-0.391602	
-0.391479	
-0.392029	
-0.391174	
-0.390137	
-0.39093	
-0.390198	
-0.391174	
-0.391357	
-0.390686	
-0.391663	
-0.391785	
-0.392883	
-0.392334	
-0.3927	
-0.391663	
-0.393066	
-0.394348	
-0.392029	
-0.393311	
-0.391541	
-0.392273	
-0.392883	
-0.393188	
-0.392578	
-0.392639	
-0.391541	
-0.392212	
-0.3927	
-0.391541	
-0.391724	
-0.389893	
-0.390747	
-0.389893	
-0.39093	
-0.390686	
-0.389771	
-0.38916	
-0.390076	
-0.389465	
-0.389038	
-0.388184	
-0.388	
-0.388245	
-0.388367	
-0.38739	
-0.388428	
-0.386597	
-0.386475	
-0.38739	
-0.38678	
-0.387268	
-0.38562	
-0.386475	
-0.386108	
-0.386719	
-0.38623	
-0.386536	
-0.385925	
-0.386536	
-0.386169	
-0.385559	
-0.386353	
-0.383789	
-0.385681	
-0.385498	
-0.386108	
-0.386597	
-0.386414	
-0.386169	
-0.386292	
-0.385315	
-0.385925	
-0.385315	
-0.385254	
-0.385803	
-0.385803	
-0.387146	
-0.386719	
-0.386414	
-0.385742	
-0.387268	
-0.38678	
-0.386841	
-0.385681	
-0.386292	
-0.385742	
-0.385925	
-0.385559	
-0.386169	
-0.385498	
-0.385071	
-0.38739	
-0.38623	
-0.386658	
-0.384583	
-0.385803	
-0.385803	
-0.38678	
-0.386536	
-0.387024	
-0.386536	
-0.387329	
-0.38678	
-0.386658	
-0.387512	
-0.384338	
-0.386536	
-0.386047	
-0.387817	
-0.387512	
-0.388916	
-0.387573	
-0.388245	
-0.387756	
-0.388916	
-0.388916	
-0.389465	
-0.389709	
-0.388794	
-0.390076	
-0.390137	
-0.390564	
-0.390198	
-0.391174	
-0.389221	
-0.390381	
-0.389221	
-0.389099	
-0.388611	
-0.388672	
-0.388	
-0.388123	
-0.387634	
-0.387634	
-0.388733	
-0.386597	
-0.387085	
-0.385315	
-0.386353	
-0.385986	
-0.387146	
-0.386292	
-0.386597	
-0.386292	
-0.386658	
-0.387268	
-0.386353	
-0.387146	
-0.384583	
-0.386475	
-0.38678	
-0.387939	
-0.387207	
-0.387573	
-0.386597	
-0.387268	
-0.386902	
-0.387634	
-0.387634	
-0.387268	
-0.387451	
-0.387634	
-0.388	
-0.388062	
-0.388794	
-0.387268	
-0.38916	
-0.387878	
-0.388794	
-0.388489	
-0.38855	
-0.388794	
-0.387878	
-0.38916	
-0.389221	
-0.389526	
-0.389343	
-0.390808	
-0.388428	
-0.390076	
-0.389954	
-0.390381	
-0.390137	
-0.390259	
-0.390076	
-0.390015	
-0.39032	
-0.389893	
-0.391296	
-0.388733	
-0.389587	
-0.387817	
-0.388977	
-0.387878	
-0.38855	
-0.387695	
-0.38739	
-0.387329	
-0.387634	
-0.387573	
-0.387207	
-0.387634	
-0.385925	
-0.386841	
-0.386902	
-0.387146	
-0.387451	
-0.387512	
-0.385925	
-0.387817	
-0.387085	
-0.387146	
-0.387329	
-0.386353	
-0.38739	
-0.386475	
-0.38678	
-0.387634	
-0.388245	
-0.387451	
-0.388733	
-0.386719	
-0.386963	
-0.387329	
-0.387512	
-0.387634	
-0.388123	
-0.388489	
-0.388489	
-0.388977	
-0.388672	
-0.388916	
-0.387207	
-0.387451	
-0.387634	
-0.387634	
-0.387573	
-0.387451	
-0.387573	
-0.387329	
-0.38739	
-0.387146	
-0.387573	
-0.386475	
-0.386414	
-0.385498	
-0.386536	
-0.386047	
-0.386292	
-0.38623	
-0.386536	
-0.38562	
-0.387634	
-0.386047	
-0.386475	
-0.386597	
-0.386414	
-0.386719	
-0.386902	
-0.386902	
-0.386963	
-0.387939	
-0.387085	
-0.388367	
-0.387146	
-0.387085	
-0.385742	
-0.38678	
-0.387024	
-0.386658	
-0.38678	
-0.387085	
-0.387878	
-0.38678	
-0.387451	
-0.386047	
-0.38678	
-0.386963	
-0.386475	
-0.385986	
-0.38623	
-0.386414	
-0.386963	
-0.386292	
-0.386902	
-0.387634	
-0.385864	
-0.386047	
-0.386963	
-0.386658	
-0.386963	
-0.387146	
-0.38678	
-0.387146	
-0.386841	
-0.388062	
-0.386963	
-0.38678	
-0.387085	
-0.387024	
-0.387024	
-0.386719	
-0.387085	
-0.387268	
-0.388184	
-0.387268	
-0.388489	
-0.386719	
-0.38739	
-0.385803	
-0.385864	
-0.387146	
-0.387146	
-0.387207	
-0.38739	
-0.387695	
-0.385498	
-0.387695	
-0.385742	
-0.385986	
-0.385498	
-0.386108	
-0.386841	
-0.386719	
-0.386536	
-0.386902	
-0.387024	
-0.386902	
-0.387634	
-0.38739	
-0.386475	
-0.387756	
-0.387268	
-0.387329	
-0.38739	
-0.38739	
-0.388733	
-0.387573	
-0.388672	
-0.388245	
-0.388	
-0.387695	
-0.388245	
-0.387512	
-0.38678	
-0.386658	
-0.385986	
-0.387268	
-0.385681	
-0.386719	
-0.385864	
-0.385986	
-0.386169	
-0.385986	
-0.38623	
-0.386414	
-0.385803	
-0.386719	
-0.386597	
-0.38623	
-0.387573	
-0.387085	
-0.387146	
-0.387146	
-0.386414	
-0.388062	
-0.388611	
-0.388123	
-0.388611	
-0.388672	
-0.388489	
-0.389404	
-0.389526	
-0.389709	
-0.390076	
-0.389954	
-0.390686	
-0.39093	
-0.391113	
-0.392578	
-0.391724	
-0.392029	
-0.392639	
-0.391846	
-0.392395	
-0.391785	
-0.39209	
-0.391846	
-0.392517	
-0.392273	
-0.392883	
-0.392395	
-0.392212	
-0.393066	
-0.392761	
-0.392761	
-0.3927	
-0.392883	
-0.393127	
-0.393677	
-0.393188	
-0.393127	
-0.39325	
-0.393433	
-0.393127	
-0.392761	
-0.393311	
-0.392273	
-0.393188	
-0.3927	
-0.392029	
-0.392639	
-0.392395	
-0.391907	
-0.393127	
-0.393066	
-0.393188	
-0.392822	
-0.392517	
-0.392944	
-0.393494	
-0.392273	
-0.39447	
-0.393311	
-0.393372	
-0.393921	
-0.393616	
-0.392944	
-0.393372	
-0.391602	
-0.391846	
-0.393127	
-0.392761	
-0.393066	
-0.392029	
-0.392761	
-0.392944	
-0.391907	
-0.392334	
-0.391541	
-0.391541	
-0.392151	
-0.391968	
-0.391357	
-0.391907	
-0.390625	
-0.390381	
-0.390625	
-0.389465	
-0.389282	
-0.388062	
-0.389221	
-0.389221	
-0.389221	
-0.388489	
-0.388367	
-0.387695	
-0.388489	
-0.389465	
-0.388977	
-0.389465	
-0.389709	
-0.390198	
-0.390137	
-0.390564	
-0.39093	
-0.39093	
-0.390381	
-0.391602	
-0.392639	
-0.391907	
-0.391541	
-0.392273	
-0.39209	
-0.392395	
-0.391785	
-0.392517	
-0.392334	
-0.392151	
-0.393372	
-0.392761	
-0.39209	
-0.391846	
-0.390991	
-0.391968	
-0.391968	
-0.39093	
-0.392212	
-0.391296	
-0.391113	
-0.391602	
-0.390747	
-0.390869	
-0.390015	
-0.391052	
-0.390869	
-0.39093	
-0.390259	
-0.391357	
-0.390503	
-0.391541	
-0.390381	
-0.390747	
-0.390442	
-0.389893	
-0.389954	
-0.390137	
-0.39032	
-0.390015	
-0.389587	
-0.388916	
-0.389099	
-0.388794	
-0.389221	
-0.388977	
-0.389038	
-0.389038	
-0.389648	
-0.389404	
-0.389771	
-0.389526	
-0.38916	
-0.390442	
-0.390259	
-0.390686	
-0.389832	
-0.389404	
-0.390808	
-0.390991	
-0.390808	
-0.392334	
-0.392029	
-0.390747	
-0.392151	
-0.391968	
-0.391602	
-0.391541	
-0.391541	
-0.391663	
-0.391479	
-0.391846	
-0.392456	
-0.391785	
-0.391724	
-0.392517	
-0.392029	
-0.391785	
-0.391113	
-0.391724	
-0.391479	
-0.391602	
-0.391235	
-0.391785	
-0.391724	
-0.391785	
-0.391602	
-0.391541	
-0.391235	
-0.391663	
-0.39032	
-0.390625	
-0.391113	
-0.390381	
-0.390808	
-0.390381	
-0.390869	
-0.391479	
-0.391663	
-0.391174	
-0.391174	
-0.391968	
-0.391479	
-0.391479	
-0.392395	
-0.392273	
-0.392151	
-0.393372	
-0.392517	
-0.392273	
-0.392639	
-0.392456	
-0.392822	
-0.392151	
-0.393616	
-0.39386	
-0.392517	
-0.392334	
-0.393494	
-0.392883	
-0.392334	
-0.392639	
-0.391968	
-0.392273	
-0.391968	
-0.391907	
-0.392883	
-0.392029	
-0.391663	
-0.391785	
-0.392212	
-0.392151	
-0.391968	
-0.392883	
-0.392456	
-0.392639	
-0.392761	
-0.392151	
-0.392029	
-0.392517	
-0.393188	
-0.392639	
-0.392883	
-0.392517	
-0.393433	
-0.392822	
-0.392944	
-0.393555	
-0.392883	
-0.392822	
-0.393005	
-0.393677	
-0.392334	
-0.392456	
-0.392273	
-0.392761	
-0.3927	
-0.391785	
-0.392822	
-0.392151	
-0.392029	
-0.392029	
-0.3927	
-0.39209	
-0.39209	
-0.39093	
-0.391479	
-0.391663	
-0.392273	
-0.392883	
-0.392395	
-0.391541	
-0.391663	
-0.392212	
-0.39209	
-0.391663	
-0.390869	
-0.391602	
-0.392395	
-0.39209	
-0.392578	
-0.392822	
-0.390869	
-0.392761	
-0.392578	
-0.392151	
-0.392456	
-0.392456	
-0.392761	
-0.392639	
-0.393311	
-0.392578	
-0.392639	
-0.392639	
-0.39447	
-0.392639	
-0.392151	
-0.392456	
-0.392212	
-0.39209	
-0.391418	
-0.393005	
-0.391357	
-0.391113	
-0.391968	
-0.393738	
-0.392883	
-0.393311	
-0.391296	
-0.3927	
-0.393005	
-0.393799	
-0.394043	
-0.393738	
-0.393127	
-0.393188	
-0.393494	
-0.393494	
-0.393433	
-0.391724	
-0.393372	
-0.393433	
-0.393738	
-0.393372	
-0.392883	
-0.391602	
-0.391846	
-0.392517	
-0.39209	
-0.391907	
-0.391479	
-0.391479	
-0.391052	
-0.391541	
-0.39093	
-0.390564	
-0.388733	
-0.39032	
-0.389648	
-0.389465	
-0.389648	
-0.388184	
-0.388184	
-0.38739	
-0.388611	
-0.388	
-0.387512	
-0.387512	
-0.389404	
-0.388	
-0.387329	
-0.38739	
-0.387756	
-0.387634	
-0.386414	
-0.387756	
-0.387085	
-0.386963	
-0.386963	
-0.387634	
-0.387146	
-0.386536	
-0.385498	
-0.387024	
-0.386963	
-0.388428	
-0.387939	
-0.386719	
-0.386414	
-0.386902	
-0.387146	
-0.386719	
-0.387573	
-0.385376	
-0.386963	
-0.387207	
-0.387756	
-0.388	
-0.386597	
-0.385925	
-0.386292	
-0.386597	
-0.386047	
-0.38678	
-0.386292	
-0.385864	
-0.385803	
-0.386719	
-0.386169	
-0.38623	
-0.385925	
-0.387451	
-0.385803	
-0.386047	
-0.386353	
-0.386475	
-0.386963	
-0.386475	
-0.38739	
-0.387268	
-0.386841	
-0.387146	
-0.387817	
-0.387634	
-0.387268	
-0.386719	
-0.388184	
-0.388306	
-0.38855	
-0.390076	
-0.389343	
-0.389526	
-0.389893	
-0.391174	
-0.390259	
-0.390625	
-0.390442	
-0.391296	
-0.390869	
-0.392151	
-0.39209	
-0.391113	
-0.390686	
-0.391113	
-0.390747	
-0.390198	
-0.389771	
-0.388367	
-0.389099	
-0.389099	
-0.388855	
-0.388794	
-0.388245	
-0.388123	
-0.38855	
-0.387634	
-0.387512	
-0.387268	
-0.386597	
-0.387756	
-0.387451	
-0.387878	
-0.387634	
-0.387512	
-0.387634	
-0.387939	
-0.38739	
-0.387512	
-0.387268	
-0.387878	
-0.388367	
-0.388672	
-0.389221	
-0.388428	
-0.388123	
-0.388062	
-0.388672	
-0.388794	
-0.388611	
-0.389221	
-0.388916	
-0.389221	
-0.389404	
-0.389771	
-0.388794	
-0.388611	
-0.390015	
-0.390381	
-0.389404	
-0.389282	
-0.390137	
-0.389893	
-0.389771	
-0.389832	
-0.391663	
-0.390442	
-0.390198	
-0.391174	
-0.391663	
-0.39093	
-0.390869	
-0.39093	
-0.390747	
-0.391174	
-0.389648	
-0.391357	
-0.389954	
-0.390198	
-0.389343	
-0.390686	
-0.389221	
-0.387878	
-0.387878	
-0.388367	
-0.38855	
-0.388306	
-0.388855	
-0.387878	
-0.388062	
-0.387512	
-0.387817	
-0.386902	
-0.387756	
-0.386414	
-0.388	
-0.389038	
-0.388245	
-0.387573	
-0.387512	
-0.387939	
-0.387451	
-0.387512	
-0.387634	
-0.388367	
-0.38739	
-0.388245	
-0.388367	
-0.388489	
-0.387817	
-0.386963	
-0.388367	
-0.388428	
-0.388062	
-0.388672	
-0.390076	
-0.389587	
-0.389832	
-0.389038	
-0.389954	
-0.388611	
-0.387756	
-0.389282	
-0.389099	
-0.388306	
-0.38739	
-0.388916	
-0.387695	
-0.387695	
-0.387146	
-0.388245	
-0.386963	
-0.387207	
-0.387329	
-0.387573	
-0.386536	
-0.385986	
-0.387878	
-0.387085	
-0.387878	
-0.386047	
-0.387024	
-0.387146	
-0.387024	
-0.386292	
-0.388062	
-0.387146	
-0.38739	
-0.38678	
-0.387634	
-0.38855	
-0.387695	
-0.387329	
-0.387451	
-0.388123	
-0.387512	
-0.387756	
-0.387329	
-0.387695	
-0.386353	
-0.388123	
-0.38855	
-0.388123	
-0.38739	
-0.387024	
-0.387268	
-0.386841	
-0.386719	
-0.386414	
-0.38678	
-0.387146	
-0.38739	
-0.387939	
-0.388367	
-0.38739	
-0.38678	
-0.388184	
-0.387756	
-0.387329	
-0.387268	
-0.388062	
-0.387573	
-0.387451	
-0.388184	
-0.388245	
-0.387695	
-0.386902	
-0.387695	
-0.389099	
-0.387634	
-0.387085	
-0.387878	
-0.388367	
-0.387756	
-0.387207	
-0.388306	
-0.388184	
-0.387329	
-0.388733	
-0.388245	
-0.387207	
-0.387207	
-0.387878	
-0.387512	
-0.388184	
-0.387268	
-0.387634	
-0.38739	
-0.387695	
-0.388	
-0.387268	
-0.386963	
-0.386597	
-0.38678	
-0.387939	
-0.388611	
-0.387512	
-0.387451	
-0.387817	
-0.388245	
-0.388184	
-0.387878	
-0.388	
-0.38678	
-0.388916	
-0.389282	
-0.389099	
-0.388123	
-0.388794	
-0.387024	
-0.387634	
-0.388611	
-0.387878	
-0.387817	
-0.38678	
-0.38739	
-0.386536	
-0.386963	
-0.386719	
-0.386292	
-0.386597	
-0.387268	
-0.387695	
-0.386658	
-0.386414	
-0.386963	
-0.38739	
-0.387451	
-0.387817	
-0.387695	
-0.387817	
-0.387756	
-0.388123	
-0.388977	
-0.388428	
-0.38855	
-0.38916	
-0.389343	
-0.390198	
-0.390381	
-0.389709	
-0.389465	
-0.390259	
-0.391724	
-0.391785	
-0.391174	
-0.391785	
-0.392395	
-0.392395	
-0.392761	
-0.392395	
-0.392761	
-0.391541	
-0.391602	
-0.393555	
-0.39325	
-0.392761	
-0.392212	
-0.392578	
-0.392883	
-0.393066	
-0.391907	
-0.393188	
-0.392822	
-0.393311	
-0.393921	
-0.394287	
-0.393616	
-0.392578	
-0.393372	
-0.394104	
-0.39386	
-0.3927	
-0.393005	
-0.39325	
-0.393799	
-0.393494	
-0.393005	
-0.392761	
-0.392212	
-0.391418	
-0.393799	
-0.394104	
-0.392578	
-0.393311	
-0.392761	
-0.393433	
-0.393738	
-0.393677	
-0.393677	
-0.393555	
-0.392944	
-0.394592	
-0.394653	
-0.393372	
-0.393066	
-0.392578	
-0.393677	
-0.393494	
-0.393188	
-0.392395	
-0.393188	
	
