E:\DOCUMENTS AND SETTINGS\JPOTAS\MEUS DOCUMENTOS\UFRJ\RSCI-BM 12 WK SERIES\070723-RSCI-BM-06\RSCI-BM-06-REMG\070723-RSCI-BM-REMG-0004.ACQ
0.025000 msec/sample
1 channel
Analog input
Volts
CH1	
2000	
-0.388733	
-0.389221	
-0.389587	
-0.389648	
-0.389893	
-0.39032	
-0.390503	
-0.390686	
-0.39093	
-0.39093	
-0.391174	
-0.390747	
-0.390503	
-0.390503	
-0.391113	
-0.391174	
-0.390564	
-0.39093	
-0.390869	
-0.390991	
-0.390808	
-0.391174	
-0.391235	
-0.391052	
-0.391296	
-0.390442	
-0.390564	
-0.390503	
-0.390259	
-0.390259	
-0.390564	
-0.390625	
-0.390625	
-0.390503	
-0.391052	
-0.390991	
-0.39093	
-0.391602	
-0.391235	
-0.391418	
-0.390747	
-0.390686	
-0.390808	
-0.390869	
-0.391357	
-0.391602	
-0.392151	
-0.391785	
-0.391846	
-0.391907	
-0.391968	
-0.391846	
-0.391418	
-0.391357	
-0.391113	
-0.390625	
-0.390686	
-0.390015	
-0.389099	
-0.388855	
-0.388916	
-0.388	
-0.387451	
-0.387146	
-0.387268	
-0.386963	
-0.386414	
-0.386719	
-0.386108	
-0.385925	
-0.385986	
-0.385925	
-0.385559	
-0.385498	
-0.38623	
-0.386169	
-0.38623	
-0.386658	
-0.386414	
-0.386841	
-0.387207	
-0.387024	
-0.387146	
-0.387268	
-0.387817	
-0.387512	
-0.388367	
-0.388489	
-0.38855	
-0.388916	
-0.38916	
-0.389038	
-0.389282	
-0.389709	
-0.389587	
-0.389709	
-0.390198	
-0.390381	
-0.390381	
-0.391174	
-0.391785	
-0.391724	
-0.391907	
-0.392212	
-0.3927	
-0.393005	
-0.392883	
-0.393005	
-0.392883	
-0.39325	
-0.393677	
-0.394043	
-0.393677	
-0.393738	
-0.393921	
-0.393799	
-0.393799	
-0.393921	
-0.393494	
-0.393555	
-0.393494	
-0.392517	
-0.39209	
-0.392029	
-0.39209	
-0.391785	
-0.391418	
-0.391296	
-0.391174	
-0.390564	
-0.390564	
-0.391113	
-0.390991	
-0.390747	
-0.390442	
-0.391174	
-0.391052	
-0.391052	
-0.390686	
-0.390686	
-0.390625	
-0.390076	
-0.389954	
-0.390503	
-0.390381	
-0.389954	
-0.389832	
-0.390198	
-0.390381	
-0.39032	
-0.390442	
-0.390503	
-0.390564	
-0.390137	
-0.390442	
-0.390625	
-0.390686	
-0.391052	
-0.390503	
-0.390381	
-0.391174	
-0.390747	
-0.390259	
-0.391235	
-0.391052	
-0.391113	
-0.39093	
-0.390991	
-0.390503	
-0.390564	
-0.391296	
-0.39093	
-0.390442	
-0.390442	
-0.39093	
-0.390198	
-0.391052	
-0.390686	
-0.390503	
-0.391296	
-0.390747	
-0.390686	
-0.39093	
-0.390808	
-0.39093	
-0.391174	
-0.390869	
-0.390076	
-0.389893	
-0.389832	
-0.389587	
-0.389099	
-0.388977	
-0.38916	
-0.38916	
-0.388794	
-0.38916	
-0.38092	
-0.37561	
-0.374695	
-0.374512	
-0.374756	
-0.374756	
-0.383606	
-0.388428	
-0.389893	
-0.389526	
-0.38916	
-0.389587	
-0.389587	
-0.389282	
-0.388855	
-0.389343	
-0.389465	
-0.389099	
-0.389282	
-0.389465	
-0.389282	
-0.389648	
-0.389893	
-0.389465	
-0.381531	
-0.377014	
-0.375916	
-0.375732	
-0.376526	
-0.376404	
-0.38501	
-0.390381	
-0.391846	
-0.391296	
-0.391296	
-0.391968	
-0.391968	
-0.391174	
-0.392395	
-0.392456	
-0.392822	
-0.393005	
-0.393433	
-0.393799	
-0.393982	
-0.394165	
-0.394104	
-0.394653	
-0.394836	
-0.395508	
-0.395569	
-0.396851	
-0.396851	
-0.397339	
-0.398315	
-0.398499	
-0.398132	
-0.398438	
-0.398682	
-0.398987	
-0.399231	
-0.398926	
-0.398987	
-0.39917	
-0.400269	
-0.400757	
-0.400452	
-0.400696	
-0.401123	
-0.400696	
-0.400452	
-0.401184	
-0.400879	
-0.401062	
-0.401062	
-0.400452	
-0.400513	
-0.39978	
-0.399475	
-0.399414	
-0.398987	
-0.39917	
-0.399536	
-0.399353	
-0.399353	
-0.399414	
-0.399841	
-0.399292	
-0.400146	
-0.400269	
-0.400757	
-0.400879	
-0.401306	
-0.401611	
-0.401917	
-0.402588	
-0.402344	
-0.403259	
-0.403687	
-0.403625	
-0.404358	
-0.405151	
-0.405212	
-0.405212	
-0.406189	
-0.406494	
-0.40625	
-0.40625	
-0.406738	
-0.407471	
-0.408142	
-0.407898	
-0.407654	
-0.407349	
-0.407471	
-0.407532	
-0.407471	
-0.406982	
-0.406189	
-0.405823	
-0.405518	
-0.404663	
-0.403564	
-0.402405	
-0.401306	
-0.400146	
-0.399109	
-0.397705	
-0.397156	
-0.396606	
-0.396973	
-0.395752	
-0.395752	
-0.396057	
-0.396545	
-0.396973	
-0.397034	
-0.397339	
-0.398132	
-0.399048	
-0.39978	
-0.400513	
-0.401062	
-0.402527	
-0.403687	
-0.404297	
-0.404968	
-0.406128	
-0.407654	
-0.409546	
-0.410217	
-0.411194	
-0.413025	
-0.413879	
-0.415039	
-0.416077	
-0.417175	
-0.418091	
-0.419678	
-0.420471	
-0.421814	
-0.423096	
-0.424072	
-0.425964	
-0.427246	
-0.428467	
-0.430542	
-0.431763	
-0.433411	
-0.43573	
-0.437378	
-0.438477	
-0.440735	
-0.442383	
-0.445068	
-0.446899	
-0.449707	
-0.451538	
-0.453552	
-0.455383	
-0.456787	
-0.45813	
-0.459534	
-0.460815	
-0.462097	
-0.463501	
-0.464722	
-0.464539	
-0.464905	
-0.464722	
-0.463867	
-0.462402	
-0.461304	
-0.460144	
-0.458313	
-0.456848	
-0.455078	
-0.453552	
-0.452515	
-0.451294	
-0.450195	
-0.448608	
-0.447937	
-0.447205	
-0.446167	
-0.44519	
-0.444641	
-0.442932	
-0.44043	
-0.43927	
-0.438232	
-0.436279	
-0.434448	
-0.433899	
-0.433167	
-0.432129	
-0.430725	
-0.429932	
-0.429138	
-0.428711	
-0.427856	
-0.427002	
-0.426331	
-0.425659	
-0.424744	
-0.423828	
-0.422913	
-0.422119	
-0.421387	
-0.420654	
-0.419739	
-0.418701	
-0.418152	
-0.41687	
-0.414795	
-0.413818	
-0.412354	
-0.410889	
-0.410278	
-0.40918	
-0.408264	
-0.407471	
-0.407043	
-0.406677	
-0.405396	
-0.404602	
-0.404602	
-0.403625	
-0.403137	
-0.403015	
-0.402161	
-0.401733	
-0.401489	
-0.401184	
-0.40155	
-0.401184	
-0.400513	
-0.400757	
-0.400818	
-0.400269	
-0.400085	
-0.39978	
-0.399597	
-0.399536	
-0.398499	
-0.398254	
-0.397888	
-0.397461	
-0.397217	
-0.3974	
-0.396729	
-0.39624	
-0.396851	
-0.39679	
-0.39679	
-0.396973	
-0.396912	
-0.397095	
-0.396973	
-0.397095	
-0.397278	
-0.397766	
-0.397522	
-0.396667	
-0.395996	
-0.396057	
-0.395813	
-0.395935	
-0.395935	
-0.395203	
-0.394592	
-0.394226	
-0.393982	
-0.393372	
-0.392029	
-0.391785	
-0.390808	
-0.390198	
-0.389099	
-0.388367	
-0.387634	
-0.385315	
-0.38446	
-0.383301	
-0.382935	
-0.382019	
-0.381348	
-0.3797	
-0.379395	
-0.378418	
-0.377136	
-0.37677	
-0.37616	
-0.374878	
-0.374084	
-0.373657	
-0.372437	
-0.371155	
-0.370972	
-0.370728	
-0.370361	
-0.369812	
-0.369568	
-0.36969	
-0.369263	
-0.369324	
-0.369385	
-0.36853	
-0.368469	
-0.36853	
-0.36792	
-0.367615	
-0.367798	
-0.367615	
-0.367493	
-0.367798	
-0.367798	
-0.367615	
-0.367981	
-0.368042	
-0.368408	
-0.368591	
-0.368713	
-0.369446	
-0.370178	
-0.370789	
-0.371277	
-0.371765	
-0.372925	
-0.373596	
-0.373596	
-0.374268	
-0.374268	
-0.375061	
-0.375183	
-0.375122	
-0.375305	
-0.375854	
-0.376404	
-0.376587	
-0.376831	
-0.377686	
-0.378052	
-0.378479	
-0.378479	
-0.378601	
-0.37915	
-0.379883	
-0.379761	
-0.379517	
-0.379517	
-0.379883	
-0.380188	
-0.379395	
-0.379639	
-0.379761	
-0.379822	
-0.380249	
-0.380432	
-0.380066	
-0.380249	
-0.380005	
-0.379456	
-0.380005	
-0.380371	
-0.38031	
-0.379089	
-0.379456	
-0.379272	
-0.378479	
-0.378723	
-0.379028	
-0.378723	
-0.378784	
-0.379089	
-0.378906	
-0.379028	
-0.379211	
-0.37915	
-0.379822	
-0.379944	
-0.379822	
-0.379456	
-0.380127	
-0.380676	
-0.380737	
-0.381592	
-0.381653	
-0.38269	
-0.383362	
-0.383789	
-0.384094	
-0.383911	
-0.384949	
-0.385315	
-0.385742	
-0.385681	
-0.386597	
-0.387024	
-0.386902	
-0.387573	
-0.387695	
-0.387573	
-0.387634	
-0.388	
-0.388	
-0.388062	
-0.388489	
-0.388428	
-0.388855	
-0.388733	
-0.389709	
-0.389954	
-0.39032	
-0.389709	
-0.389893	
-0.389954	
-0.390076	
-0.389832	
-0.389587	
-0.389282	
-0.389526	
-0.389587	
-0.389343	
-0.389282	
-0.388733	
-0.388611	
-0.388245	
-0.387939	
-0.387512	
-0.388	
-0.387756	
-0.387756	
-0.386536	
-0.385925	
-0.385864	
-0.385864	
-0.38562	
-0.385315	
-0.385376	
-0.385132	
-0.385193	
-0.384521	
-0.384766	
-0.385254	
-0.385132	
-0.384949	
-0.385254	
-0.384888	
-0.38501	
-0.384888	
-0.384888	
-0.385437	
-0.385559	
-0.386292	
-0.38623	
-0.386719	
-0.385925	
-0.385498	
-0.386047	
-0.385864	
-0.385925	
-0.385254	
-0.385925	
-0.385742	
-0.385681	
-0.38562	
-0.385803	
-0.385864	
-0.385864	
-0.386292	
-0.386169	
-0.386047	
-0.386108	
-0.385864	
-0.385864	
-0.386292	
-0.385986	
-0.38562	
-0.385742	
-0.385925	
-0.386353	
-0.386353	
-0.386414	
-0.386536	
-0.386536	
-0.387085	
-0.386963	
-0.386902	
-0.38739	
-0.387695	
-0.387329	
-0.387634	
-0.387695	
-0.387573	
-0.38855	
-0.388489	
-0.388489	
-0.388489	
-0.388306	
-0.388489	
-0.388428	
-0.388733	
-0.388062	
-0.387939	
-0.387207	
-0.387634	
-0.387085	
-0.386414	
-0.386353	
-0.385498	
-0.385315	
-0.385071	
-0.384705	
-0.38385	
-0.383911	
-0.384155	
-0.383789	
-0.383118	
-0.383179	
-0.38324	
-0.383606	
-0.383545	
-0.383362	
-0.383728	
-0.383667	
-0.384277	
-0.384033	
-0.38385	
-0.384277	
-0.384827	
-0.384705	
-0.384949	
-0.384644	
-0.384949	
-0.385803	
-0.38562	
-0.385315	
-0.385498	
-0.385986	
-0.386108	
-0.386475	
-0.386658	
-0.386292	
-0.386658	
-0.387268	
-0.387085	
-0.387817	
-0.387695	
-0.388977	
-0.389587	
-0.389709	
-0.389465	
-0.389893	
-0.390381	
-0.390747	
-0.39093	
-0.390686	
-0.391052	
-0.391052	
-0.391479	
-0.391663	
-0.391357	
-0.391602	
-0.391846	
-0.391785	
-0.392151	
-0.392151	
-0.391724	
-0.391418	
-0.391174	
-0.390625	
-0.390076	
-0.390015	
-0.390259	
-0.389587	
-0.389038	
-0.388672	
-0.389343	
-0.389343	
-0.388733	
-0.388672	
-0.388733	
-0.388977	
-0.388977	
-0.38855	
-0.388489	
-0.388428	
-0.388855	
-0.388672	
-0.389038	
-0.388489	
-0.38855	
-0.38855	
-0.388855	
-0.388	
-0.387878	
-0.388184	
-0.388733	
-0.388916	
-0.388855	
-0.388977	
-0.389282	
-0.38855	
-0.389099	
-0.388977	
-0.389099	
-0.38916	
-0.389404	
-0.389221	
-0.389465	
-0.389587	
-0.389465	
-0.38916	
-0.389465	
-0.389954	
-0.390381	
-0.39032	
-0.390259	
-0.390198	
-0.390259	
-0.389709	
-0.39032	
-0.390137	
-0.390198	
-0.390259	
-0.39093	
-0.390381	
-0.389893	
-0.389954	
-0.390869	
-0.39032	
-0.390259	
-0.391052	
-0.390686	
-0.390808	
-0.390564	
-0.389709	
-0.389648	
-0.389526	
-0.389587	
-0.388855	
-0.38916	
-0.389343	
-0.389221	
-0.388733	
-0.388916	
-0.388916	
-0.388245	
-0.388367	
-0.388916	
-0.388428	
-0.388123	
-0.388306	
-0.388794	
-0.38855	
-0.388733	
-0.388489	
-0.388794	
-0.388794	
-0.388367	
-0.388428	
-0.388733	
-0.388672	
-0.388733	
-0.388794	
-0.388855	
-0.389282	
-0.389404	
-0.389893	
-0.389526	
-0.389404	
-0.389771	
-0.389954	
-0.390259	
-0.389343	
-0.389587	
-0.39032	
-0.390137	
-0.390198	
-0.389648	
-0.390564	
-0.390747	
-0.391235	
-0.391602	
-0.391724	
-0.391602	
-0.392761	
-0.392883	
-0.392395	
-0.392944	
-0.393494	
-0.393677	
-0.393433	
-0.394592	
-0.394226	
-0.39447	
-0.395325	
-0.396362	
-0.396057	
-0.396606	
-0.397217	
-0.397156	
-0.396912	
-0.396606	
-0.396606	
-0.396851	
-0.396484	
-0.396606	
-0.396301	
-0.396545	
-0.396851	
-0.396667	
-0.396851	
-0.396484	
-0.39624	
-0.39624	
-0.395813	
-0.395569	
-0.395691	
-0.39563	
-0.394897	
-0.394897	
-0.393555	
-0.393738	
-0.393311	
-0.392883	
-0.392944	
-0.393005	
-0.392395	
-0.392334	
-0.392944	
-0.392456	
-0.392029	
-0.392212	
-0.392761	
-0.392151	
-0.392212	
-0.392151	
-0.391907	
-0.39209	
-0.392517	
-0.392151	
-0.391602	
-0.392395	
-0.392273	
-0.391663	
-0.391418	
-0.391418	
-0.391174	
-0.391296	
-0.391541	
-0.391235	
-0.391479	
-0.391602	
-0.391907	
-0.391968	
-0.391846	
-0.392456	
-0.392212	
-0.392578	
-0.392639	
-0.392639	
-0.393372	
-0.393188	
-0.393738	
-0.393982	
-0.394165	
-0.394287	
-0.39447	
-0.394348	
-0.395203	
-0.39502	
-0.39447	
-0.394348	
-0.394714	
-0.394531	
-0.394409	
-0.394653	
-0.394714	
-0.394409	
-0.394165	
-0.393921	
-0.394226	
-0.393738	
-0.3927	
-0.393738	
-0.393494	
-0.3927	
-0.391907	
-0.391724	
-0.391724	
-0.392212	
-0.391663	
-0.39209	
-0.392151	
-0.392334	
-0.391663	
-0.391479	
-0.392273	
-0.392517	
-0.392212	
-0.391602	
-0.391907	
-0.391541	
-0.391663	
-0.392456	
-0.391846	
-0.391846	
-0.392578	
-0.393005	
-0.392151	
-0.392334	
-0.392944	
-0.392456	
-0.392517	
-0.392151	
-0.392273	
-0.391846	
-0.392273	
-0.392456	
-0.391968	
-0.392151	
-0.392761	
-0.392395	
-0.391968	
-0.391785	
-0.391846	
-0.391479	
-0.391724	
-0.391357	
-0.391479	
-0.391541	
-0.391724	
-0.392334	
-0.391846	
-0.392151	
-0.392517	
-0.393066	
-0.393555	
-0.393921	
-0.394409	
-0.395203	
-0.395142	
-0.395813	
-0.39624	
-0.396545	
-0.396118	
-0.396667	
-0.397034	
-0.396851	
-0.397766	
-0.39801	
-0.398621	
-0.397827	
-0.397827	
-0.397522	
-0.397583	
-0.397156	
-0.397583	
-0.3974	
-0.397034	
-0.396973	
-0.396545	
-0.396301	
-0.396301	
-0.396729	
-0.395996	
-0.395752	
-0.395813	
-0.395264	
-0.395142	
-0.395142	
-0.394958	
-0.394775	
-0.394165	
-0.394165	
-0.394836	
-0.394348	
-0.393494	
-0.393494	
-0.393433	
-0.392944	
-0.392456	
-0.392212	
-0.391907	
-0.391296	
-0.391479	
-0.391541	
-0.391235	
-0.390625	
-0.390381	
-0.390198	
-0.390198	
-0.390564	
-0.390442	
-0.390869	
-0.390442	
-0.39032	
-0.390747	
-0.39093	
-0.391052	
-0.390869	
-0.39093	
-0.391174	
-0.391968	
-0.391418	
-0.391968	
-0.3927	
-0.392578	
-0.392517	
-0.393066	
-0.393005	
-0.392578	
-0.392639	
-0.393311	
-0.393494	
-0.393066	
-0.393005	
-0.393188	
-0.393799	
-0.393799	
-0.393433	
-0.393982	
-0.393799	
-0.393799	
-0.393677	
-0.394043	
-0.393921	
-0.393799	
-0.393677	
-0.394165	
-0.394043	
-0.394226	
-0.394409	
-0.393921	
-0.393677	
-0.393677	
-0.394043	
-0.393372	
-0.393921	
-0.394104	
-0.394531	
-0.393982	
-0.393738	
-0.393799	
-0.393799	
-0.394348	
-0.393616	
-0.393066	
-0.393066	
-0.393616	
-0.393494	
-0.393372	
-0.393799	
-0.393005	
-0.39386	
-0.393921	
-0.393738	
-0.394165	
-0.393433	
-0.393433	
-0.393738	
-0.393494	
-0.393799	
-0.393494	
-0.393738	
-0.393982	
-0.394165	
-0.394287	
-0.394287	
-0.394653	
-0.394653	
-0.395081	
-0.394958	
-0.395203	
-0.395447	
-0.395996	
-0.395264	
-0.395142	
-0.395752	
-0.395996	
-0.395569	
-0.395752	
-0.395935	
-0.396667	
-0.39624	
-0.39624	
-0.395874	
-0.395813	
-0.396118	
-0.395874	
-0.395996	
-0.396118	
-0.396362	
-0.395813	
-0.396118	
-0.396362	
-0.395752	
-0.395813	
-0.395569	
-0.396179	
-0.396118	
-0.39563	
-0.395081	
-0.396118	
-0.395691	
-0.395264	
-0.395508	
-0.395142	
-0.395325	
-0.395081	
-0.395386	
-0.394592	
-0.394592	
-0.394653	
-0.394409	
-0.394104	
-0.393433	
-0.393311	
-0.392944	
-0.39325	
-0.392883	
-0.392761	
-0.392334	
-0.391785	
-0.391846	
-0.392151	
-0.391602	
-0.391357	
-0.391113	
-0.39093	
-0.390076	
-0.390198	
-0.389954	
-0.388977	
-0.388916	
-0.389099	
-0.389038	
-0.388672	
-0.389832	
-0.389038	
-0.389526	
-0.389404	
-0.388855	
-0.389343	
-0.389587	
-0.389404	
-0.389832	
-0.389648	
-0.389648	
-0.390076	
-0.390137	
-0.390808	
-0.390991	
-0.391418	
-0.392212	
-0.391907	
-0.392578	
-0.392883	
-0.393188	
-0.393188	
-0.39386	
-0.39386	
-0.393921	
-0.393616	
-0.394165	
-0.39386	
-0.393799	
-0.394714	
-0.394043	
-0.393738	
-0.393616	
-0.393372	
-0.39386	
-0.394714	
-0.394592	
-0.394165	
-0.394531	
-0.394287	
-0.394592	
-0.394592	
-0.395081	
-0.394836	
-0.394653	
-0.394958	
-0.395386	
-0.395386	
-0.395142	
-0.395081	
-0.394897	
-0.394958	
-0.395081	
-0.394043	
-0.394592	
-0.394714	
-0.394409	
-0.393738	
-0.393677	
-0.393433	
-0.392456	
-0.392639	
-0.392639	
-0.392395	
-0.392212	
-0.392212	
-0.392334	
-0.392395	
-0.391785	
-0.391785	
-0.3927	
-0.393005	
-0.393188	
-0.393188	
-0.393555	
-0.393005	
-0.393005	
-0.393311	
-0.393616	
-0.394226	
-0.394531	
-0.394958	
-0.395081	
-0.395142	
-0.395447	
-0.395386	
-0.395813	
-0.395508	
-0.395325	
-0.394897	
-0.395142	
-0.394775	
-0.395203	
-0.395447	
-0.395142	
-0.395142	
-0.395508	
-0.395264	
-0.395325	
-0.394958	
-0.395142	
-0.395142	
-0.39502	
-0.395569	
-0.395569	
-0.395264	
-0.395081	
-0.394653	
-0.39502	
-0.394897	
-0.394897	
-0.395142	
-0.395203	
-0.395508	
-0.395203	
-0.395447	
-0.395752	
-0.395386	
-0.395386	
-0.395447	
-0.395996	
-0.396057	
-0.395752	
-0.396362	
-0.395996	
-0.396362	
-0.396423	
-0.395874	
-0.39624	
-0.395996	
-0.395752	
-0.395691	
-0.394592	
-0.394043	
-0.393799	
-0.393738	
-0.39325	
-0.392456	
-0.392456	
-0.392395	
-0.391846	
-0.391541	
-0.390991	
-0.39032	
-0.390381	
-0.390259	
-0.390259	
-0.389832	
-0.389893	
-0.390198	
-0.389893	
-0.390259	
-0.389954	
-0.390381	
-0.39093	
-0.390747	
-0.391052	
-0.391357	
-0.391235	
-0.391541	
-0.391479	
-0.391846	
-0.392151	
-0.392883	
-0.393005	
-0.393005	
-0.392822	
-0.393372	
-0.393494	
-0.393433	
-0.393799	
-0.394104	
-0.394592	
-0.394226	
-0.395142	
-0.395203	
-0.395264	
-0.396057	
-0.396362	
-0.396423	
-0.396729	
-0.397095	
-0.397034	
-0.397583	
-0.397339	
-0.397461	
-0.397644	
-0.39801	
-0.398315	
-0.39801	
-0.398315	
-0.398132	
-0.398071	
-0.397705	
-0.397827	
-0.397339	
-0.396912	
-0.396851	
-0.397156	
-0.39679	
-0.396423	
-0.395935	
-0.395752	
-0.395752	
-0.395691	
-0.395752	
-0.395142	
-0.39447	
-0.39502	
-0.394531	
-0.394775	
-0.394836	
-0.394775	
-0.394775	
-0.395447	
-0.39447	
-0.394592	
-0.393921	
-0.394348	
-0.394287	
-0.393799	
-0.394104	
-0.394043	
-0.394226	
-0.394287	
-0.394043	
-0.394104	
-0.393555	
-0.393982	
-0.393921	
-0.394287	
-0.394043	
-0.394287	
-0.394836	
-0.394409	
-0.39502	
-0.39447	
-0.394226	
-0.394653	
-0.394409	
-0.394836	
-0.395081	
-0.394897	
-0.394592	
-0.394775	
-0.394775	
-0.394409	
-0.394714	
-0.394714	
-0.394775	
-0.394226	
-0.394226	
-0.394165	
-0.39447	
-0.394287	
-0.394043	
-0.394775	
-0.394836	
-0.394287	
-0.39447	
-0.394897	
-0.39447	
-0.39386	
-0.394043	
-0.394409	
-0.393494	
-0.393311	
-0.393372	
-0.393066	
-0.393005	
-0.393005	
-0.392822	
-0.392578	
-0.393005	
-0.392517	
-0.392029	
-0.392151	
-0.391724	
-0.392212	
-0.392273	
-0.391968	
-0.391785	
-0.391968	
-0.392273	
-0.39209	
-0.391602	
-0.392029	
-0.392029	
-0.391785	
-0.391785	
-0.39209	
-0.392334	
-0.392883	
-0.392029	
-0.392212	
-0.392822	
-0.392639	
-0.392944	
-0.393005	
-0.393066	
-0.392639	
-0.392883	
-0.392883	
-0.392944	
-0.393066	
-0.393311	
-0.393066	
-0.393127	
-0.393494	
-0.393738	
-0.394043	
-0.394043	
-0.394653	
-0.394714	
-0.39502	
-0.395508	
-0.395691	
-0.395813	
-0.395935	
-0.395874	
-0.396667	
-0.396851	
-0.396851	
-0.397644	
-0.39801	
-0.398438	
-0.399048	
-0.398804	
-0.399048	
-0.399841	
-0.398987	
-0.398926	
-0.398621	
-0.39856	
-0.398743	
-0.39917	
-0.398071	
-0.398376	
-0.398376	
-0.398499	
-0.398621	
-0.39856	
-0.398254	
-0.397705	
-0.397766	
-0.398254	
-0.397461	
-0.397095	
-0.396301	
-0.395935	
-0.395386	
-0.395081	
-0.395386	
-0.394775	
-0.394531	
-0.394226	
-0.393921	
-0.393677	
-0.393921	
-0.393799	
-0.393555	
-0.393311	
-0.393311	
-0.393555	
-0.393921	
-0.393738	
-0.393555	
-0.393372	
-0.393188	
-0.393188	
-0.392883	
-0.393188	
-0.392883	
-0.392517	
-0.392517	
-0.391968	
-0.392395	
-0.392639	
-0.392578	
-0.393066	
-0.392273	
-0.3927	
-0.392822	
-0.392883	
-0.3927	
-0.393066	
-0.392883	
-0.393555	
-0.393494	
-0.393799	
-0.393982	
-0.393738	
-0.393982	
-0.394043	
-0.39447	
-0.394836	
-0.394531	
-0.395386	
-0.39563	
-0.395325	
-0.394592	
-0.395264	
-0.395203	
-0.395142	
-0.395142	
-0.395203	
-0.395142	
-0.395142	
-0.394653	
-0.394104	
-0.393799	
-0.393982	
-0.394104	
-0.393738	
-0.393066	
-0.392578	
-0.392273	
-0.392456	
-0.391785	
-0.391541	
-0.391541	
-0.391846	
-0.392273	
-0.392273	
-0.392151	
-0.392029	
-0.392212	
-0.391846	
-0.391541	
-0.391602	
-0.391541	
-0.391541	
-0.391968	
-0.392029	
-0.391846	
-0.391418	
-0.391846	
-0.391968	
-0.391846	
-0.39209	
-0.392029	
-0.391785	
-0.391602	
-0.391663	
-0.390991	
-0.391663	
-0.391602	
-0.391479	
-0.391357	
-0.391479	
-0.391052	
-0.391357	
-0.391174	
-0.391357	
-0.390991	
-0.391052	
-0.390503	
-0.390808	
-0.390808	
-0.390625	
-0.390503	
-0.390869	
-0.390991	
-0.391296	
-0.391357	
-0.392334	
-0.39209	
-0.392822	
-0.393372	
-0.393616	
-0.393738	
-0.394836	
-0.39502	
-0.39502	
-0.395142	
-0.395996	
-0.395508	
-0.395569	
-0.396057	
-0.396179	
-0.396606	
-0.396851	
-0.396301	
-0.396545	
-0.396179	
-0.395935	
-0.395691	
-0.395569	
-0.395569	
-0.395203	
-0.395142	
-0.395325	
-0.394836	
-0.394287	
-0.394531	
-0.39386	
-0.393433	
-0.393921	
-0.393433	
-0.393311	
-0.393127	
-0.392944	
-0.393005	
-0.392334	
-0.392029	
-0.392029	
-0.391785	
-0.391479	
-0.391113	
-0.39032	
-0.390442	
-0.390137	
-0.389465	
-0.389526	
-0.389343	
-0.389465	
-0.388855	
-0.388794	
-0.38855	
-0.387939	
-0.388062	
-0.388062	
-0.387939	
-0.387878	
-0.388062	
-0.388672	
-0.38855	
-0.388	
-0.388184	
-0.388184	
-0.38916	
-0.389099	
-0.389648	
-0.389832	
-0.389771	
-0.389893	
-0.390137	
-0.390564	
-0.390076	
-0.390747	
-0.39032	
-0.390747	
-0.390015	
-0.390686	
-0.39093	
-0.391174	
-0.390686	
-0.390808	
-0.390808	
-0.391174	
-0.390869	
-0.391113	
-0.39093	
-0.391296	
-0.391541	
-0.391846	
-0.391418	
-0.391541	
-0.391235	
-0.391235	
-0.391113	
-0.390869	
-0.390747	
-0.391357	
-0.391052	
-0.391357	
-0.391602	
-0.391907	
-0.391602	
-0.39093	
-0.390686	
-0.391113	
-0.390808	
-0.390625	
-0.391296	
-0.390503	
-0.390747	
-0.390015	
-0.390015	
-0.390259	
-0.390808	
-0.390747	
-0.390686	
-0.390747	
-0.390625	
-0.390564	
-0.39032	
-0.390747	
-0.390869	
-0.389954	
-0.39032	
-0.390808	
-0.390076	
-0.390198	
-0.390564	
-0.390442	
-0.39093	
-0.391357	
-0.391296	
-0.391968	
-0.391846	
-0.391846	
-0.391602	
-0.391968	
-0.391968	
-0.391846	
-0.392029	
-0.392395	
-0.392151	
-0.392883	
-0.393188	
-0.392822	
-0.392395	
-0.393005	
-0.392578	
-0.3927	
-0.392578	
-0.392456	
-0.392456	
-0.392944	
-0.392883	
-0.392822	
-0.3927	
-0.392761	
-0.392822	
-0.392517	
-0.392517	
-0.392151	
-0.392334	
-0.391907	
-0.391724	
-0.392029	
-0.392029	
-0.391602	
-0.391968	
-0.392212	
-0.391235	
-0.391541	
-0.391602	
-0.391296	
-0.390869	
-0.391113	
-0.390686	
-0.390198	
-0.39032	
-0.389832	
-0.389404	
-0.389343	
-0.388977	
-0.388855	
-0.388733	
-0.387756	
-0.388306	
-0.388062	
-0.388062	
-0.388	
-0.387573	
-0.387268	
-0.386658	
-0.386841	
-0.385925	
-0.385559	
-0.385742	
-0.385071	
-0.384949	
-0.385559	
-0.385498	
-0.385498	
-0.385925	
-0.385559	
-0.385254	
-0.385315	
-0.385376	
-0.384949	
-0.385742	
-0.38562	
-0.385315	
-0.385986	
-0.386047	
-0.386597	
-0.386719	
-0.387207	
-0.387329	
-0.387756	
-0.388428	
-0.389221	
-0.389282	
-0.389221	
-0.389465	
-0.38916	
-0.389465	
-0.389343	
-0.390076	
-0.389404	
-0.389771	
-0.39032	
-0.390076	
-0.389404	
-0.38916	
-0.390015	
-0.390198	
-0.389832	
-0.389832	
-0.39032	
-0.390137	
-0.390137	
-0.390442	
-0.390381	
-0.390869	
-0.390869	
-0.391052	
-0.391052	
-0.391174	
-0.390503	
-0.390869	
-0.391052	
-0.39093	
-0.390686	
-0.390259	
-0.390869	
-0.391052	
-0.390564	
-0.389832	
-0.389709	
-0.390015	
-0.389404	
-0.389221	
-0.388367	
-0.388306	
-0.389099	
-0.388367	
-0.388123	
-0.388123	
-0.387878	
-0.387695	
-0.387878	
-0.388184	
-0.388428	
-0.388916	
-0.388611	
-0.388611	
-0.388733	
-0.388977	
	
