E:\DOCUMENTS AND SETTINGS\JPOTAS\MEUS DOCUMENTOS\UFRJ\RSCI-BM 12 WK SERIES\070723-RSCI-BM-06\RSCI-BM-06-REMG\070723-RSCI-BM-REMG-0012.ACQ
0.025000 msec/sample
1 channel
Analog input
Volts
CH1	
2000	
-0.388672	
-0.387695	
-0.387939	
-0.388611	
-0.389038	
-0.388794	
-0.38855	
-0.38855	
-0.389465	
-0.388794	
-0.390991	
-0.388916	
-0.389038	
-0.388855	
-0.389771	
-0.390015	
-0.389465	
-0.389282	
-0.38916	
-0.389771	
-0.389648	
-0.391724	
-0.388855	
-0.389099	
-0.388489	
-0.389282	
-0.389404	
-0.388733	
-0.388672	
-0.388855	
-0.38916	
-0.388916	
-0.390137	
-0.389038	
-0.388611	
-0.386902	
-0.388855	
-0.389954	
-0.388611	
-0.38916	
-0.38916	
-0.390259	
-0.390076	
-0.391357	
-0.389771	
-0.390503	
-0.38916	
-0.390686	
-0.391235	
-0.390381	
-0.39093	
-0.389893	
-0.391174	
-0.391296	
-0.392883	
-0.391785	
-0.391052	
-0.390503	
-0.391724	
-0.392212	
-0.391418	
-0.391602	
-0.390991	
-0.392334	
-0.392334	
-0.3927	
-0.391663	
-0.391235	
-0.391174	
-0.39209	
-0.392578	
-0.392151	
-0.391602	
-0.390869	
-0.392334	
-0.392212	
-0.392334	
-0.391174	
-0.390686	
-0.390503	
-0.391296	
-0.391235	
-0.391541	
-0.391296	
-0.390564	
-0.391846	
-0.392456	
-0.391663	
-0.390686	
-0.390381	
-0.390137	
-0.390625	
-0.390442	
-0.390686	
-0.390503	
-0.390198	
-0.391113	
-0.391785	
-0.391052	
-0.389526	
-0.38916	
-0.38916	
-0.390564	
-0.389709	
-0.389648	
-0.389587	
-0.390137	
-0.390808	
-0.391479	
-0.390198	
-0.388916	
-0.388367	
-0.388245	
-0.389771	
-0.389343	
-0.388672	
-0.388489	
-0.389526	
-0.390076	
-0.389893	
-0.389099	
-0.387024	
-0.386414	
-0.386841	
-0.387695	
-0.387268	
-0.386719	
-0.386658	
-0.386658	
-0.387207	
-0.387817	
-0.386169	
-0.384949	
-0.384644	
-0.384766	
-0.386597	
-0.385681	
-0.385986	
-0.385681	
-0.385864	
-0.386169	
-0.387695	
-0.386108	
-0.385132	
-0.385376	
-0.385498	
-0.387085	
-0.386292	
-0.386597	
-0.386902	
-0.387634	
-0.387756	
-0.388489	
-0.387329	
-0.386719	
-0.387146	
-0.388062	
-0.38916	
-0.388367	
-0.388184	
-0.388062	
-0.388306	
-0.388489	
-0.389465	
-0.388794	
-0.389099	
-0.389526	
-0.390198	
-0.391479	
-0.390625	
-0.390747	
-0.39032	
-0.391418	
-0.392334	
-0.393799	
-0.391907	
-0.391541	
-0.392395	
-0.392822	
-0.393433	
-0.392761	
-0.392761	
-0.392334	
-0.393372	
-0.393311	
-0.394104	
-0.3927	
-0.392883	
-0.392212	
-0.392578	
-0.392334	
-0.392273	
-0.39209	
-0.39209	
-0.393311	
-0.393799	
-0.394043	
-0.388733	
-0.385742	
-0.383606	
-0.384827	
-0.384705	
-0.384521	
-0.388062	
-0.390625	
-0.391968	
-0.393127	
-0.392944	
-0.391418	
-0.391357	
-0.389709	
-0.391907	
-0.391724	
-0.391663	
-0.391357	
-0.390747	
-0.392334	
-0.392151	
-0.391541	
-0.390625	
-0.389587	
-0.389038	
-0.390625	
-0.390808	
-0.390198	
-0.390564	
-0.391113	
-0.391174	
-0.39093	
-0.391235	
-0.389709	
-0.389282	
-0.388977	
-0.390686	
-0.390564	
-0.390503	
-0.390503	
-0.391296	
-0.391174	
-0.391235	
-0.391418	
-0.389648	
-0.390808	
-0.389526	
-0.390747	
-0.390564	
-0.390625	
-0.390015	
-0.390625	
-0.390381	
-0.390564	
-0.390503	
-0.39032	
-0.390015	
-0.38916	
-0.390747	
-0.390381	
-0.39032	
-0.390259	
-0.392029	
-0.391602	
-0.392273	
-0.391907	
-0.391846	
-0.391113	
-0.391724	
-0.393311	
-0.391907	
-0.392273	
-0.392334	
-0.393616	
-0.393127	
-0.394287	
-0.392578	
-0.393005	
-0.393372	
-0.39386	
-0.394958	
-0.394287	
-0.39447	
-0.394348	
-0.395386	
-0.396912	
-0.396851	
-0.395264	
-0.396301	
-0.395508	
-0.397827	
-0.398499	
-0.398376	
-0.398743	
-0.399048	
-0.400696	
-0.4021	
-0.402222	
-0.402771	
-0.40271	
-0.404602	
-0.405701	
-0.405701	
-0.406799	
-0.407043	
-0.408264	
-0.409119	
-0.410706	
-0.40863	
-0.408752	
-0.408447	
-0.410583	
-0.411255	
-0.409729	
-0.409973	
-0.409973	
-0.409912	
-0.410156	
-0.409363	
-0.407837	
-0.402466	
-0.398132	
-0.397339	
-0.397461	
-0.395325	
-0.39447	
-0.396057	
-0.398865	
-0.400452	
-0.398132	
-0.397644	
-0.396179	
-0.396912	
-0.397278	
-0.397156	
-0.397705	
-0.39801	
-0.399841	
-0.400757	
-0.402283	
-0.401733	
-0.403687	
-0.403381	
-0.406433	
-0.408264	
-0.408203	
-0.409607	
-0.410461	
-0.411926	
-0.414001	
-0.414612	
-0.415405	
-0.41571	
-0.416443	
-0.41864	
-0.41925	
-0.419556	
-0.421082	
-0.423401	
-0.423096	
-0.424988	
-0.4245	
-0.426331	
-0.426086	
-0.429321	
-0.431702	
-0.432007	
-0.433533	
-0.434692	
-0.436768	
-0.439453	
-0.441833	
-0.442627	
-0.445801	
-0.447937	
-0.45105	
-0.453064	
-0.454346	
-0.45636	
-0.45874	
-0.460876	
-0.463562	
-0.4646	
-0.465515	
-0.466614	
-0.467834	
-0.469482	
-0.469604	
-0.469421	
-0.468567	
-0.469116	
-0.46759	
-0.467529	
-0.464111	
-0.463806	
-0.460571	
-0.459351	
-0.459412	
-0.456909	
-0.455261	
-0.453979	
-0.453186	
-0.451355	
-0.450317	
-0.447632	
-0.446655	
-0.444031	
-0.444153	
-0.442749	
-0.440796	
-0.439453	
-0.438232	
-0.43811	
-0.438354	
-0.43689	
-0.435547	
-0.434204	
-0.433716	
-0.434143	
-0.433105	
-0.433044	
-0.432495	
-0.432922	
-0.431946	
-0.432739	
-0.43158	
-0.430725	
-0.429749	
-0.429565	
-0.430298	
-0.429565	
-0.429138	
-0.428894	
-0.42926	
-0.428345	
-0.428284	
-0.426086	
-0.425049	
-0.424194	
-0.422852	
-0.423462	
-0.422058	
-0.421448	
-0.421143	
-0.420471	
-0.418457	
-0.418213	
-0.416931	
-0.414734	
-0.412415	
-0.411865	
-0.412842	
-0.410339	
-0.409363	
-0.408325	
-0.409424	
-0.408081	
-0.408569	
-0.407227	
-0.407043	
-0.405945	
-0.405579	
-0.407593	
-0.407227	
-0.40686	
-0.406372	
-0.40802	
-0.407532	
-0.407471	
-0.40625	
-0.406128	
-0.405212	
-0.405212	
-0.406738	
-0.406555	
-0.406433	
-0.405762	
-0.407654	
-0.407654	
-0.408081	
-0.406799	
-0.407593	
-0.406494	
-0.407837	
-0.408569	
-0.408752	
-0.409302	
-0.40979	
-0.41095	
-0.411194	
-0.412048	
-0.411926	
-0.413391	
-0.414429	
-0.415955	
-0.41626	
-0.417542	
-0.418518	
-0.420105	
-0.421204	
-0.423096	
-0.422913	
-0.423096	
-0.424561	
-0.426025	
-0.427429	
-0.427673	
-0.428772	
-0.428894	
-0.429565	
-0.42981	
-0.431458	
-0.429932	
-0.429321	
-0.427368	
-0.42688	
-0.426941	
-0.425415	
-0.424805	
-0.42334	
-0.423279	
-0.422729	
-0.422546	
-0.421143	
-0.4198	
-0.416809	
-0.416443	
-0.416504	
-0.41449	
-0.413086	
-0.411804	
-0.41156	
-0.41156	
-0.411499	
-0.409973	
-0.408691	
-0.406311	
-0.406921	
-0.407959	
-0.406799	
-0.406433	
-0.406433	
-0.40686	
-0.406433	
-0.406921	
-0.406677	
-0.405457	
-0.404053	
-0.403992	
-0.404724	
-0.403381	
-0.40271	
-0.402527	
-0.403137	
-0.401672	
-0.401245	
-0.401062	
-0.400146	
-0.398193	
-0.398376	
-0.398987	
-0.3974	
-0.396851	
-0.395447	
-0.39502	
-0.394226	
-0.393433	
-0.39093	
-0.391174	
-0.390503	
-0.388062	
-0.388733	
-0.387451	
-0.385742	
-0.383728	
-0.38385	
-0.384216	
-0.382141	
-0.381409	
-0.380127	
-0.379822	
-0.379456	
-0.37915	
-0.378723	
-0.378784	
-0.379028	
-0.378784	
-0.3797	
-0.378845	
-0.377197	
-0.374878	
-0.376343	
-0.376465	
-0.375671	
-0.375671	
-0.375732	
-0.377197	
-0.375916	
-0.375244	
-0.374756	
-0.374146	
-0.373474	
-0.372437	
-0.373779	
-0.372742	
-0.372559	
-0.371216	
-0.372131	
-0.37262	
-0.370728	
-0.369202	
-0.368713	
-0.369019	
-0.368103	
-0.367493	
-0.366699	
-0.365906	
-0.365601	
-0.365356	
-0.364502	
-0.36438	
-0.362915	
-0.362183	
-0.36261	
-0.36438	
-0.363586	
-0.363159	
-0.363281	
-0.364502	
-0.364807	
-0.36377	
-0.362732	
-0.362549	
-0.36438	
-0.364929	
-0.364685	
-0.365112	
-0.364807	
-0.365173	
-0.365601	
-0.36615	
-0.366577	
-0.365784	
-0.365112	
-0.366943	
-0.368774	
-0.368103	
-0.36908	
-0.370483	
-0.371704	
-0.372009	
-0.372314	
-0.372498	
-0.373657	
-0.374756	
-0.374695	
-0.375916	
-0.37616	
-0.376587	
-0.376404	
-0.37854	
-0.378662	
-0.37854	
-0.377563	
-0.377441	
-0.379272	
-0.379333	
-0.379578	
-0.380371	
-0.380005	
-0.381165	
-0.381042	
-0.380737	
-0.380615	
-0.380371	
-0.38147	
-0.380859	
-0.382507	
-0.382202	
-0.381775	
-0.380615	
-0.383301	
-0.38324	
-0.382568	
-0.380676	
-0.381775	
-0.382385	
-0.382324	
-0.382202	
-0.382446	
-0.382507	
-0.383057	
-0.383484	
-0.38324	
-0.383484	
-0.382019	
-0.382263	
-0.38147	
-0.383484	
-0.382385	
-0.383057	
-0.382507	
-0.383911	
-0.382874	
-0.383057	
-0.382874	
-0.38269	
-0.382507	
-0.38269	
-0.383606	
-0.383484	
-0.383667	
-0.382996	
-0.385437	
-0.385742	
-0.38501	
-0.384583	
-0.385132	
-0.385193	
-0.38562	
-0.385864	
-0.38562	
-0.385803	
-0.385925	
-0.387512	
-0.387634	
-0.387268	
-0.386108	
-0.386475	
-0.386658	
-0.387268	
-0.387207	
-0.38739	
-0.387207	
-0.388184	
-0.388977	
-0.388672	
-0.387939	
-0.386414	
-0.386963	
-0.387573	
-0.388855	
-0.387695	
-0.387573	
-0.387512	
-0.388306	
-0.388916	
-0.388306	
-0.387634	
-0.385986	
-0.388428	
-0.389099	
-0.390076	
-0.389221	
-0.389282	
-0.389099	
-0.390381	
-0.390259	
-0.39032	
-0.389526	
-0.389587	
-0.388855	
-0.389526	
-0.389832	
-0.388977	
-0.38916	
-0.388184	
-0.390503	
-0.389893	
-0.388611	
-0.387695	
-0.388184	
-0.38855	
-0.388428	
-0.388062	
-0.388306	
-0.388306	
-0.387817	
-0.389893	
-0.389343	
-0.388123	
-0.387024	
-0.386658	
-0.387085	
-0.387756	
-0.387573	
-0.387085	
-0.38739	
-0.386353	
-0.387634	
-0.388367	
-0.385803	
-0.384705	
-0.384827	
-0.385681	
-0.385437	
-0.384827	
-0.384583	
-0.384399	
-0.385864	
-0.384521	
-0.386108	
-0.383545	
-0.382996	
-0.382751	
-0.384338	
-0.38446	
-0.383728	
-0.384277	
-0.384766	
-0.385742	
-0.385254	
-0.385742	
-0.384338	
-0.385254	
-0.383545	
-0.385742	
-0.386414	
-0.386169	
-0.385925	
-0.386292	
-0.387939	
-0.387207	
-0.387451	
-0.386047	
-0.387329	
-0.385681	
-0.388306	
-0.388428	
-0.388184	
-0.388306	
-0.387207	
-0.389587	
-0.38916	
-0.389282	
-0.38916	
-0.389709	
-0.389832	
-0.39093	
-0.390625	
-0.39093	
-0.391052	
-0.39209	
-0.392456	
-0.392029	
-0.391479	
-0.390625	
-0.391052	
-0.391785	
-0.392822	
-0.392639	
-0.392456	
-0.392334	
-0.393555	
-0.392639	
-0.393127	
-0.391724	
-0.391907	
-0.391418	
-0.392395	
-0.392212	
-0.391541	
-0.391235	
-0.390625	
-0.392639	
-0.391418	
-0.392761	
-0.390442	
-0.391113	
-0.389771	
-0.390625	
-0.390564	
-0.390808	
-0.390747	
-0.390015	
-0.391235	
-0.390015	
-0.390503	
-0.388367	
-0.389587	
-0.389038	
-0.390015	
-0.389893	
-0.390015	
-0.389404	
-0.389587	
-0.390076	
-0.390259	
-0.389893	
-0.387817	
-0.388733	
-0.388428	
-0.389893	
-0.389221	
-0.389282	
-0.388977	
-0.389709	
-0.388977	
-0.389771	
-0.389221	
-0.387878	
-0.387512	
-0.387817	
-0.389404	
-0.388123	
-0.38855	
-0.388428	
-0.388977	
-0.388245	
-0.388794	
-0.388611	
-0.388611	
-0.388184	
-0.387817	
-0.389587	
-0.388123	
-0.387695	
-0.386536	
-0.38855	
-0.387512	
-0.387817	
-0.386658	
-0.386963	
-0.386292	
-0.385376	
-0.386169	
-0.385681	
-0.385132	
-0.384705	
-0.387085	
-0.385376	
-0.386108	
-0.384521	
-0.384888	
-0.383972	
-0.384094	
-0.384277	
-0.384216	
-0.384155	
-0.383362	
-0.385071	
-0.383423	
-0.384644	
-0.381836	
-0.383728	
-0.383179	
-0.38385	
-0.383667	
-0.383667	
-0.383667	
-0.383911	
-0.38501	
-0.384521	
-0.386414	
-0.382629	
-0.384583	
-0.384094	
-0.385315	
-0.38501	
-0.385254	
-0.385132	
-0.38623	
-0.387085	
-0.387451	
-0.38855	
-0.386169	
-0.387817	
-0.387085	
-0.389221	
-0.38916	
-0.389526	
-0.389526	
-0.390015	
-0.390076	
-0.390747	
-0.390808	
-0.389038	
-0.390259	
-0.388489	
-0.391296	
-0.390442	
-0.390259	
-0.390259	
-0.39093	
-0.389526	
-0.389771	
-0.38916	
-0.388977	
-0.389099	
-0.388245	
-0.390259	
-0.389526	
-0.389343	
-0.388489	
-0.390747	
-0.389587	
-0.389465	
-0.388184	
-0.38855	
-0.388367	
-0.388489	
-0.389404	
-0.388977	
-0.388733	
-0.387939	
-0.389771	
-0.388428	
-0.38916	
-0.387451	
-0.387817	
-0.387878	
-0.388184	
-0.388855	
-0.38855	
-0.388245	
-0.387512	
-0.389099	
-0.388	
-0.389954	
-0.387878	
-0.387817	
-0.388062	
-0.388489	
-0.38855	
-0.388	
-0.388733	
-0.387268	
-0.389343	
-0.38855	
-0.389954	
-0.387451	
-0.388672	
-0.388184	
-0.388733	
-0.388794	
-0.388	
-0.388062	
-0.388062	
-0.38916	
-0.38916	
-0.390259	
-0.387329	
-0.388245	
-0.387085	
-0.388184	
-0.387329	
-0.387024	
-0.386902	
-0.387146	
-0.387817	
-0.386841	
-0.38739	
-0.385742	
-0.385803	
-0.384766	
-0.385925	
-0.385559	
-0.385498	
-0.385742	
-0.385742	
-0.386292	
-0.38562	
-0.385803	
-0.384766	
-0.384888	
-0.384094	
-0.385315	
-0.385071	
-0.384888	
-0.384338	
-0.385132	
-0.386047	
-0.385254	
-0.385193	
-0.384949	
-0.384827	
-0.38446	
-0.385925	
-0.385559	
-0.385803	
-0.385742	
-0.386414	
-0.38678	
-0.386963	
-0.386475	
-0.385315	
-0.385986	
-0.385315	
-0.387085	
-0.386047	
-0.385742	
-0.385864	
-0.386841	
-0.386353	
-0.386902	
-0.386536	
-0.385376	
-0.385925	
-0.38562	
-0.387146	
-0.387146	
-0.387207	
-0.386108	
-0.387634	
-0.387573	
-0.388367	
-0.386719	
-0.385925	
-0.386353	
-0.386353	
-0.38739	
-0.387573	
-0.386841	
-0.386475	
-0.388794	
-0.387268	
-0.387939	
-0.387329	
-0.387207	
-0.386353	
-0.387451	
-0.387939	
-0.388	
-0.388123	
-0.388672	
-0.390259	
-0.389282	
-0.389771	
-0.38855	
-0.389038	
-0.388062	
-0.389954	
-0.389526	
-0.389465	
-0.390015	
-0.39032	
-0.39093	
-0.390442	
-0.391052	
-0.389526	
-0.389893	
-0.389954	
-0.391052	
-0.389893	
-0.389648	
-0.389465	
-0.390442	
-0.391052	
-0.390198	
-0.390198	
-0.38855	
-0.389099	
-0.388733	
-0.389221	
-0.389038	
-0.388916	
-0.387573	
-0.389526	
-0.389404	
-0.388245	
-0.388733	
-0.386536	
-0.38739	
-0.387573	
-0.387817	
-0.387573	
-0.387451	
-0.386658	
-0.386902	
-0.386963	
-0.386963	
-0.385803	
-0.383911	
-0.384583	
-0.384155	
-0.38446	
-0.384277	
-0.384033	
-0.383484	
-0.38385	
-0.384094	
-0.384827	
-0.382935	
-0.382446	
-0.382507	
-0.382874	
-0.383484	
-0.383179	
-0.38269	
-0.383118	
-0.383667	
-0.383972	
-0.384827	
-0.383179	
-0.382629	
-0.381653	
-0.383789	
-0.383118	
-0.382629	
-0.382507	
-0.382935	
-0.38385	
-0.383301	
-0.383728	
-0.382935	
-0.382996	
-0.382935	
-0.384644	
-0.383667	
-0.384094	
-0.384216	
-0.383545	
-0.384094	
-0.385132	
-0.384705	
-0.383606	
-0.383667	
-0.383911	
-0.385498	
-0.384521	
-0.385071	
-0.384827	
-0.385071	
-0.38623	
-0.386414	
-0.385925	
-0.385437	
-0.385132	
-0.385681	
-0.386536	
-0.385498	
-0.385864	
-0.385864	
-0.386353	
-0.386902	
-0.386719	
-0.386536	
-0.385559	
-0.38446	
-0.385254	
-0.386414	
-0.384827	
-0.385132	
-0.384827	
-0.386047	
-0.386841	
-0.387512	
-0.386902	
-0.385376	
-0.384827	
-0.38623	
-0.38739	
-0.386475	
-0.387146	
-0.386719	
-0.388184	
-0.389526	
-0.389404	
-0.388794	
-0.387878	
-0.386658	
-0.387512	
-0.388611	
-0.389038	
-0.389221	
-0.388245	
-0.389526	
-0.390808	
-0.390259	
-0.390015	
-0.389282	
-0.389282	
-0.388977	
-0.390015	
-0.390564	
-0.390137	
-0.390442	
-0.389893	
-0.391418	
-0.391357	
-0.390137	
-0.389404	
-0.38916	
-0.388611	
-0.38916	
-0.38916	
-0.388916	
-0.389099	
-0.388794	
-0.389893	
-0.389832	
-0.388489	
-0.387817	
-0.387207	
-0.388733	
-0.387634	
-0.387329	
-0.386719	
-0.386719	
-0.386658	
-0.387024	
-0.386047	
-0.385315	
-0.384094	
-0.384277	
-0.385071	
-0.384399	
-0.384705	
-0.38324	
-0.383789	
-0.384155	
-0.385742	
-0.384155	
-0.38385	
-0.382751	
-0.38446	
-0.384399	
-0.384094	
-0.384216	
-0.384827	
-0.384399	
-0.384705	
-0.386047	
-0.385254	
-0.384277	
-0.382324	
-0.384277	
-0.384521	
-0.385132	
-0.384521	
-0.384583	
-0.384827	
-0.385559	
-0.386536	
-0.385742	
-0.385254	
-0.383423	
-0.386475	
-0.385559	
-0.385803	
-0.38501	
-0.385132	
-0.385864	
-0.386108	
-0.386169	
-0.386658	
-0.386108	
-0.38562	
-0.385681	
-0.385986	
-0.386536	
-0.38562	
-0.386353	
-0.386719	
-0.387146	
-0.386963	
-0.386902	
-0.385742	
-0.386169	
-0.385315	
-0.386047	
-0.386169	
-0.386658	
-0.385864	
-0.386047	
-0.388245	
-0.387146	
-0.385681	
-0.385315	
-0.385376	
-0.385132	
-0.385925	
-0.385559	
-0.386047	
-0.386047	
-0.386536	
-0.388123	
-0.387085	
-0.38678	
-0.385498	
-0.38678	
-0.387207	
-0.387634	
-0.388184	
-0.388062	
-0.388672	
-0.388123	
-0.388794	
-0.389893	
-0.388306	
-0.387756	
-0.388489	
-0.388916	
-0.388733	
-0.388428	
-0.388916	
-0.388794	
-0.389587	
-0.390198	
-0.390564	
-0.38916	
-0.388306	
-0.388855	
-0.389587	
-0.389648	
-0.388916	
-0.389587	
-0.389221	
-0.390137	
-0.389526	
-0.390015	
-0.388245	
-0.388	
-0.387573	
-0.388733	
-0.388733	
-0.387695	
-0.388977	
-0.389526	
-0.389648	
-0.389038	
-0.389038	
-0.388367	
-0.388733	
-0.386841	
-0.388428	
-0.388245	
-0.387024	
-0.388672	
-0.388062	
-0.388916	
-0.388245	
-0.388062	
-0.387634	
-0.387939	
-0.386658	
-0.387939	
-0.387573	
-0.386841	
-0.388062	
-0.387146	
-0.388489	
-0.388489	
-0.387573	
-0.387024	
-0.387329	
-0.38623	
-0.387878	
-0.38739	
-0.386597	
-0.386719	
-0.387146	
-0.388062	
-0.386719	
-0.386597	
-0.385986	
-0.386108	
-0.385193	
-0.386047	
-0.385559	
-0.385132	
-0.385193	
-0.385681	
-0.386292	
-0.385071	
-0.384399	
-0.382874	
-0.384033	
-0.383667	
-0.38385	
-0.383423	
-0.383789	
-0.384033	
-0.383972	
-0.385376	
-0.384644	
-0.384033	
-0.382202	
-0.383667	
-0.38385	
-0.384094	
-0.383972	
-0.384155	
-0.384216	
-0.385437	
-0.385803	
-0.384521	
-0.384705	
-0.384949	
-0.385803	
-0.385254	
-0.385437	
-0.385315	
-0.385925	
-0.386292	
-0.386292	
-0.386292	
-0.386719	
-0.386353	
-0.386841	
-0.387207	
-0.387756	
-0.387207	
-0.387085	
-0.388489	
-0.388733	
-0.389893	
-0.389893	
-0.390991	
-0.38916	
-0.389832	
-0.389404	
-0.390137	
-0.39032	
-0.390747	
-0.390869	
-0.390686	
-0.393005	
-0.392273	
-0.392151	
-0.390381	
-0.390625	
-0.390747	
-0.390991	
-0.390991	
-0.391235	
-0.390747	
-0.390686	
-0.392456	
-0.391174	
-0.391479	
-0.389099	
-0.390503	
-0.390869	
-0.390991	
-0.390198	
-0.390381	
-0.390747	
-0.390503	
-0.39093	
-0.391113	
-0.391357	
-0.387695	
-0.390076	
-0.389709	
-0.389832	
-0.389099	
-0.389648	
-0.389832	
-0.39032	
-0.390381	
-0.390015	
-0.389954	
-0.388916	
-0.389099	
-0.388245	
-0.388794	
-0.387634	
-0.388916	
-0.388733	
-0.390564	
-0.389282	
-0.388062	
-0.388916	
-0.389404	
-0.388367	
-0.388062	
-0.388489	
-0.387634	
-0.388672	
-0.388977	
-0.390381	
-0.389282	
-0.389221	
-0.38855	
-0.388611	
-0.388611	
-0.387573	
-0.388977	
-0.388123	
-0.389465	
-0.389221	
-0.389099	
-0.388733	
-0.38855	
-0.387268	
-0.387024	
-0.387573	
-0.386719	
-0.387085	
-0.386414	
-0.387268	
-0.386536	
-0.386841	
-0.387085	
-0.385559	
-0.385193	
-0.385681	
-0.385559	
-0.385742	
-0.385498	
-0.385376	
-0.385071	
-0.385742	
-0.385681	
-0.385376	
-0.384827	
-0.383484	
-0.384644	
-0.38446	
-0.384399	
-0.384277	
-0.38501	
-0.385315	
-0.386047	
-0.385193	
-0.385376	
-0.385193	
-0.384827	
-0.384888	
-0.38623	
-0.386353	
-0.386108	
-0.386597	
-0.386719	
-0.386597	
-0.387268	
-0.386963	
-0.388	
-0.387878	
-0.388611	
-0.387939	
-0.389099	
-0.389099	
-0.389465	
-0.390137	
-0.390808	
-0.391113	
-0.390442	
-0.391174	
-0.390564	
-0.392029	
-0.390991	
-0.391785	
-0.391357	
-0.391418	
-0.392334	
-0.392395	
-0.39209	
-0.391541	
-0.391541	
-0.391113	
-0.391846	
-0.389893	
-0.390869	
-0.391235	
-0.391174	
-0.39209	
-0.39209	
-0.392334	
-0.391174	
-0.39093	
-0.390686	
-0.391479	
-0.390015	
-0.390625	
-0.39032	
-0.390259	
-0.390747	
-0.391357	
-0.391052	
-0.389526	
-0.389343	
-0.38916	
-0.390686	
-0.390076	
-0.390259	
-0.389282	
-0.389954	
-0.390442	
-0.390259	
-0.389832	
-0.388977	
-0.388855	
-0.389343	
-0.39032	
-0.390503	
-0.390442	
-0.389526	
-0.390686	
-0.390381	
-0.390259	
-0.389954	
-0.389648	
-0.388733	
-0.390381	
-0.390503	
-0.390442	
-0.390503	
-0.389832	
-0.390503	
-0.390869	
-0.391663	
-0.390808	
-0.390747	
-0.390015	
-0.391113	
-0.390503	
-0.390442	
-0.390442	
-0.389282	
-0.390198	
-0.390137	
-0.389832	
-0.388916	
-0.389771	
-0.387695	
-0.389038	
-0.388367	
-0.388611	
-0.388	
-0.387695	
-0.388245	
-0.388733	
-0.387939	
-0.387146	
-0.388306	
-0.38739	
-0.387207	
-0.387085	
-0.387695	
-0.38678	
-0.386902	
-0.388428	
-0.388245	
-0.387329	
-0.387024	
-0.387695	
-0.387085	
-0.387512	
-0.386841	
-0.387695	
-0.387329	
-0.387695	
-0.38855	
-0.389221	
-0.388	
-0.387878	
-0.387695	
-0.388245	
-0.388794	
-0.387878	
-0.38855	
-0.387939	
-0.388184	
-0.389038	
-0.390198	
-0.388123	
-0.387024	
-0.387817	
-0.388672	
-0.38916	
-0.387512	
-0.388916	
-0.388855	
-0.389282	
-0.389709	
-0.39032	
-0.389587	
-0.389832	
-0.388428	
-0.390015	
-0.390808	
-0.389221	
-0.389771	
-0.389709	
-0.390381	
-0.389893	
-0.390625	
-0.389893	
-0.390076	
-0.389954	
-0.390076	
-0.390625	
-0.390564	
-0.391174	
-0.390076	
-0.391174	
-0.391235	
-0.391663	
-0.39093	
-0.391296	
-0.391235	
-0.392029	
-0.392944	
-0.393127	
-0.392334	
-0.392212	
-0.393494	
-0.393555	
-0.393372	
-0.392212	
-0.394043	
-0.393066	
-0.392822	
-0.394226	
-0.393433	
-0.393005	
-0.392883	
-0.394531	
-0.394043	
-0.393677	
-0.392395	
-0.393311	
-0.392029	
-0.393311	
-0.392944	
-0.393311	
-0.392883	
-0.391663	
-0.392273	
-0.3927	
-0.3927	
-0.391235	
-0.390869	
-0.390442	
-0.391541	
-0.39032	
-0.391113	
-0.390747	
-0.390503	
-0.391174	
-0.391479	
-0.39093	
-0.39032	
-0.390015	
-0.389038	
-0.389587	
-0.38855	
-0.38855	
-0.388428	
-0.388794	
-0.388733	
-0.387634	
-0.387268	
-0.387573	
-0.387024	
-0.386841	
-0.387512	
-0.386841	
-0.387268	
-0.387146	
-0.387512	
-0.387634	
-0.386597	
-0.387085	
-0.387451	
-0.386414	
-0.387146	
-0.387695	
-0.387573	
-0.386963	
-0.386536	
-0.387634	
-0.388	
-0.387756	
-0.386597	
-0.387695	
-0.387024	
-0.386414	
-0.387451	
-0.387329	
-0.387451	
-0.387085	
-0.388062	
-0.388611	
-0.388306	
-0.388123	
-0.388428	
-0.387512	
-0.387573	
-0.387817	
-0.388062	
-0.388306	
-0.388367	
-0.388916	
-0.389099	
-0.389465	
-0.38916	
-0.388367	
-0.388	
-0.389648	
-0.388916	
-0.389465	
-0.389465	
-0.388733	
-0.389832	
-0.390137	
-0.389893	
-0.389893	
-0.388916	
-0.388672	
-0.389832	
-0.389465	
-0.389648	
-0.389526	
-0.388	
-0.390564	
-0.389526	
-0.388611	
-0.388977	
-0.389221	
-0.38916	
-0.389954	
-0.390137	
-0.389587	
-0.389709	
-0.389709	
-0.392029	
-0.390808	
-0.391235	
-0.390991	
-0.390991	
-0.391174	
-0.391479	
-0.391846	
-0.391785	
-0.391846	
-0.392151	
-0.393372	
-0.392944	
-0.393311	
-0.392151	
-0.392639	
-0.393311	
-0.393372	
-0.393127	
-0.393555	
-0.393555	
-0.394226	
-0.394775	
-0.394531	
-0.393921	
-0.39325	
-0.393494	
-0.393982	
-0.393921	
-0.393982	
-0.393555	
-0.392761	
-0.393311	
-0.393677	
-0.393372	
-0.392273	
-0.392578	
-0.392456	
-0.392517	
-0.392456	
-0.392029	
-0.392029	
-0.392029	
-0.39209	
-0.391418	
-0.391479	
-0.390747	
-0.389465	
-0.389648	
-0.388977	
-0.388916	
-0.388916	
-0.388733	
-0.388123	
-0.38916	
-0.388306	
-0.388733	
-0.387634	
-0.387085	
-0.386841	
-0.387573	
-0.387085	
-0.387207	
-0.387329	
-0.386414	
-0.388367	
-0.387939	
-0.388367	
-0.387878	
-0.38739	
-0.386475	
-0.388245	
-0.386414	
-0.387573	
-0.387634	
-0.387878	
-0.389038	
-0.388	
-0.388428	
-0.38739	
-0.388	
-0.387451	
-0.388916	
-0.388184	
-0.388733	
	
