E:\DOCUMENTS AND SETTINGS\JPOTAS\MEUS DOCUMENTOS\UFRJ\RSCI-BM 12 WK SERIES\070723-RSCI-BM-06\RSCI-BM-06-REMG\070723-RSCI-BM-REMG-0003.ACQ
0.025000 msec/sample
1 channel
Analog input
Volts
CH1	
2000	
-0.391663	
-0.391296	
-0.391235	
-0.391418	
-0.391479	
-0.391235	
-0.391296	
-0.391602	
-0.391846	
-0.391907	
-0.391663	
-0.391174	
-0.390869	
-0.390869	
-0.391113	
-0.39093	
-0.390747	
-0.391113	
-0.390991	
-0.391479	
-0.391418	
-0.391113	
-0.39093	
-0.390747	
-0.391296	
-0.390747	
-0.391357	
-0.391418	
-0.391052	
-0.391602	
-0.391418	
-0.391296	
-0.391846	
-0.391785	
-0.390991	
-0.391052	
-0.392212	
-0.391907	
-0.391663	
-0.392029	
-0.392517	
-0.392334	
-0.3927	
-0.392944	
-0.3927	
-0.392944	
-0.393127	
-0.393677	
-0.39325	
-0.39325	
-0.39325	
-0.393372	
-0.393311	
-0.3927	
-0.393188	
-0.393066	
-0.39325	
-0.393066	
-0.393005	
-0.393005	
-0.392822	
-0.393005	
-0.393188	
-0.393616	
-0.393372	
-0.393555	
-0.393494	
-0.393738	
-0.393799	
-0.393982	
-0.394043	
-0.393982	
-0.394226	
-0.394104	
-0.394226	
-0.394836	
-0.395386	
-0.394592	
-0.395264	
-0.395386	
-0.395264	
-0.395508	
-0.395142	
-0.395203	
-0.395203	
-0.394592	
-0.393799	
-0.393372	
-0.393066	
-0.393188	
-0.392822	
-0.392578	
-0.392029	
-0.392151	
-0.391724	
-0.391541	
-0.391235	
-0.390564	
-0.391174	
-0.391174	
-0.390747	
-0.391479	
-0.390991	
-0.390991	
-0.391479	
-0.391296	
-0.391357	
-0.391785	
-0.391907	
-0.392334	
-0.39209	
-0.39209	
-0.3927	
-0.3927	
-0.392334	
-0.392334	
-0.392517	
-0.392822	
-0.393616	
-0.393677	
-0.393005	
-0.393372	
-0.393982	
-0.39386	
-0.394287	
-0.393555	
-0.394287	
-0.394287	
-0.39502	
-0.394592	
-0.394287	
-0.394653	
-0.394653	
-0.395264	
-0.395203	
-0.394897	
-0.394836	
-0.394958	
-0.395325	
-0.395386	
-0.395935	
-0.395569	
-0.395813	
-0.395813	
-0.396179	
-0.396057	
-0.394897	
-0.395447	
-0.395508	
-0.395691	
-0.395691	
-0.395203	
-0.395203	
-0.395264	
-0.39447	
-0.393677	
-0.394287	
-0.394165	
-0.394348	
-0.394714	
-0.393982	
-0.393982	
-0.394043	
-0.394348	
-0.394104	
-0.393799	
-0.393921	
-0.394653	
-0.394348	
-0.394226	
-0.393616	
-0.393127	
-0.39325	
-0.393188	
-0.393372	
-0.39386	
-0.393921	
-0.394226	
-0.39386	
-0.393738	
-0.393555	
-0.393677	
-0.393494	
-0.394165	
-0.394348	
-0.394104	
-0.393677	
-0.393372	
-0.393555	
-0.393738	
-0.394226	
-0.394348	
-0.393127	
-0.393188	
-0.393311	
-0.393066	
-0.3927	
-0.38446	
-0.380737	
-0.379639	
-0.380493	
-0.380615	
-0.381042	
-0.389282	
-0.39325	
-0.393921	
-0.393799	
-0.393616	
-0.393738	
-0.392944	
-0.39325	
-0.392883	
-0.39325	
-0.39325	
-0.393738	
-0.393799	
-0.393616	
-0.39386	
-0.393982	
-0.393677	
-0.39386	
-0.394043	
-0.393616	
-0.393738	
-0.39386	
-0.393372	
-0.393433	
-0.393738	
-0.393066	
-0.393066	
-0.393127	
-0.393127	
-0.392639	
-0.392822	
-0.392334	
-0.392212	
-0.392456	
-0.392273	
-0.391785	
-0.391846	
-0.391602	
-0.391541	
-0.391663	
-0.391663	
-0.391663	
-0.391479	
-0.391663	
-0.391785	
-0.391663	
-0.392212	
-0.391907	
-0.392212	
-0.392334	
-0.392761	
-0.392273	
-0.392517	
-0.39325	
-0.393005	
-0.393066	
-0.393677	
-0.39447	
-0.394409	
-0.394714	
-0.394348	
-0.393494	
-0.39386	
-0.394348	
-0.394287	
-0.393982	
-0.394348	
-0.394287	
-0.394287	
-0.394592	
-0.394836	
-0.394653	
-0.394165	
-0.395508	
-0.395935	
-0.396179	
-0.397034	
-0.3974	
-0.397949	
-0.398315	
-0.398682	
-0.39856	
-0.399292	
-0.399963	
-0.400391	
-0.399963	
-0.40094	
-0.40155	
-0.401917	
-0.402344	
-0.403381	
-0.403809	
-0.404053	
-0.404541	
-0.405212	
-0.405579	
-0.405701	
-0.406311	
-0.406738	
-0.407043	
-0.407471	
-0.407349	
-0.40802	
-0.407898	
-0.408508	
-0.407959	
-0.408264	
-0.407898	
-0.407471	
-0.406982	
-0.406799	
-0.406311	
-0.406128	
-0.405884	
-0.404724	
-0.402771	
-0.401917	
-0.400635	
-0.39856	
-0.397461	
-0.396301	
-0.394836	
-0.393433	
-0.393555	
-0.392883	
-0.390991	
-0.390625	
-0.390076	
-0.390198	
-0.390869	
-0.391663	
-0.392212	
-0.392944	
-0.393982	
-0.395386	
-0.395264	
-0.396423	
-0.397827	
-0.398926	
-0.400024	
-0.40094	
-0.401855	
-0.402771	
-0.403992	
-0.405457	
-0.406006	
-0.407776	
-0.408752	
-0.410217	
-0.410828	
-0.412476	
-0.413452	
-0.414185	
-0.41571	
-0.416748	
-0.417969	
-0.419678	
-0.421631	
-0.422546	
-0.423889	
-0.426208	
-0.427246	
-0.42926	
-0.431274	
-0.433167	
-0.435059	
-0.437073	
-0.439026	
-0.441284	
-0.443481	
-0.445923	
-0.448792	
-0.450623	
-0.452454	
-0.453857	
-0.455383	
-0.45697	
-0.458435	
-0.459351	
-0.460693	
-0.46228	
-0.462585	
-0.462891	
-0.462585	
-0.461853	
-0.460388	
-0.458923	
-0.457703	
-0.455872	
-0.453796	
-0.452393	
-0.450073	
-0.448486	
-0.446777	
-0.44519	
-0.443298	
-0.442261	
-0.440491	
-0.439514	
-0.437805	
-0.436401	
-0.434509	
-0.433044	
-0.431274	
-0.429443	
-0.42804	
-0.426514	
-0.425415	
-0.424377	
-0.423218	
-0.421631	
-0.420349	
-0.419983	
-0.419495	
-0.418762	
-0.418274	
-0.418152	
-0.417786	
-0.417236	
-0.416687	
-0.415955	
-0.415588	
-0.414734	
-0.414307	
-0.413208	
-0.412292	
-0.411377	
-0.411255	
-0.409668	
-0.408447	
-0.407776	
-0.406677	
-0.405762	
-0.405579	
-0.405151	
-0.403809	
-0.40387	
-0.403503	
-0.402344	
-0.401917	
-0.401794	
-0.401489	
-0.401367	
-0.401123	
-0.400146	
-0.399963	
-0.399902	
-0.399475	
-0.399414	
-0.398804	
-0.398682	
-0.398865	
-0.398438	
-0.398071	
-0.396912	
-0.396362	
-0.395813	
-0.395813	
-0.394348	
-0.39386	
-0.393311	
-0.392639	
-0.392151	
-0.391296	
-0.390564	
-0.390381	
-0.390503	
-0.389954	
-0.389465	
-0.389648	
-0.389648	
-0.389709	
-0.389526	
-0.389526	
-0.389404	
-0.389343	
-0.389404	
-0.389221	
-0.388306	
-0.38855	
-0.389343	
-0.389282	
-0.388916	
-0.388489	
-0.38855	
-0.388123	
-0.387939	
-0.387451	
-0.386841	
-0.386536	
-0.386169	
-0.385986	
-0.385315	
-0.384521	
-0.383667	
-0.382813	
-0.382507	
-0.381531	
-0.380371	
-0.380188	
-0.3797	
-0.379211	
-0.377686	
-0.376587	
-0.375732	
-0.375427	
-0.374695	
-0.373657	
-0.373108	
-0.371765	
-0.370605	
-0.370483	
-0.369019	
-0.368713	
-0.368713	
-0.367981	
-0.367126	
-0.366638	
-0.36615	
-0.365723	
-0.365356	
-0.366089	
-0.365295	
-0.365173	
-0.364807	
-0.364868	
-0.36377	
-0.363525	
-0.363708	
-0.363953	
-0.363525	
-0.363647	
-0.364441	
-0.364563	
-0.364685	
-0.364929	
-0.364929	
-0.365479	
-0.365906	
-0.365906	
-0.366516	
-0.367615	
-0.368347	
-0.368713	
-0.36908	
-0.369873	
-0.3703	
-0.370422	
-0.370605	
-0.371155	
-0.37146	
-0.371399	
-0.371765	
-0.372009	
-0.372559	
-0.372559	
-0.372498	
-0.373352	
-0.373413	
-0.373779	
-0.374023	
-0.374695	
-0.375061	
-0.375	
-0.375427	
-0.375671	
-0.376709	
-0.376831	
-0.377075	
-0.377625	
-0.378357	
-0.377991	
-0.378113	
-0.377991	
-0.378052	
-0.378906	
-0.378601	
-0.378357	
-0.378967	
-0.378357	
-0.379395	
-0.379089	
-0.378784	
-0.379272	
-0.379272	
-0.379028	
-0.379639	
-0.380127	
-0.378967	
-0.38031	
-0.380188	
-0.380005	
-0.38092	
-0.381348	
-0.381592	
-0.381775	
-0.38208	
-0.382629	
-0.382751	
-0.382568	
-0.382996	
-0.383118	
-0.383301	
-0.383789	
-0.383179	
-0.383789	
-0.383972	
-0.384216	
-0.384216	
-0.384094	
-0.384277	
-0.383911	
-0.383911	
-0.383301	
-0.383606	
-0.383057	
-0.383606	
-0.383179	
-0.383545	
-0.383484	
-0.38324	
-0.383057	
-0.382751	
-0.383057	
-0.38324	
-0.382935	
-0.383728	
-0.383545	
-0.383545	
-0.383301	
-0.383484	
-0.382874	
-0.382751	
-0.383179	
-0.383179	
-0.382813	
-0.382629	
-0.383728	
-0.384033	
-0.383484	
-0.383423	
-0.383301	
-0.383118	
-0.383362	
-0.383484	
-0.383728	
-0.383606	
-0.383728	
-0.384583	
-0.383728	
-0.384521	
-0.384338	
-0.384521	
-0.384583	
-0.384888	
-0.385376	
-0.385193	
-0.385681	
-0.386475	
-0.38562	
-0.386047	
-0.386902	
-0.386414	
-0.386841	
-0.387512	
-0.386902	
-0.387024	
-0.386963	
-0.387329	
-0.386963	
-0.386902	
-0.386963	
-0.386963	
-0.386963	
-0.386658	
-0.38678	
-0.386169	
-0.386353	
-0.386536	
-0.386108	
-0.386414	
-0.386963	
-0.387146	
-0.386658	
-0.387085	
-0.387451	
-0.387268	
-0.386902	
-0.386902	
-0.387939	
-0.388062	
-0.388	
-0.387634	
-0.387878	
-0.388306	
-0.388	
-0.387512	
-0.387146	
-0.38855	
-0.388611	
-0.388611	
-0.388855	
-0.388916	
-0.388794	
-0.38916	
-0.389404	
-0.389404	
-0.389832	
-0.388977	
-0.389954	
-0.390259	
-0.390137	
-0.390259	
-0.39032	
-0.390442	
-0.389771	
-0.390137	
-0.390381	
-0.390015	
-0.390259	
-0.390442	
-0.389648	
-0.389893	
-0.390503	
-0.389893	
-0.390137	
-0.39032	
-0.390686	
-0.390442	
-0.390442	
-0.390991	
-0.39093	
-0.391357	
-0.391174	
-0.391418	
-0.391479	
-0.391785	
-0.391602	
-0.391846	
-0.392395	
-0.392334	
-0.392456	
-0.392517	
-0.393188	
-0.392944	
-0.392639	
-0.392456	
-0.392517	
-0.392029	
-0.391541	
-0.391357	
-0.390564	
-0.390808	
-0.390442	
-0.389771	
-0.389771	
-0.389709	
-0.38916	
-0.389099	
-0.38916	
-0.388794	
-0.388916	
-0.388428	
-0.38855	
-0.389038	
-0.388611	
-0.388489	
-0.388916	
-0.388855	
-0.388855	
-0.389404	
-0.389526	
-0.389648	
-0.390442	
-0.390198	
-0.390076	
-0.390503	
-0.390564	
-0.390442	
-0.391052	
-0.391296	
-0.391418	
-0.391296	
-0.391479	
-0.392151	
-0.391602	
-0.392151	
-0.392944	
-0.39209	
-0.392273	
-0.392883	
-0.392883	
-0.392639	
-0.393311	
-0.393188	
-0.393311	
-0.393799	
-0.393433	
-0.393494	
-0.39325	
-0.393555	
-0.393311	
-0.393616	
-0.394165	
-0.39447	
-0.394775	
-0.394348	
-0.394226	
-0.394165	
-0.393799	
-0.393799	
-0.394104	
-0.394165	
-0.394592	
-0.39447	
-0.393555	
-0.393799	
-0.393127	
-0.392761	
-0.392883	
-0.392944	
-0.393005	
-0.393005	
-0.393188	
-0.393494	
-0.393433	
-0.392578	
-0.393433	
-0.39386	
-0.393005	
-0.393127	
-0.39325	
-0.393616	
-0.393188	
-0.392944	
-0.392944	
-0.393799	
-0.393494	
-0.393433	
-0.393433	
-0.393311	
-0.39325	
-0.393311	
-0.393433	
-0.393372	
-0.393066	
-0.393494	
-0.393677	
-0.394226	
-0.393311	
-0.393494	
-0.394043	
-0.393677	
-0.393921	
-0.39325	
-0.393555	
-0.393311	
-0.393372	
-0.39386	
-0.393616	
-0.39325	
-0.393433	
-0.393921	
-0.393311	
-0.393494	
-0.393738	
-0.394043	
-0.394348	
-0.394592	
-0.39447	
-0.394592	
-0.394592	
-0.395203	
-0.394775	
-0.394653	
-0.395325	
-0.395325	
-0.395264	
-0.395996	
-0.395874	
-0.395813	
-0.395874	
-0.396423	
-0.396484	
-0.39624	
-0.396179	
-0.39624	
-0.396118	
-0.395874	
-0.395935	
-0.39563	
-0.39502	
-0.395447	
-0.395508	
-0.394897	
-0.394409	
-0.394714	
-0.394592	
-0.393372	
-0.394104	
-0.393982	
-0.392822	
-0.392883	
-0.393066	
-0.392761	
-0.392944	
-0.392822	
-0.393127	
-0.392517	
-0.392517	
-0.392822	
-0.392822	
-0.392456	
-0.392517	
-0.392456	
-0.391785	
-0.392578	
-0.391846	
-0.391479	
-0.391785	
-0.392029	
-0.391785	
-0.391785	
-0.392029	
-0.391846	
-0.392273	
-0.391724	
-0.391174	
-0.391357	
-0.390381	
-0.390686	
-0.390076	
-0.390381	
-0.390259	
-0.389771	
-0.389648	
-0.390381	
-0.390381	
-0.389893	
-0.390015	
-0.390808	
-0.391296	
-0.391846	
-0.391968	
-0.392029	
-0.393066	
-0.392517	
-0.392395	
-0.392944	
-0.393738	
-0.393433	
-0.393372	
-0.393005	
-0.393494	
-0.393555	
-0.393311	
-0.393494	
-0.393982	
-0.394226	
-0.393433	
-0.393616	
-0.394348	
-0.394043	
-0.393677	
-0.393677	
-0.393921	
-0.39386	
-0.393555	
-0.393677	
-0.394043	
-0.394165	
-0.394409	
-0.394104	
-0.393982	
-0.394348	
-0.394226	
-0.394104	
-0.394714	
-0.394165	
-0.394043	
-0.394348	
-0.39447	
-0.394348	
-0.394287	
-0.394226	
-0.394165	
-0.393555	
-0.39386	
-0.393188	
-0.393372	
-0.392944	
-0.393433	
-0.392395	
-0.391968	
-0.391541	
-0.391479	
-0.391541	
-0.391541	
-0.391785	
-0.391541	
-0.39093	
-0.39209	
-0.391846	
-0.391602	
-0.391907	
-0.391113	
-0.391663	
-0.391602	
-0.391968	
-0.391907	
-0.391113	
-0.392029	
-0.391785	
-0.391968	
-0.392151	
-0.39209	
-0.392029	
-0.392212	
-0.392151	
-0.39209	
-0.391968	
-0.392212	
-0.392395	
-0.392334	
-0.392212	
-0.39325	
-0.3927	
-0.392517	
-0.392456	
-0.392273	
-0.392456	
-0.392517	
-0.392578	
-0.392273	
-0.392761	
-0.392761	
-0.393127	
-0.3927	
-0.392456	
-0.392151	
-0.391785	
-0.392212	
-0.391846	
-0.391907	
-0.391907	
-0.392395	
-0.391846	
-0.391846	
-0.391602	
-0.392578	
-0.392395	
-0.391785	
-0.392029	
-0.391846	
-0.392334	
-0.392029	
-0.391907	
-0.391968	
-0.391968	
-0.391541	
-0.391479	
-0.391602	
-0.391541	
-0.39093	
-0.39093	
-0.39093	
-0.390991	
-0.390564	
-0.390747	
-0.390747	
-0.39032	
-0.390076	
-0.389954	
-0.390076	
-0.389954	
-0.390198	
-0.389343	
-0.389648	
-0.390015	
-0.389954	
-0.390076	
-0.391296	
-0.391235	
-0.391541	
-0.392029	
-0.392639	
-0.392334	
-0.393005	
-0.393433	
-0.393127	
-0.393616	
-0.393921	
-0.393433	
-0.393921	
-0.394226	
-0.394287	
-0.394043	
-0.394226	
-0.394409	
-0.393738	
-0.394348	
-0.394409	
-0.394165	
-0.394165	
-0.393982	
-0.393921	
-0.393188	
-0.393555	
-0.392822	
-0.392822	
-0.392883	
-0.392883	
-0.392517	
-0.393005	
-0.39325	
-0.392761	
-0.392456	
-0.392273	
-0.392273	
-0.391785	
-0.39209	
-0.391785	
-0.391663	
-0.391968	
-0.391724	
-0.391724	
-0.391907	
-0.391418	
-0.391174	
-0.391113	
-0.390564	
-0.390442	
-0.39093	
-0.390564	
-0.39093	
-0.390625	
-0.390747	
-0.390747	
-0.390808	
-0.391113	
-0.391418	
-0.391541	
-0.390259	
-0.390808	
-0.391052	
-0.390747	
-0.391357	
-0.391235	
-0.391602	
-0.391846	
-0.392578	
-0.392334	
-0.39209	
-0.392212	
-0.39209	
-0.392334	
-0.39209	
-0.392334	
-0.393372	
-0.393188	
-0.392822	
-0.393555	
-0.393127	
-0.393494	
-0.39325	
-0.39325	
-0.393372	
-0.39386	
-0.393494	
-0.393372	
-0.393433	
-0.392822	
-0.392883	
-0.392334	
-0.393005	
-0.392578	
-0.392273	
-0.392151	
-0.392456	
-0.392578	
-0.392517	
-0.392334	
-0.392578	
-0.392944	
-0.392578	
-0.392456	
-0.392761	
-0.392456	
-0.392578	
-0.393677	
-0.393372	
-0.393188	
-0.393555	
-0.393677	
-0.393494	
-0.393982	
-0.393921	
-0.393738	
-0.393921	
-0.394348	
-0.393799	
-0.393677	
-0.393616	
-0.394348	
-0.394165	
-0.394226	
-0.393738	
-0.394104	
-0.394104	
-0.39447	
-0.393799	
-0.393799	
-0.393494	
-0.393738	
-0.393127	
-0.393311	
-0.393372	
-0.39325	
-0.393555	
-0.394226	
-0.393616	
-0.392822	
-0.393494	
-0.393555	
-0.392883	
-0.393494	
-0.393799	
-0.393677	
-0.39386	
-0.394348	
-0.394226	
-0.394165	
-0.39502	
-0.395203	
-0.394775	
-0.394897	
-0.395508	
-0.395752	
-0.395447	
-0.395874	
-0.395752	
-0.395874	
-0.395447	
-0.396545	
-0.39563	
-0.395569	
-0.395813	
-0.395813	
-0.395569	
-0.395691	
-0.396362	
-0.395813	
-0.396484	
-0.396301	
-0.396179	
-0.395996	
-0.39624	
-0.396118	
-0.396667	
-0.397522	
-0.397461	
-0.397522	
-0.397522	
-0.398438	
-0.398315	
-0.397888	
-0.39801	
-0.397827	
-0.397949	
-0.398193	
-0.398315	
-0.397827	
-0.398193	
-0.397827	
-0.397156	
-0.397156	
-0.39679	
-0.396057	
-0.395264	
-0.395203	
-0.395752	
-0.395447	
-0.39502	
-0.395142	
-0.395081	
-0.394592	
-0.393677	
-0.393982	
-0.393677	
-0.393616	
-0.393433	
-0.393677	
-0.393738	
-0.393799	
-0.39386	
-0.394287	
-0.394043	
-0.393921	
-0.393799	
-0.393677	
-0.394165	
-0.394104	
-0.393311	
-0.393799	
-0.39447	
-0.393738	
-0.394226	
-0.393677	
-0.394226	
-0.393494	
-0.393433	
-0.393555	
-0.393616	
-0.393555	
-0.393677	
-0.393494	
-0.393921	
-0.394104	
-0.394165	
-0.393921	
-0.394409	
-0.394348	
-0.394714	
-0.394897	
-0.395508	
-0.395874	
-0.394958	
-0.395691	
-0.39679	
-0.396484	
-0.396179	
-0.396362	
-0.396545	
-0.396667	
-0.396729	
-0.39679	
-0.396667	
-0.396729	
-0.39679	
-0.396606	
-0.396179	
-0.396606	
-0.396301	
-0.396179	
-0.395752	
-0.395752	
-0.39563	
-0.396057	
-0.395996	
-0.396301	
-0.39563	
-0.39563	
-0.396729	
-0.395813	
-0.395447	
-0.395874	
-0.396179	
-0.396423	
-0.396179	
-0.396729	
-0.396301	
-0.396606	
-0.396057	
-0.396423	
-0.396301	
-0.395996	
-0.39679	
-0.396912	
-0.397339	
-0.396606	
-0.397217	
-0.397766	
-0.397461	
-0.397766	
-0.397461	
-0.397278	
-0.397522	
-0.397827	
-0.397827	
-0.398132	
-0.39801	
-0.39801	
-0.397827	
-0.397766	
-0.397461	
-0.397827	
-0.397461	
-0.397217	
-0.397339	
-0.397644	
-0.397339	
-0.3974	
-0.397583	
-0.3974	
-0.39801	
-0.397644	
-0.397949	
-0.397888	
-0.398254	
-0.398132	
-0.398315	
-0.398438	
-0.398865	
-0.398743	
-0.399292	
-0.399231	
-0.399109	
-0.39917	
-0.399536	
-0.399231	
-0.399475	
-0.399719	
-0.399536	
-0.398987	
-0.398926	
-0.398499	
-0.397766	
-0.397949	
-0.397461	
-0.396484	
-0.39624	
-0.396729	
-0.395874	
-0.395874	
-0.395813	
-0.395569	
-0.394958	
-0.394958	
-0.395264	
-0.394836	
-0.394836	
-0.39502	
-0.395142	
-0.394958	
-0.395203	
-0.395142	
-0.394775	
-0.395691	
-0.395691	
-0.394592	
-0.395447	
-0.396362	
-0.396118	
-0.395874	
-0.396057	
-0.396484	
-0.396179	
-0.396484	
-0.396667	
-0.396606	
-0.396973	
-0.396912	
-0.396973	
-0.397522	
-0.397461	
-0.397095	
-0.397156	
-0.397888	
-0.397888	
-0.397949	
-0.398071	
-0.398743	
-0.397949	
-0.397949	
-0.398254	
-0.398438	
-0.398621	
-0.398376	
-0.398743	
-0.398682	
-0.399597	
-0.39978	
-0.398804	
-0.39856	
-0.398865	
-0.398743	
-0.398376	
-0.399353	
-0.398987	
-0.398193	
-0.398315	
-0.398071	
-0.398254	
-0.397949	
-0.397949	
-0.397705	
-0.3974	
-0.397217	
-0.396851	
-0.396912	
-0.396973	
-0.397888	
-0.39801	
-0.3974	
-0.397583	
-0.3974	
-0.397461	
-0.396973	
-0.396973	
-0.397339	
-0.397034	
-0.397095	
-0.396851	
-0.396667	
-0.396484	
-0.39679	
-0.396606	
-0.397095	
-0.397278	
-0.397156	
-0.397095	
-0.397095	
-0.397095	
-0.396973	
-0.397278	
-0.397217	
-0.39679	
-0.397095	
-0.397217	
-0.3974	
-0.396667	
-0.396484	
-0.396667	
-0.396606	
-0.395874	
-0.396362	
-0.396179	
-0.396118	
-0.395813	
-0.39624	
-0.395813	
-0.395447	
-0.395447	
-0.395874	
-0.395813	
-0.395508	
-0.396057	
-0.396118	
-0.395691	
-0.395691	
-0.395935	
-0.395508	
-0.395691	
-0.395813	
-0.395874	
-0.395752	
-0.396667	
-0.396179	
-0.395264	
-0.396362	
-0.396729	
-0.396057	
-0.396057	
-0.396545	
-0.396179	
-0.396118	
-0.396362	
-0.396057	
-0.395935	
-0.396179	
-0.39563	
-0.395569	
-0.395447	
-0.395569	
-0.394836	
-0.394775	
-0.395081	
-0.394714	
-0.394104	
-0.394104	
-0.394592	
-0.393799	
-0.39386	
-0.394287	
-0.394043	
-0.39386	
-0.393799	
-0.394226	
-0.393738	
-0.394531	
-0.393738	
-0.393677	
-0.393677	
-0.393738	
-0.393433	
-0.393127	
-0.393616	
-0.393433	
-0.393066	
-0.393005	
-0.393127	
-0.393433	
-0.392822	
-0.392151	
-0.391968	
-0.391968	
-0.391235	
-0.391052	
-0.391113	
-0.39093	
-0.391235	
-0.391052	
-0.39093	
-0.391785	
-0.391052	
-0.390808	
-0.391479	
-0.391479	
-0.391541	
-0.391846	
-0.392334	
-0.392517	
-0.3927	
-0.393005	
-0.393311	
-0.39386	
-0.393616	
-0.39386	
-0.393555	
-0.39386	
-0.393982	
-0.394348	
-0.393982	
-0.394287	
-0.393677	
-0.393921	
-0.394043	
-0.394287	
-0.394104	
-0.394165	
-0.393921	
-0.39386	
-0.393799	
-0.394104	
-0.394043	
-0.394226	
-0.39386	
-0.393616	
-0.393921	
-0.393921	
-0.393921	
-0.394226	
-0.39447	
-0.39447	
-0.393494	
-0.393982	
-0.394165	
-0.394287	
-0.394165	
-0.394104	
-0.394165	
-0.394165	
-0.394165	
-0.393738	
-0.39325	
-0.39325	
-0.393127	
-0.392822	
-0.392578	
-0.3927	
-0.391541	
-0.391663	
-0.391846	
-0.391663	
-0.391174	
-0.391357	
-0.391052	
-0.391113	
-0.391907	
-0.391541	
-0.391052	
-0.39093	
-0.391296	
-0.391541	
-0.390991	
-0.391296	
-0.391663	
-0.391479	
-0.391479	
-0.391785	
-0.391663	
-0.391052	
-0.391663	
-0.391907	
-0.391663	
-0.391724	
-0.391785	
-0.391235	
-0.391663	
-0.391113	
-0.391418	
-0.391235	
-0.391357	
-0.391541	
-0.390808	
-0.391174	
-0.391052	
-0.390991	
-0.390564	
-0.391235	
-0.39093	
-0.390015	
-0.390747	
-0.390747	
-0.390198	
-0.390076	
-0.389465	
-0.389587	
-0.390015	
-0.389648	
-0.389221	
-0.389221	
-0.389526	
-0.389465	
-0.389648	
-0.389526	
-0.389709	
-0.389893	
-0.389954	
-0.389771	
-0.389648	
-0.390137	
-0.389526	
-0.390015	
-0.390015	
-0.389954	
-0.389465	
-0.389404	
-0.389038	
-0.388855	
-0.388733	
-0.388977	
-0.388611	
-0.38855	
-0.388794	
-0.388	
-0.388062	
-0.38855	
-0.387756	
-0.387817	
-0.387512	
-0.387329	
-0.387329	
-0.386963	
-0.387573	
-0.387756	
-0.387268	
-0.387817	
-0.388672	
-0.389099	
-0.389404	
-0.389771	
-0.389771	
-0.389832	
-0.390625	
-0.390442	
-0.390991	
-0.390442	
-0.391357	
-0.391235	
-0.391296	
-0.39209	
-0.391724	
-0.391479	
-0.391785	
-0.391968	
-0.391052	
-0.391235	
-0.39209	
-0.391357	
-0.391113	
-0.391357	
-0.390442	
-0.390625	
-0.390625	
-0.39032	
-0.389526	
-0.390137	
-0.390198	
-0.390503	
-0.389709	
-0.389709	
-0.389954	
-0.389221	
-0.389404	
-0.388916	
-0.388428	
-0.388855	
-0.389648	
-0.38855	
-0.388428	
-0.388733	
-0.388611	
-0.388367	
-0.388184	
-0.388184	
-0.387878	
-0.387512	
-0.387939	
-0.387573	
-0.387268	
-0.387573	
-0.387207	
-0.387634	
-0.388	
-0.387451	
-0.387085	
-0.387451	
-0.388062	
-0.387878	
-0.38739	
-0.387695	
-0.387939	
-0.388123	
-0.388184	
-0.388	
-0.388489	
-0.389099	
-0.388672	
-0.388672	
-0.38855	
-0.388733	
-0.388672	
-0.388733	
-0.388794	
-0.389465	
-0.389832	
-0.389221	
-0.389771	
-0.389099	
-0.389282	
-0.389465	
-0.389893	
-0.39032	
-0.390015	
-0.389771	
-0.389771	
-0.389038	
-0.388977	
-0.388794	
-0.389099	
-0.389282	
-0.388794	
-0.389221	
-0.388611	
-0.388733	
-0.388794	
-0.388733	
-0.388306	
-0.388611	
-0.388916	
-0.389038	
-0.388916	
-0.388855	
-0.389221	
-0.389038	
-0.389404	
-0.389282	
-0.389099	
-0.389465	
-0.390198	
-0.390015	
-0.389709	
-0.389771	
-0.389282	
-0.389648	
-0.389648	
-0.389893	
-0.389526	
-0.389771	
-0.389709	
-0.389771	
-0.389832	
-0.39032	
-0.390503	
-0.389404	
-0.389832	
-0.390076	
-0.389648	
-0.389343	
-0.389343	
-0.389465	
-0.388855	
-0.38916	
-0.389221	
-0.388794	
-0.38855	
-0.389465	
-0.389465	
-0.389221	
-0.38916	
-0.389282	
-0.389343	
-0.389771	
-0.389526	
-0.389587	
-0.389709	
-0.390625	
-0.389832	
-0.389954	
-0.390564	
-0.390686	
-0.39093	
-0.39093	
-0.390869	
-0.391052	
-0.391113	
-0.39093	
-0.391296	
-0.390808	
-0.390747	
-0.391052	
-0.390808	
-0.391113	
-0.391357	
-0.390686	
-0.390991	
-0.391968	
-0.391785	
-0.391296	
-0.391418	
-0.391663	
-0.391357	
-0.391113	
-0.391357	
-0.391724	
-0.391724	
-0.392395	
-0.392578	
-0.392456	
-0.393188	
-0.393188	
-0.392822	
-0.393372	
-0.393433	
-0.393066	
-0.393433	
-0.393677	
-0.392883	
-0.392761	
-0.392212	
-0.392761	
-0.391663	
-0.391541	
-0.390442	
-0.390564	
-0.390747	
-0.390869	
-0.39032	
-0.389954	
-0.390198	
-0.390137	
-0.390381	
-0.389404	
-0.389404	
-0.389404	
-0.389343	
-0.389893	
-0.389404	
-0.389465	
-0.388794	
-0.389343	
-0.389404	
-0.389771	
-0.389832	
-0.389648	
-0.389771	
-0.388794	
-0.389404	
-0.389282	
-0.389221	
-0.389404	
-0.390015	
-0.389038	
-0.389404	
-0.389526	
-0.389404	
-0.388672	
-0.388489	
-0.389343	
-0.389343	
-0.389282	
-0.389587	
-0.389587	
-0.388794	
-0.389954	
-0.390015	
-0.389709	
-0.389709	
-0.390442	
-0.390259	
-0.391052	
-0.391479	
-0.391357	
-0.391357	
-0.392151	
-0.391907	
	
