E:\DOCUMENTS AND SETTINGS\JPOTAS\MEUS DOCUMENTOS\UFRJ\RSCI-BM 12 WK SERIES\070723-RSCI-BM-06\RSCI-BM-06-REMG\070723-RSCI-BM-REMG-0010.ACQ
0.025000 msec/sample
1 channel
Analog input
Volts
CH1	
2000	
-0.38916	
-0.389221	
-0.389465	
-0.389771	
-0.390625	
-0.390076	
-0.390198	
-0.390137	
-0.388855	
-0.390381	
-0.390198	
-0.390015	
-0.389709	
-0.389832	
-0.39032	
-0.391907	
-0.39093	
-0.390503	
-0.390381	
-0.389282	
-0.390625	
-0.390991	
-0.390747	
-0.390564	
-0.390198	
-0.390747	
-0.391235	
-0.390869	
-0.389954	
-0.390503	
-0.389526	
-0.390991	
-0.390991	
-0.390991	
-0.39093	
-0.390686	
-0.390198	
-0.390747	
-0.389282	
-0.388916	
-0.389099	
-0.387695	
-0.388733	
-0.388	
-0.387939	
-0.388062	
-0.388123	
-0.388184	
-0.389099	
-0.387634	
-0.388245	
-0.388367	
-0.386963	
-0.388245	
-0.388062	
-0.388794	
-0.38855	
-0.388916	
-0.389526	
-0.390076	
-0.388306	
-0.389282	
-0.389771	
-0.388977	
-0.390076	
-0.389465	
-0.389954	
-0.390503	
-0.391174	
-0.390381	
-0.391052	
-0.390442	
-0.391113	
-0.391357	
-0.390198	
-0.390869	
-0.390442	
-0.390991	
-0.390991	
-0.391602	
-0.391052	
-0.391785	
-0.390564	
-0.390869	
-0.391235	
-0.390198	
-0.391785	
-0.391174	
-0.391968	
-0.391846	
-0.3927	
-0.39209	
-0.393127	
-0.39209	
-0.392334	
-0.391968	
-0.392151	
-0.392578	
-0.391357	
-0.392151	
-0.391724	
-0.3927	
-0.391968	
-0.392761	
-0.391113	
-0.391235	
-0.391296	
-0.391296	
-0.391235	
-0.389771	
-0.390625	
-0.390747	
-0.391663	
-0.390991	
-0.392029	
-0.390808	
-0.391174	
-0.390137	
-0.390625	
-0.391724	
-0.390076	
-0.39093	
-0.390991	
-0.391846	
-0.390991	
-0.391296	
-0.39032	
-0.39093	
-0.390198	
-0.390137	
-0.391418	
-0.390869	
-0.391235	
-0.390869	
-0.391541	
-0.390869	
-0.391907	
-0.389771	
-0.390442	
-0.390259	
-0.390259	
-0.391479	
-0.390259	
-0.389709	
-0.389709	
-0.390259	
-0.389404	
-0.390442	
-0.38855	
-0.389771	
-0.388672	
-0.389587	
-0.390564	
-0.388977	
-0.389221	
-0.389282	
-0.390564	
-0.389771	
-0.390686	
-0.389954	
-0.390747	
-0.389343	
-0.389893	
-0.390747	
-0.39032	
-0.390198	
-0.390381	
-0.391785	
-0.391296	
-0.391724	
-0.389771	
-0.391235	
-0.390015	
-0.390747	
-0.391113	
-0.390015	
-0.390198	
-0.390259	
-0.390564	
-0.390076	
-0.391479	
-0.389343	
-0.390015	
-0.388916	
-0.389709	
-0.389099	
-0.388672	
-0.388977	
-0.389221	
-0.389526	
-0.388184	
-0.390198	
-0.388123	
-0.388611	
-0.387329	
-0.388367	
-0.388428	
-0.385254	
-0.382019	
-0.380859	
-0.382141	
-0.381775	
-0.383301	
-0.384766	
-0.389038	
-0.388916	
-0.389832	
-0.389221	
-0.389709	
-0.389221	
-0.389038	
-0.389709	
-0.389465	
-0.390442	
-0.388489	
-0.389343	
-0.388916	
-0.389038	
-0.388672	
-0.389526	
-0.389771	
-0.389709	
-0.389893	
-0.389465	
-0.390991	
-0.388367	
-0.389099	
-0.38855	
-0.389709	
-0.388916	
-0.389648	
-0.389526	
-0.389526	
-0.389038	
-0.389099	
-0.390808	
-0.388977	
-0.389404	
-0.388489	
-0.389771	
-0.389526	
-0.390259	
-0.389587	
-0.389709	
-0.389771	
-0.390381	
-0.391663	
-0.389954	
-0.390991	
-0.389343	
-0.391113	
-0.391357	
-0.391052	
-0.391113	
-0.391418	
-0.391724	
-0.391968	
-0.392395	
-0.391479	
-0.391968	
-0.390015	
-0.3927	
-0.393799	
-0.393433	
-0.393982	
-0.395447	
-0.395203	
-0.395508	
-0.395996	
-0.396484	
-0.395752	
-0.394348	
-0.396729	
-0.397888	
-0.396912	
-0.397766	
-0.39801	
-0.397705	
-0.39801	
-0.396973	
-0.398743	
-0.397705	
-0.397766	
-0.397766	
-0.39917	
-0.398926	
-0.399109	
-0.39856	
-0.399658	
-0.401001	
-0.399902	
-0.400513	
-0.40033	
-0.401123	
-0.400269	
-0.401672	
-0.402344	
-0.402893	
-0.402771	
-0.403381	
-0.405396	
-0.404968	
-0.405212	
-0.40387	
-0.405518	
-0.406555	
-0.406189	
-0.406189	
-0.406616	
-0.40625	
-0.406433	
-0.405579	
-0.40686	
-0.405945	
-0.404968	
-0.404602	
-0.404907	
-0.404297	
-0.403564	
-0.401001	
-0.400757	
-0.400391	
-0.398621	
-0.3974	
-0.396179	
-0.39447	
-0.393616	
-0.393372	
-0.392944	
-0.393188	
-0.392212	
-0.392334	
-0.393127	
-0.393555	
-0.394226	
-0.393555	
-0.395996	
-0.397827	
-0.398621	
-0.400269	
-0.402344	
-0.401733	
-0.404114	
-0.404663	
-0.406982	
-0.407349	
-0.408203	
-0.409546	
-0.412109	
-0.41217	
-0.413391	
-0.41272	
-0.414734	
-0.415894	
-0.41687	
-0.41687	
-0.417603	
-0.41864	
-0.420715	
-0.421814	
-0.422546	
-0.424438	
-0.424011	
-0.425659	
-0.426636	
-0.429016	
-0.429382	
-0.430542	
-0.432617	
-0.435852	
-0.437378	
-0.440186	
-0.44165	
-0.44519	
-0.447815	
-0.449402	
-0.451904	
-0.453186	
-0.454041	
-0.455261	
-0.458679	
-0.458923	
-0.460571	
-0.46051	
-0.461853	
-0.463135	
-0.462158	
-0.460938	
-0.459412	
-0.457275	
-0.456726	
-0.455444	
-0.453369	
-0.452026	
-0.449158	
-0.448486	
-0.447205	
-0.445435	
-0.443726	
-0.440796	
-0.439819	
-0.439209	
-0.437256	
-0.435791	
-0.434814	
-0.432739	
-0.430908	
-0.429321	
-0.428711	
-0.427429	
-0.425171	
-0.424927	
-0.424316	
-0.42395	
-0.42334	
-0.422791	
-0.421753	
-0.421326	
-0.420776	
-0.420593	
-0.418518	
-0.417175	
-0.416016	
-0.416016	
-0.414063	
-0.413574	
-0.413147	
-0.41156	
-0.411194	
-0.410583	
-0.409607	
-0.408142	
-0.407043	
-0.405457	
-0.406189	
-0.404297	
-0.403687	
-0.403442	
-0.403198	
-0.403748	
-0.402466	
-0.402161	
-0.401794	
-0.401428	
-0.401855	
-0.401855	
-0.401184	
-0.400146	
-0.398804	
-0.398987	
-0.399536	
-0.397339	
-0.396973	
-0.396057	
-0.394958	
-0.395813	
-0.394958	
-0.39386	
-0.393188	
-0.39209	
-0.391785	
-0.391968	
-0.389526	
-0.389099	
-0.388123	
-0.38678	
-0.388062	
-0.387573	
-0.387024	
-0.386719	
-0.385742	
-0.386292	
-0.387695	
-0.386169	
-0.385742	
-0.385864	
-0.385864	
-0.386536	
-0.38623	
-0.385864	
-0.385803	
-0.384827	
-0.385071	
-0.385681	
-0.384399	
-0.383545	
-0.381104	
-0.381226	
-0.382019	
-0.381104	
-0.380859	
-0.380432	
-0.379333	
-0.379089	
-0.378235	
-0.377563	
-0.375793	
-0.374817	
-0.375	
-0.374634	
-0.373352	
-0.372864	
-0.372009	
-0.371765	
-0.372375	
-0.371521	
-0.370911	
-0.369934	
-0.369568	
-0.369751	
-0.369141	
-0.36853	
-0.368286	
-0.367981	
-0.367981	
-0.368835	
-0.366211	
-0.36615	
-0.365173	
-0.365662	
-0.367249	
-0.366455	
-0.366638	
-0.367004	
-0.366455	
-0.367493	
-0.366638	
-0.366699	
-0.366577	
-0.366943	
-0.367493	
-0.367432	
-0.367981	
-0.368713	
-0.368958	
-0.369629	
-0.371033	
-0.370117	
-0.370239	
-0.369995	
-0.370667	
-0.372681	
-0.372742	
-0.373291	
-0.37323	
-0.374817	
-0.375793	
-0.376343	
-0.37561	
-0.375366	
-0.374268	
-0.375916	
-0.377625	
-0.37616	
-0.376343	
-0.376526	
-0.376709	
-0.377563	
-0.376892	
-0.377197	
-0.375854	
-0.376648	
-0.37793	
-0.37738	
-0.377441	
-0.377441	
-0.376953	
-0.377747	
-0.378784	
-0.377197	
-0.377625	
-0.377075	
-0.377686	
-0.378601	
-0.377869	
-0.378174	
-0.377747	
-0.377014	
-0.378601	
-0.378296	
-0.377869	
-0.377502	
-0.377747	
-0.37793	
-0.378662	
-0.377869	
-0.377747	
-0.376404	
-0.377319	
-0.379272	
-0.377502	
-0.377686	
-0.377258	
-0.377258	
-0.377991	
-0.378052	
-0.377869	
-0.377136	
-0.370911	
-0.369873	
-0.370178	
-0.369324	
-0.369263	
-0.371521	
-0.377563	
-0.379089	
-0.377808	
-0.378357	
-0.37915	
-0.37854	
-0.378845	
-0.378906	
-0.379456	
-0.379883	
-0.379517	
-0.380615	
-0.381287	
-0.381592	
-0.381042	
-0.380493	
-0.381409	
-0.383545	
-0.381226	
-0.38208	
-0.381531	
-0.381836	
-0.382507	
-0.382874	
-0.382935	
-0.383484	
-0.382935	
-0.38324	
-0.384827	
-0.382996	
-0.382629	
-0.381165	
-0.382751	
-0.38324	
-0.383118	
-0.382813	
-0.383362	
-0.383545	
-0.383301	
-0.384338	
-0.383362	
-0.383545	
-0.382324	
-0.384705	
-0.385498	
-0.384521	
-0.385132	
-0.386169	
-0.386169	
-0.386536	
-0.387207	
-0.386902	
-0.387329	
-0.386414	
-0.388367	
-0.389648	
-0.389526	
-0.389404	
-0.388611	
-0.389648	
-0.391052	
-0.390808	
-0.391113	
-0.390381	
-0.390015	
-0.392273	
-0.392273	
-0.392517	
-0.392822	
-0.391846	
-0.392395	
-0.393433	
-0.393738	
-0.393311	
-0.393066	
-0.392822	
-0.39502	
-0.394714	
-0.394958	
-0.395569	
-0.395569	
-0.395691	
-0.396179	
-0.396912	
-0.397888	
-0.397339	
-0.399109	
-0.399963	
-0.39978	
-0.400696	
-0.400513	
-0.402283	
-0.40332	
-0.405579	
-0.404907	
-0.40509	
-0.405273	
-0.407227	
-0.407593	
-0.407959	
-0.409058	
-0.408569	
-0.408813	
-0.409607	
-0.40979	
-0.409973	
-0.409119	
-0.410095	
-0.411316	
-0.41095	
-0.41095	
-0.409119	
-0.408997	
-0.40863	
-0.408875	
-0.406616	
-0.405457	
-0.403809	
-0.40448	
-0.403259	
-0.402588	
-0.40271	
-0.402222	
-0.401917	
-0.401672	
-0.401245	
-0.401672	
-0.401245	
-0.402344	
-0.404846	
-0.405029	
-0.405518	
-0.406616	
-0.40863	
-0.409851	
-0.411987	
-0.412109	
-0.413513	
-0.41449	
-0.416321	
-0.417053	
-0.41803	
-0.4198	
-0.419983	
-0.420837	
-0.421387	
-0.422363	
-0.422729	
-0.422485	
-0.42395	
-0.426331	
-0.426514	
-0.427734	
-0.428101	
-0.429749	
-0.431763	
-0.434753	
-0.434631	
-0.435425	
-0.436584	
-0.439453	
-0.440979	
-0.442688	
-0.445313	
-0.445496	
-0.448792	
-0.451477	
-0.45282	
-0.452637	
-0.453979	
-0.454346	
-0.456543	
-0.457703	
-0.459473	
-0.460205	
-0.459961	
-0.460449	
-0.461792	
-0.46106	
-0.459717	
-0.457703	
-0.458008	
-0.45697	
-0.454407	
-0.453064	
-0.450439	
-0.448608	
-0.446594	
-0.444885	
-0.442993	
-0.440491	
-0.436707	
-0.436523	
-0.435913	
-0.432983	
-0.431885	
-0.429016	
-0.427673	
-0.426147	
-0.425781	
-0.421936	
-0.420715	
-0.418762	
-0.419556	
-0.419128	
-0.417419	
-0.416565	
-0.414673	
-0.414978	
-0.415283	
-0.41333	
-0.412415	
-0.411438	
-0.40918	
-0.409668	
-0.409302	
-0.408325	
-0.407959	
-0.40686	
-0.407227	
-0.407532	
-0.40625	
-0.406433	
-0.404907	
-0.404785	
-0.405151	
-0.404846	
-0.404907	
-0.404602	
-0.404114	
-0.404358	
-0.404419	
-0.402588	
-0.403076	
-0.401855	
-0.403198	
-0.402771	
-0.402222	
-0.401855	
-0.401184	
-0.400513	
-0.40033	
-0.401611	
-0.398865	
-0.39801	
-0.395508	
-0.397217	
-0.396484	
-0.395569	
-0.394531	
-0.394104	
-0.393677	
-0.393127	
-0.393311	
-0.391296	
-0.390747	
-0.387451	
-0.389832	
-0.390137	
-0.38916	
-0.388977	
-0.388123	
-0.388916	
-0.388611	
-0.388367	
-0.388062	
-0.387695	
-0.386963	
-0.387207	
-0.387085	
-0.385864	
-0.385864	
-0.382813	
-0.383545	
-0.383545	
-0.382874	
-0.380859	
-0.379211	
-0.379639	
-0.379211	
-0.37793	
-0.377258	
-0.37677	
-0.375244	
-0.374695	
-0.375366	
-0.372375	
-0.371155	
-0.368774	
-0.370422	
-0.370789	
-0.368652	
-0.368225	
-0.365845	
-0.366089	
-0.365173	
-0.364319	
-0.363647	
-0.363342	
-0.362183	
-0.362976	
-0.362244	
-0.362061	
-0.362549	
-0.362	
-0.362305	
-0.363647	
-0.362732	
-0.363098	
-0.363586	
-0.364929	
-0.36554	
-0.366394	
-0.367065	
-0.366943	
-0.367676	
-0.368591	
-0.369446	
-0.369751	
-0.36969	
-0.368286	
-0.371033	
-0.371765	
-0.37207	
-0.373108	
-0.372375	
-0.373779	
-0.375488	
-0.374634	
-0.374756	
-0.374268	
-0.375671	
-0.376526	
-0.37616	
-0.37677	
-0.376953	
-0.377502	
-0.378418	
-0.37854	
-0.378174	
-0.378052	
-0.37677	
-0.378357	
-0.378967	
-0.378418	
-0.378784	
-0.377441	
-0.37854	
-0.380371	
-0.378174	
-0.378845	
-0.377808	
-0.378601	
-0.378723	
-0.378906	
-0.378845	
-0.378845	
-0.378601	
-0.378723	
-0.379028	
-0.378906	
-0.378967	
-0.37793	
-0.379761	
-0.380859	
-0.380371	
-0.380066	
-0.380005	
-0.380615	
-0.381714	
-0.381104	
-0.380737	
-0.380249	
-0.380066	
-0.381592	
-0.381775	
-0.381409	
-0.381714	
-0.379944	
-0.381531	
-0.383606	
-0.381287	
-0.38092	
-0.378784	
-0.381226	
-0.381226	
-0.381042	
-0.38092	
-0.380554	
-0.379822	
-0.380127	
-0.380188	
-0.380249	
-0.380005	
-0.379639	
-0.380737	
-0.381042	
-0.380493	
-0.381042	
-0.380249	
-0.380737	
-0.381592	
-0.381897	
-0.380676	
-0.379822	
-0.379028	
-0.380493	
-0.381836	
-0.381226	
-0.381287	
-0.380737	
-0.38147	
-0.38208	
-0.381287	
-0.381165	
-0.379578	
-0.380188	
-0.381531	
-0.382996	
-0.381653	
-0.382263	
-0.381836	
-0.382751	
-0.383362	
-0.382324	
-0.382141	
-0.381714	
-0.383118	
-0.382507	
-0.383423	
-0.38269	
-0.38385	
-0.383118	
-0.384644	
-0.385498	
-0.384888	
-0.385132	
-0.384644	
-0.385071	
-0.385986	
-0.387268	
-0.386597	
-0.386963	
-0.38562	
-0.387512	
-0.387024	
-0.387085	
-0.386963	
-0.385864	
-0.387207	
-0.387573	
-0.387451	
-0.387451	
-0.386719	
-0.386597	
-0.387878	
-0.386963	
-0.386292	
-0.384583	
-0.385376	
-0.38623	
-0.385864	
-0.385132	
-0.385376	
-0.384705	
-0.38501	
-0.385071	
-0.383972	
-0.383972	
-0.383179	
-0.383667	
-0.383789	
-0.384094	
-0.383179	
-0.383972	
-0.382935	
-0.384033	
-0.384521	
-0.383118	
-0.382813	
-0.383301	
-0.383118	
-0.382874	
-0.38385	
-0.383179	
-0.38324	
-0.381592	
-0.382996	
-0.383362	
-0.383057	
-0.381653	
-0.38147	
-0.383118	
-0.383057	
-0.382446	
-0.383423	
-0.382629	
-0.382751	
-0.382935	
-0.384094	
-0.383362	
-0.382263	
-0.381714	
-0.38385	
-0.38385	
-0.384033	
-0.384521	
-0.383728	
-0.384338	
-0.384521	
-0.383667	
-0.383301	
-0.383301	
-0.38269	
-0.383484	
-0.384277	
-0.384155	
-0.384521	
-0.383484	
-0.384888	
-0.384216	
-0.383423	
-0.383545	
-0.38385	
-0.383423	
-0.384216	
-0.384338	
-0.38385	
-0.38446	
-0.384705	
-0.384827	
-0.384949	
-0.384399	
-0.383423	
-0.383728	
-0.384766	
-0.384766	
-0.384766	
-0.385437	
-0.38501	
-0.385864	
-0.38562	
-0.386597	
-0.385071	
-0.385437	
-0.385071	
-0.385986	
-0.385925	
-0.386108	
-0.38623	
-0.38446	
-0.386169	
-0.385559	
-0.385803	
-0.384888	
-0.385254	
-0.383911	
-0.384827	
-0.384949	
-0.384644	
-0.385559	
-0.38385	
-0.385071	
-0.384094	
-0.385193	
-0.383484	
-0.384583	
-0.383789	
-0.385193	
-0.384766	
-0.384583	
-0.385437	
-0.385864	
-0.385315	
-0.385254	
-0.386414	
-0.385498	
-0.385498	
-0.38501	
-0.386719	
-0.386353	
-0.386536	
-0.386169	
-0.387207	
-0.386658	
-0.387146	
-0.387024	
-0.387207	
-0.387329	
-0.386658	
-0.387817	
-0.387085	
-0.387146	
-0.386963	
-0.387695	
-0.386719	
-0.388184	
-0.387146	
-0.387329	
-0.386414	
-0.387085	
-0.388	
-0.387695	
-0.387512	
-0.38623	
-0.387878	
-0.38739	
-0.38855	
-0.387573	
-0.387817	
-0.386475	
-0.387329	
-0.388	
-0.387451	
-0.387878	
-0.38623	
-0.387939	
-0.387451	
-0.387817	
-0.385986	
-0.387329	
-0.386353	
-0.387085	
-0.387085	
-0.38739	
-0.388062	
-0.387146	
-0.387878	
-0.386719	
-0.387695	
-0.386536	
-0.387207	
-0.38678	
-0.387756	
-0.387024	
-0.386902	
-0.387756	
-0.387207	
-0.387268	
-0.386902	
-0.387512	
-0.386292	
-0.386902	
-0.386658	
-0.387939	
-0.38739	
-0.387878	
-0.387268	
-0.386963	
-0.388062	
-0.387512	
-0.38739	
-0.38678	
-0.387634	
-0.387695	
-0.388855	
-0.388	
-0.388062	
-0.387451	
-0.388062	
-0.387573	
-0.387451	
-0.387146	
-0.385925	
-0.386475	
-0.386963	
-0.387207	
-0.386841	
-0.386902	
-0.385925	
-0.386841	
-0.386414	
-0.386902	
-0.38623	
-0.386108	
-0.385254	
-0.386414	
-0.386658	
-0.386536	
-0.386353	
-0.385986	
-0.387451	
-0.386536	
-0.387573	
-0.386658	
-0.386475	
-0.385437	
-0.387024	
-0.386719	
-0.38678	
-0.387573	
-0.387146	
-0.387756	
-0.387085	
-0.387939	
-0.386536	
-0.386719	
-0.385925	
-0.388062	
-0.386719	
-0.386902	
-0.387695	
-0.387268	
-0.387146	
-0.386475	
-0.387329	
-0.385986	
-0.387268	
-0.386292	
-0.388306	
-0.388	
-0.387878	
-0.387939	
-0.388123	
-0.388245	
-0.387756	
-0.388428	
-0.387451	
-0.38855	
-0.388062	
-0.390076	
-0.388916	
-0.389282	
-0.388916	
-0.389404	
-0.389282	
-0.389221	
-0.389404	
-0.388672	
-0.388123	
-0.387512	
-0.389221	
-0.389404	
-0.388977	
-0.388123	
-0.389832	
-0.389343	
-0.389771	
-0.38916	
-0.389099	
-0.389282	
-0.38916	
-0.389832	
-0.389526	
-0.390015	
-0.38855	
-0.390076	
-0.389526	
-0.390137	
-0.389587	
-0.389771	
-0.389099	
-0.389587	
-0.389526	
-0.389832	
-0.389526	
-0.38916	
-0.390625	
-0.389221	
-0.390381	
-0.388855	
-0.389771	
-0.388977	
-0.39032	
-0.389771	
-0.389709	
-0.390137	
-0.389221	
-0.388489	
-0.388123	
-0.388306	
-0.386841	
-0.387146	
-0.386536	
-0.387573	
-0.386902	
-0.387512	
-0.387329	
-0.386902	
-0.38678	
-0.387085	
-0.386719	
-0.386536	
-0.386658	
-0.386414	
-0.387207	
-0.387268	
-0.387268	
-0.388123	
-0.387756	
-0.387451	
-0.387817	
-0.388428	
-0.388123	
-0.388245	
-0.388184	
-0.389465	
-0.388733	
-0.38916	
-0.389648	
-0.390015	
-0.388916	
-0.389221	
-0.390137	
-0.389343	
-0.388855	
-0.389404	
-0.391052	
-0.389648	
-0.389526	
-0.389832	
-0.390198	
-0.389343	
-0.38916	
-0.389832	
-0.389587	
-0.389832	
-0.389648	
-0.390381	
-0.390503	
-0.390503	
-0.390015	
-0.391113	
-0.390503	
-0.390747	
-0.390808	
-0.391052	
-0.391174	
-0.390381	
-0.391052	
-0.39032	
-0.390625	
-0.390625	
-0.390808	
-0.390259	
-0.390564	
-0.390259	
-0.389771	
-0.388733	
-0.388977	
-0.389954	
-0.389709	
-0.389648	
-0.390198	
-0.389709	
-0.389282	
-0.389526	
-0.389099	
-0.389771	
-0.389771	
-0.389404	
-0.389343	
-0.389893	
-0.389404	
-0.389526	
-0.389587	
-0.389099	
-0.389709	
-0.389404	
-0.389893	
-0.389221	
-0.389893	
-0.389771	
-0.389343	
-0.389771	
-0.389709	
-0.38916	
-0.389038	
-0.390015	
-0.389343	
-0.389282	
-0.388367	
-0.389771	
-0.388916	
-0.388245	
-0.388184	
-0.389282	
-0.388123	
-0.388428	
-0.388489	
-0.388245	
-0.388062	
-0.386902	
-0.388306	
-0.388367	
-0.388245	
-0.388611	
-0.389587	
-0.388855	
-0.388794	
-0.388123	
-0.389038	
-0.389099	
-0.387817	
-0.389038	
-0.389038	
-0.389709	
-0.390442	
-0.389587	
-0.389587	
-0.389526	
-0.38916	
-0.389832	
-0.388977	
-0.388855	
-0.389832	
-0.389282	
-0.38916	
-0.390137	
-0.389038	
-0.388489	
-0.388489	
-0.389343	
-0.388672	
-0.388062	
-0.387817	
-0.389099	
-0.388123	
-0.387939	
-0.388123	
-0.387451	
-0.387573	
-0.386841	
-0.388489	
-0.387268	
-0.387756	
-0.386963	
-0.388489	
-0.388	
-0.388306	
-0.38855	
-0.388	
-0.388245	
-0.388367	
-0.389099	
-0.388367	
-0.388123	
-0.387695	
-0.388916	
-0.38855	
-0.388977	
-0.389038	
-0.388062	
-0.388123	
-0.388672	
-0.388733	
-0.388	
-0.388245	
-0.38739	
-0.389221	
-0.388489	
-0.388672	
-0.38855	
-0.388611	
-0.388794	
-0.388428	
-0.388367	
-0.388489	
-0.388367	
-0.387573	
-0.389221	
-0.388367	
-0.389099	
-0.388245	
-0.388672	
-0.388184	
-0.390015	
-0.388367	
-0.388672	
-0.388184	
-0.38855	
-0.389221	
-0.388428	
-0.389465	
-0.387512	
-0.388123	
-0.387817	
-0.390137	
-0.388306	
-0.38855	
-0.387512	
-0.387939	
-0.389038	
-0.388306	
-0.388306	
-0.387939	
-0.387634	
-0.386353	
-0.388489	
-0.387268	
-0.386841	
-0.386108	
-0.387878	
-0.388794	
-0.388672	
-0.389099	
-0.387878	
-0.388306	
-0.388245	
-0.389343	
-0.388855	
-0.388977	
-0.387939	
-0.389221	
-0.390076	
-0.389893	
-0.389465	
-0.388977	
-0.389099	
-0.388245	
-0.390076	
-0.389587	
-0.38916	
-0.388611	
-0.389709	
-0.39032	
-0.390137	
-0.389343	
-0.38855	
-0.388977	
-0.389343	
-0.390503	
-0.388916	
-0.388245	
-0.388062	
-0.389771	
-0.389465	
-0.389709	
-0.388733	
-0.388123	
-0.388184	
-0.389282	
-0.389771	
-0.389038	
-0.389099	
-0.388184	
-0.389404	
-0.389343	
-0.390503	
-0.38855	
-0.388184	
-0.388855	
-0.389404	
-0.389099	
-0.38855	
-0.388428	
-0.387756	
-0.38855	
-0.388611	
-0.389282	
-0.387573	
-0.387695	
-0.387329	
-0.388855	
-0.388245	
-0.386658	
-0.38623	
-0.386292	
-0.387695	
-0.386963	
-0.388916	
-0.387451	
-0.386719	
-0.385193	
-0.387512	
-0.387817	
-0.387024	
-0.38623	
-0.386414	
-0.387329	
-0.386414	
-0.386963	
-0.386353	
-0.386169	
-0.38446	
-0.386719	
-0.387512	
-0.386292	
-0.385437	
-0.385315	
-0.386719	
-0.386169	
-0.386047	
-0.385193	
-0.385864	
-0.385864	
-0.386414	
-0.386841	
-0.386353	
-0.384827	
-0.384827	
-0.386597	
-0.386292	
-0.385742	
-0.385376	
-0.385132	
-0.385864	
-0.385864	
-0.386536	
-0.386108	
-0.386414	
-0.386353	
-0.387512	
-0.388855	
-0.387573	
-0.386597	
-0.387817	
-0.38855	
-0.388367	
-0.388672	
-0.388794	
-0.388123	
-0.387451	
-0.388794	
-0.390686	
-0.388489	
-0.388245	
-0.388428	
-0.38855	
-0.388367	
-0.388428	
-0.387939	
-0.387756	
-0.386902	
-0.387573	
-0.389038	
-0.387634	
-0.387024	
-0.385986	
-0.387207	
-0.387207	
-0.386536	
-0.385925	
-0.385925	
-0.387207	
-0.386353	
-0.387146	
-0.386169	
-0.385925	
-0.383789	
-0.38678	
-0.385864	
-0.385925	
-0.385681	
-0.385864	
-0.386658	
-0.386475	
-0.385925	
-0.38562	
-0.38562	
-0.384155	
-0.385925	
-0.385193	
-0.385071	
-0.385132	
-0.384644	
-0.38501	
-0.385559	
-0.384888	
-0.384827	
-0.384277	
-0.384827	
-0.386047	
-0.385437	
-0.385254	
-0.384949	
-0.384705	
-0.385437	
-0.385803	
-0.385864	
-0.38562	
-0.385315	
-0.385559	
-0.386902	
-0.387085	
-0.385925	
-0.385254	
-0.385315	
-0.386169	
-0.386841	
-0.385742	
-0.385376	
-0.385742	
-0.38623	
-0.386414	
-0.387268	
-0.385803	
-0.385132	
-0.385742	
-0.386475	
-0.387451	
-0.386047	
-0.38562	
-0.385803	
-0.386719	
-0.386719	
-0.387024	
-0.385498	
-0.384644	
-0.385681	
-0.386963	
-0.387573	
-0.38623	
-0.385681	
-0.384705	
-0.386475	
-0.386292	
-0.387756	
-0.386536	
-0.386047	
-0.387756	
-0.388	
-0.388	
-0.387268	
-0.386353	
-0.385925	
-0.387146	
-0.387024	
-0.388184	
-0.386902	
-0.387146	
-0.386902	
-0.387329	
-0.387695	
-0.387024	
-0.386414	
-0.385437	
-0.386902	
-0.386536	
-0.387512	
-0.386169	
-0.386475	
-0.38678	
-0.386902	
-0.386963	
-0.386597	
-0.38623	
-0.385559	
-0.387146	
-0.386902	
-0.387756	
-0.386475	
-0.386719	
-0.387695	
-0.387573	
-0.387634	
-0.387085	
-0.387451	
-0.386597	
-0.388489	
-0.388062	
-0.389038	
-0.387756	
-0.388245	
-0.388855	
-0.389038	
-0.388306	
-0.387024	
-0.388	
-0.387512	
-0.38916	
-0.387939	
-0.388855	
-0.387573	
-0.388306	
-0.388672	
-0.389038	
-0.388245	
-0.388062	
-0.388245	
-0.388	
-0.38855	
-0.388733	
-0.389343	
-0.387207	
-0.388855	
-0.388855	
-0.389587	
-0.387878	
-0.388489	
-0.387634	
-0.387878	
-0.387756	
-0.388184	
-0.388489	
-0.387085	
-0.387939	
-0.387939	
-0.389099	
-0.387451	
-0.388306	
-0.387695	
-0.387939	
-0.388	
-0.388062	
-0.388	
-0.387939	
-0.388123	
-0.386841	
-0.38916	
-0.388062	
-0.387939	
-0.387268	
-0.389221	
-0.387939	
-0.388	
-0.387695	
-0.387878	
-0.38916	
-0.387268	
-0.38916	
-0.387817	
-0.388611	
-0.387146	
-0.388733	
-0.388367	
-0.388916	
-0.388184	
-0.388428	
-0.390015	
-0.388123	
-0.389587	
-0.388855	
-0.389038	
-0.388062	
-0.390198	
-0.388611	
-0.388916	
-0.388672	
-0.388611	
-0.388733	
-0.387268	
-0.388672	
-0.387756	
-0.387878	
-0.387024	
-0.388733	
-0.387817	
-0.388184	
-0.386902	
-0.38739	
-0.388489	
-0.387268	
-0.388245	
-0.387451	
-0.387695	
-0.386658	
-0.388062	
-0.387939	
-0.388062	
-0.386108	
-0.387939	
-0.389404	
-0.387756	
-0.388977	
-0.387756	
-0.388184	
-0.387695	
-0.388428	
-0.388672	
-0.388794	
-0.387634	
-0.388306	
-0.38916	
-0.388916	
-0.388977	
-0.387817	
-0.387878	
-0.387573	
-0.388428	
-0.387939	
-0.388428	
-0.387329	
-0.388428	
-0.389099	
-0.388977	
-0.389038	
-0.38855	
-0.388611	
-0.388855	
-0.389465	
-0.389709	
-0.389954	
-0.388916	
-0.389954	
-0.389893	
-0.390564	
-0.389771	
-0.389343	
-0.390015	
-0.390564	
-0.390564	
-0.39032	
-0.390747	
-0.389709	
-0.390198	
	
