E:\DOCUMENTS AND SETTINGS\JPOTAS\MEUS DOCUMENTOS\UFRJ\RSCI-BM 12 WK SERIES\070723-RSCI-BM-06\RSCI-BM-06-REMG\070723-RSCI-BM-REMG-0005.ACQ
0.025000 msec/sample
1 channel
Analog input
Volts
CH1	
2000	
-0.387024	
-0.38678	
-0.386841	
-0.386536	
-0.386414	
-0.387146	
-0.38678	
-0.386658	
-0.387268	
-0.386902	
-0.38678	
-0.387146	
-0.387573	
-0.387695	
-0.388	
-0.387634	
-0.388123	
-0.388794	
-0.388733	
-0.389282	
-0.389587	
-0.390625	
-0.390686	
-0.390747	
-0.391479	
-0.392029	
-0.391846	
-0.391968	
-0.3927	
-0.392029	
-0.392334	
-0.392761	
-0.392761	
-0.392578	
-0.393066	
-0.392944	
-0.392639	
-0.393433	
-0.393494	
-0.393127	
-0.392883	
-0.392395	
-0.392273	
-0.391968	
-0.392029	
-0.391418	
-0.39209	
-0.391724	
-0.391418	
-0.391235	
-0.391174	
-0.391541	
-0.391296	
-0.390686	
-0.39093	
-0.391113	
-0.391174	
-0.391174	
-0.391479	
-0.391113	
-0.391296	
-0.391357	
-0.391541	
-0.391479	
-0.390625	
-0.390869	
-0.390381	
-0.390381	
-0.390381	
-0.390381	
-0.390198	
-0.390259	
-0.390137	
-0.389771	
-0.390137	
-0.390259	
-0.390259	
-0.389893	
-0.390564	
-0.390625	
-0.390747	
-0.391235	
-0.390991	
-0.391296	
-0.391174	
-0.391113	
-0.391663	
-0.391357	
-0.392273	
-0.392639	
-0.392822	
-0.392334	
-0.392822	
-0.3927	
-0.393188	
-0.393982	
-0.393127	
-0.392883	
-0.393127	
-0.393066	
-0.393005	
-0.393616	
-0.393555	
-0.393311	
-0.393555	
-0.392883	
-0.392456	
-0.392456	
-0.392334	
-0.391846	
-0.391541	
-0.391418	
-0.391052	
-0.391602	
-0.391418	
-0.391785	
-0.391479	
-0.391357	
-0.391602	
-0.391357	
-0.391541	
-0.391785	
-0.392151	
-0.391846	
-0.391479	
-0.391663	
-0.391296	
-0.391541	
-0.39209	
-0.391785	
-0.39209	
-0.392395	
-0.392395	
-0.392578	
-0.392883	
-0.3927	
-0.392517	
-0.392151	
-0.39209	
-0.392212	
-0.391724	
-0.391602	
-0.391357	
-0.391235	
-0.391235	
-0.391174	
-0.390625	
-0.390869	
-0.390259	
-0.389709	
-0.389587	
-0.389893	
-0.389221	
-0.389038	
-0.388855	
-0.388916	
-0.389038	
-0.388855	
-0.389526	
-0.388977	
-0.389648	
-0.390137	
-0.389709	
-0.390381	
-0.390625	
-0.390442	
-0.390869	
-0.391113	
-0.391052	
-0.391174	
-0.391602	
-0.391846	
-0.392517	
-0.392212	
-0.392883	
-0.393005	
-0.394043	
-0.394104	
-0.394409	
-0.394714	
-0.395081	
-0.395264	
-0.39447	
-0.394836	
-0.395447	
-0.394958	
-0.394775	
-0.394775	
-0.394409	
-0.394226	
-0.394348	
-0.394165	
-0.394409	
-0.394043	
-0.393738	
-0.394165	
-0.393555	
-0.385864	
-0.380615	
-0.379089	
-0.378418	
-0.379089	
-0.379089	
-0.386902	
-0.391479	
-0.391846	
-0.391785	
-0.391541	
-0.392334	
-0.391113	
-0.390747	
-0.390808	
-0.391357	
-0.391235	
-0.390564	
-0.391052	
-0.390808	
-0.390686	
-0.390259	
-0.390442	
-0.390564	
-0.390991	
-0.391296	
-0.390808	
-0.39093	
-0.391113	
-0.390198	
-0.390991	
-0.390747	
-0.39032	
-0.391052	
-0.391174	
-0.391357	
-0.391418	
-0.391602	
-0.39209	
-0.392395	
-0.384583	
-0.379333	
-0.378845	
-0.378845	
-0.378967	
-0.379578	
-0.387817	
-0.393738	
-0.39502	
-0.395691	
-0.39563	
-0.395691	
-0.395935	
-0.395874	
-0.396545	
-0.396301	
-0.396851	
-0.397217	
-0.397217	
-0.3974	
-0.396973	
-0.397583	
-0.398499	
-0.398071	
-0.398438	
-0.398987	
-0.398743	
-0.399353	
-0.399658	
-0.399109	
-0.398987	
-0.399353	
-0.399658	
-0.400452	
-0.40033	
-0.400085	
-0.400574	
-0.400879	
-0.400574	
-0.400757	
-0.401306	
-0.401367	
-0.401062	
-0.401489	
-0.401855	
-0.402222	
-0.402405	
-0.402588	
-0.40271	
-0.403381	
-0.403748	
-0.403992	
-0.404236	
-0.405457	
-0.405396	
-0.405396	
-0.406189	
-0.406372	
-0.407227	
-0.407715	
-0.408081	
-0.407715	
-0.408447	
-0.409363	
-0.409424	
-0.410095	
-0.409302	
-0.410156	
-0.409912	
-0.409607	
-0.409424	
-0.409546	
-0.408936	
-0.409302	
-0.408875	
-0.408203	
-0.408508	
-0.408325	
-0.407043	
-0.406677	
-0.405945	
-0.404724	
-0.404236	
-0.403442	
-0.401855	
-0.400879	
-0.400574	
-0.399292	
-0.398987	
-0.398621	
-0.398743	
-0.398254	
-0.39856	
-0.399048	
-0.399597	
-0.400391	
-0.401978	
-0.403381	
-0.403748	
-0.405212	
-0.406189	
-0.406921	
-0.407959	
-0.409424	
-0.410461	
-0.411804	
-0.412659	
-0.413879	
-0.414734	
-0.415466	
-0.416992	
-0.418396	
-0.418823	
-0.419617	
-0.421082	
-0.421082	
-0.421692	
-0.423157	
-0.42334	
-0.423645	
-0.424866	
-0.425659	
-0.426819	
-0.428345	
-0.429504	
-0.430115	
-0.432007	
-0.433289	
-0.43457	
-0.436768	
-0.439087	
-0.440979	
-0.443054	
-0.445435	
-0.447571	
-0.450989	
-0.45343	
-0.455994	
-0.458618	
-0.460876	
-0.463379	
-0.464661	
-0.466675	
-0.468384	
-0.47052	
-0.471985	
-0.473083	
-0.474121	
-0.473877	
-0.473694	
-0.472595	
-0.471741	
-0.469849	
-0.46875	
-0.46698	
-0.465393	
-0.463745	
-0.46167	
-0.459717	
-0.457642	
-0.455688	
-0.454529	
-0.452881	
-0.451477	
-0.450073	
-0.448792	
-0.446899	
-0.444885	
-0.442566	
-0.440796	
-0.43927	
-0.437683	
-0.43634	
-0.43396	
-0.433228	
-0.431702	
-0.430481	
-0.429077	
-0.428589	
-0.42749	
-0.42627	
-0.42511	
-0.42334	
-0.422241	
-0.420349	
-0.41925	
-0.417908	
-0.416443	
-0.415283	
-0.41394	
-0.41272	
-0.41217	
-0.411804	
-0.411133	
-0.410156	
-0.409363	
-0.409058	
-0.408875	
-0.408325	
-0.408691	
-0.408813	
-0.408447	
-0.409424	
-0.410034	
-0.410034	
-0.411194	
-0.412231	
-0.412659	
-0.413147	
-0.414673	
-0.414917	
-0.416138	
-0.417786	
-0.417908	
-0.418884	
-0.419922	
-0.420837	
-0.421814	
-0.423096	
-0.424133	
-0.42511	
-0.425964	
-0.427185	
-0.42804	
-0.429016	
-0.429382	
-0.431274	
-0.431091	
-0.43219	
-0.4328	
-0.433289	
-0.433777	
-0.434998	
-0.435547	
-0.435608	
-0.437012	
-0.437683	
-0.438477	
-0.439148	
-0.440125	
-0.440613	
-0.440613	
-0.440674	
-0.440979	
-0.441223	
-0.441833	
-0.441528	
-0.442566	
-0.442627	
-0.443237	
-0.442688	
-0.442749	
-0.442505	
-0.441833	
-0.440674	
-0.440125	
-0.439392	
-0.437866	
-0.437195	
-0.436401	
-0.435059	
-0.434387	
-0.434021	
-0.432922	
-0.431946	
-0.431396	
-0.430176	
-0.428955	
-0.427734	
-0.426392	
-0.424805	
-0.423279	
-0.421814	
-0.419739	
-0.417908	
-0.416016	
-0.413818	
-0.411743	
-0.4104	
-0.408264	
-0.406677	
-0.405579	
-0.403381	
-0.401917	
-0.399719	
-0.398193	
-0.396301	
-0.394714	
-0.393494	
-0.39209	
-0.390564	
-0.389404	
-0.388123	
-0.386658	
-0.385681	
-0.385193	
-0.383972	
-0.383789	
-0.383301	
-0.382202	
-0.381592	
-0.381104	
-0.380005	
-0.379456	
-0.379639	
-0.378845	
-0.379456	
-0.37854	
-0.378967	
-0.379395	
-0.379089	
-0.379333	
-0.378906	
-0.379089	
-0.378662	
-0.378601	
-0.378174	
-0.377136	
-0.37793	
-0.377502	
-0.377136	
-0.377747	
-0.377625	
-0.377319	
-0.377563	
-0.377869	
-0.378052	
-0.377686	
-0.377686	
-0.37793	
-0.377563	
-0.37738	
-0.377991	
-0.37793	
-0.377441	
-0.378174	
-0.378479	
-0.377686	
-0.378296	
-0.378601	
-0.378357	
-0.37854	
-0.378906	
-0.378784	
-0.379028	
-0.379395	
-0.379333	
-0.379822	
-0.380066	
-0.380676	
-0.381592	
-0.381653	
-0.382446	
-0.382507	
-0.383057	
-0.383545	
-0.384644	
-0.385254	
-0.385864	
-0.385681	
-0.385681	
-0.385681	
-0.386902	
-0.387268	
-0.386353	
-0.386963	
-0.386902	
-0.386963	
-0.387024	
-0.387207	
-0.387451	
-0.386902	
-0.386597	
-0.387146	
-0.386719	
-0.386963	
-0.387085	
-0.386719	
-0.387146	
-0.38855	
-0.388062	
-0.387817	
-0.387695	
-0.387939	
-0.388306	
-0.388489	
-0.388855	
-0.38916	
-0.388855	
-0.388977	
-0.38916	
-0.388733	
-0.389343	
-0.389343	
-0.388855	
-0.388733	
-0.388977	
-0.389221	
-0.389221	
-0.388489	
-0.388672	
-0.388672	
-0.388672	
-0.388367	
-0.388916	
-0.388184	
-0.387756	
-0.387512	
-0.387573	
-0.387085	
-0.386536	
-0.386536	
-0.385498	
-0.385254	
-0.384399	
-0.383911	
-0.383057	
-0.382141	
-0.381409	
-0.380432	
-0.3797	
-0.379211	
-0.378479	
-0.377625	
-0.377075	
-0.376282	
-0.375732	
-0.375549	
-0.374207	
-0.373962	
-0.37323	
-0.372803	
-0.372498	
-0.372559	
-0.372681	
-0.372559	
-0.373413	
-0.373291	
-0.37323	
-0.374512	
-0.374878	
-0.375244	
-0.375732	
-0.376038	
-0.376404	
-0.37738	
-0.377563	
-0.379028	
-0.379517	
-0.379944	
-0.381531	
-0.382202	
-0.38269	
-0.383301	
-0.384155	
-0.38446	
-0.385437	
-0.385193	
-0.385925	
-0.386719	
-0.386414	
-0.386902	
-0.386963	
-0.387939	
-0.387939	
-0.387878	
-0.387756	
-0.387756	
-0.388611	
-0.388489	
-0.38855	
-0.388184	
-0.387878	
-0.387451	
-0.387573	
-0.38739	
-0.38678	
-0.386475	
-0.38678	
-0.387085	
-0.386658	
-0.386169	
-0.387024	
-0.386658	
-0.386414	
-0.386414	
-0.386902	
-0.386353	
-0.386597	
-0.386353	
-0.386902	
-0.387024	
-0.386353	
-0.385803	
-0.385315	
-0.385803	
-0.385437	
-0.384949	
-0.384949	
-0.384888	
-0.384705	
-0.38446	
-0.384766	
-0.384338	
-0.384888	
-0.384705	
-0.384033	
-0.385315	
-0.385193	
-0.384949	
-0.384766	
-0.38501	
-0.385498	
-0.385498	
-0.385437	
-0.38562	
-0.385559	
-0.385925	
-0.386597	
-0.386353	
-0.386536	
-0.387512	
-0.387878	
-0.387329	
-0.387756	
-0.387634	
-0.387634	
-0.388306	
-0.388611	
-0.388611	
-0.388123	
-0.388367	
-0.388733	
-0.388855	
-0.389038	
-0.38855	
-0.388733	
-0.389038	
-0.388855	
-0.388062	
-0.388245	
-0.388428	
-0.388123	
-0.388062	
-0.387634	
-0.388977	
-0.387939	
-0.388794	
-0.388977	
-0.388977	
-0.389099	
-0.389526	
-0.389099	
-0.388977	
-0.38916	
-0.389099	
-0.389771	
-0.390198	
-0.389832	
-0.390015	
-0.390564	
-0.39093	
-0.390503	
-0.390564	
-0.39032	
-0.390625	
-0.390808	
-0.390503	
-0.391113	
-0.390564	
-0.390625	
-0.390259	
-0.390137	
-0.390625	
-0.390076	
-0.390015	
-0.389587	
-0.389648	
-0.389099	
-0.388672	
-0.389221	
-0.388733	
-0.388184	
-0.388062	
-0.388062	
-0.387939	
-0.387939	
-0.388062	
-0.388428	
-0.388672	
-0.388611	
-0.389221	
-0.389648	
-0.389832	
-0.389954	
-0.390686	
-0.390747	
-0.390259	
-0.390625	
-0.390808	
-0.391602	
-0.391602	
-0.391846	
-0.391663	
-0.39209	
-0.3927	
-0.393005	
-0.393311	
-0.394226	
-0.394592	
-0.394836	
-0.394958	
-0.39447	
-0.39447	
-0.394897	
-0.394714	
-0.394592	
-0.394531	
-0.395325	
-0.394897	
-0.394531	
-0.394653	
-0.394592	
-0.394531	
-0.394409	
-0.394165	
-0.393677	
-0.394043	
-0.392883	
-0.3927	
-0.392883	
-0.392517	
-0.392395	
-0.391785	
-0.392395	
-0.392334	
-0.391785	
-0.391418	
-0.39209	
-0.391724	
-0.391296	
-0.391418	
-0.391296	
-0.391724	
-0.391846	
-0.391541	
-0.391602	
-0.392029	
-0.392029	
-0.39209	
-0.392517	
-0.392212	
-0.39209	
-0.391785	
-0.392395	
-0.392578	
-0.392273	
-0.391968	
-0.392578	
-0.393005	
-0.393127	
-0.392883	
-0.392578	
-0.392822	
-0.39325	
-0.393372	
-0.393738	
-0.393677	
-0.394409	
-0.394592	
-0.394653	
-0.394714	
-0.394836	
-0.394958	
-0.395081	
-0.395691	
-0.396179	
-0.396423	
-0.396912	
-0.396545	
-0.39679	
-0.396606	
-0.396912	
-0.397217	
-0.397095	
-0.397217	
-0.397278	
-0.396912	
-0.397156	
-0.397156	
-0.396912	
-0.39679	
-0.396423	
-0.396606	
-0.396851	
-0.397339	
-0.396851	
-0.396057	
-0.396851	
-0.396423	
-0.396301	
-0.39624	
-0.396484	
-0.396606	
-0.3974	
-0.396851	
-0.396606	
-0.397339	
-0.396362	
-0.397339	
-0.397217	
-0.396545	
-0.39679	
-0.397095	
-0.397156	
-0.396606	
-0.397034	
-0.396973	
-0.397034	
-0.397705	
-0.397095	
-0.3974	
-0.396851	
-0.397339	
-0.396606	
-0.396423	
-0.396423	
-0.397034	
-0.395874	
-0.396118	
-0.396301	
-0.396179	
-0.395752	
-0.395813	
-0.395813	
-0.395203	
-0.395264	
-0.395386	
-0.395142	
-0.394958	
-0.395142	
-0.394958	
-0.394531	
-0.395081	
-0.395081	
-0.394775	
-0.395508	
-0.395691	
-0.395691	
-0.39563	
-0.396667	
-0.396179	
-0.396179	
-0.396606	
-0.396851	
-0.396729	
-0.397217	
-0.397339	
-0.397461	
-0.397766	
-0.398071	
-0.398499	
-0.398926	
-0.399353	
-0.400024	
-0.39978	
-0.399719	
-0.399597	
-0.399109	
-0.399597	
-0.399475	
-0.398682	
-0.398682	
-0.399231	
-0.398438	
-0.398743	
-0.398621	
-0.397949	
-0.397766	
-0.39801	
-0.397705	
-0.397156	
-0.397034	
-0.396301	
-0.396118	
-0.396179	
-0.395325	
-0.394836	
-0.394531	
-0.394592	
-0.393921	
-0.393982	
-0.393677	
-0.39386	
-0.394043	
-0.393677	
-0.393005	
-0.393066	
-0.393616	
-0.392944	
-0.392639	
-0.392822	
-0.393311	
-0.393433	
-0.394043	
-0.394409	
-0.394165	
-0.394958	
-0.395142	
-0.395081	
-0.394531	
-0.394592	
-0.394775	
-0.395142	
-0.395203	
-0.394958	
-0.395508	
-0.394958	
-0.395447	
-0.395996	
-0.395935	
-0.395264	
-0.395935	
-0.395935	
-0.395447	
-0.39563	
-0.395935	
-0.395813	
-0.396118	
-0.395569	
-0.396545	
-0.39679	
-0.397217	
-0.39679	
-0.396179	
-0.396912	
-0.396973	
-0.396667	
-0.396423	
-0.39679	
-0.396057	
-0.396667	
-0.396729	
-0.39679	
-0.396179	
-0.396729	
-0.396057	
-0.395935	
-0.395752	
-0.395935	
-0.396179	
-0.395081	
-0.394104	
-0.394531	
-0.394043	
-0.394653	
-0.39447	
-0.394409	
-0.394287	
-0.394043	
-0.393921	
-0.393921	
-0.394104	
-0.394287	
-0.394165	
-0.394348	
-0.394592	
-0.394592	
-0.394104	
-0.394531	
-0.39502	
-0.395386	
-0.395752	
-0.395813	
-0.395874	
-0.39563	
-0.395691	
-0.395447	
-0.395447	
-0.395752	
-0.395996	
-0.395752	
-0.396118	
-0.395935	
-0.395508	
-0.395508	
-0.395264	
-0.395325	
-0.395508	
-0.395996	
-0.395386	
-0.39502	
-0.394958	
-0.395081	
-0.394836	
-0.394958	
-0.394775	
-0.39447	
-0.394897	
-0.395081	
-0.39502	
-0.39502	
-0.395203	
-0.395752	
-0.395142	
-0.395447	
-0.395691	
-0.396179	
-0.396057	
-0.396606	
-0.396851	
-0.396912	
-0.397278	
-0.397461	
-0.397949	
-0.397583	
-0.398193	
-0.397949	
-0.398254	
-0.397827	
-0.397949	
-0.397644	
-0.398071	
-0.397644	
-0.3974	
-0.397156	
-0.397156	
-0.396423	
-0.396729	
-0.396118	
-0.396301	
-0.396301	
-0.396118	
-0.39563	
-0.394775	
-0.395142	
-0.394653	
-0.394104	
-0.39386	
-0.394104	
-0.392944	
-0.393005	
-0.3927	
-0.3927	
-0.392334	
-0.392334	
-0.392395	
-0.39209	
-0.392334	
-0.392029	
-0.391968	
-0.3927	
-0.392273	
-0.392395	
-0.392639	
-0.392944	
-0.393005	
-0.393311	
-0.393616	
-0.393555	
-0.393982	
-0.394592	
-0.394409	
-0.394714	
-0.395508	
-0.395081	
-0.39563	
-0.395935	
-0.395813	
-0.39624	
-0.396057	
-0.397156	
-0.396484	
-0.396118	
-0.396729	
-0.397156	
-0.396301	
-0.396484	
-0.397034	
-0.39679	
-0.396484	
-0.396423	
-0.396545	
-0.397156	
-0.396545	
-0.396606	
-0.396484	
-0.396851	
-0.396729	
-0.396667	
-0.395935	
-0.396423	
-0.396606	
-0.396362	
-0.396301	
-0.396301	
-0.396179	
-0.396118	
-0.396118	
-0.39624	
-0.395569	
-0.395447	
-0.39563	
-0.395386	
-0.394531	
-0.39502	
-0.395081	
-0.393982	
-0.393799	
-0.393188	
-0.393555	
-0.393555	
-0.394043	
-0.393127	
-0.393127	
-0.392761	
-0.3927	
-0.392578	
-0.393127	
-0.393738	
-0.393494	
-0.393372	
-0.393494	
-0.392944	
-0.393372	
-0.392883	
-0.393738	
-0.393616	
-0.393738	
-0.394287	
-0.393677	
-0.393616	
-0.393433	
-0.39386	
-0.393494	
-0.394104	
-0.393982	
-0.393982	
-0.393677	
-0.393494	
-0.393494	
-0.393311	
-0.394226	
-0.393677	
-0.39325	
-0.393494	
-0.393616	
-0.393433	
-0.393494	
-0.393188	
-0.393188	
-0.393066	
-0.393005	
-0.393372	
-0.393433	
-0.393555	
-0.393677	
-0.393494	
-0.393494	
-0.39325	
-0.394226	
-0.39447	
-0.394287	
-0.393982	
-0.394653	
-0.394897	
-0.394836	
-0.394653	
-0.394531	
-0.395447	
-0.395386	
-0.395325	
-0.395386	
-0.395691	
-0.395569	
-0.395813	
-0.396057	
-0.395874	
-0.395447	
-0.39502	
-0.395752	
-0.395325	
-0.394775	
-0.394958	
-0.394897	
-0.394531	
-0.394165	
-0.394409	
-0.394348	
-0.39386	
-0.393921	
-0.393616	
-0.393433	
-0.393127	
-0.393188	
-0.392517	
-0.392273	
-0.391968	
-0.392029	
-0.391602	
-0.391418	
-0.392151	
-0.391968	
-0.391724	
-0.391785	
-0.392273	
-0.392395	
-0.392395	
-0.392212	
-0.392639	
-0.392761	
-0.39325	
-0.393311	
-0.393555	
-0.39386	
-0.394714	
-0.39447	
-0.395386	
-0.396179	
-0.396484	
-0.396301	
-0.39679	
-0.396973	
-0.397217	
-0.397461	
-0.397583	
-0.397339	
-0.398193	
-0.398621	
-0.397705	
-0.398315	
-0.398376	
-0.39856	
-0.398438	
-0.398254	
-0.398865	
-0.398193	
-0.397827	
-0.397766	
-0.397339	
-0.397583	
-0.397583	
-0.397339	
-0.396606	
-0.39679	
-0.396912	
-0.396423	
-0.396484	
-0.396179	
-0.396118	
-0.396484	
-0.397095	
-0.396729	
-0.396362	
-0.39624	
-0.397156	
-0.396545	
-0.396606	
-0.396423	
-0.396729	
-0.396606	
-0.396606	
-0.396423	
-0.395752	
-0.39563	
-0.395569	
-0.395264	
-0.39624	
-0.395325	
-0.395203	
-0.39502	
-0.395691	
-0.39563	
-0.39563	
-0.395874	
-0.396179	
-0.396179	
-0.395874	
-0.396912	
-0.396545	
-0.396545	
-0.396729	
-0.396851	
-0.396912	
-0.397522	
-0.397461	
-0.398315	
-0.397644	
-0.398071	
-0.398621	
-0.398804	
-0.398193	
-0.398621	
-0.398682	
-0.398193	
-0.398193	
-0.398376	
-0.398315	
-0.398743	
-0.398804	
-0.398438	
-0.398926	
-0.397705	
-0.397339	
-0.397888	
-0.396912	
-0.397278	
-0.396545	
-0.396362	
-0.396851	
-0.396667	
-0.395874	
-0.396423	
-0.396545	
-0.396118	
-0.396179	
-0.396484	
-0.396423	
-0.397034	
-0.397095	
-0.396729	
-0.396851	
-0.397095	
-0.39624	
-0.396606	
-0.396667	
-0.397156	
-0.397461	
-0.397766	
-0.397705	
-0.397583	
-0.397766	
-0.397034	
-0.3974	
-0.397034	
-0.396667	
-0.396667	
-0.396851	
-0.39624	
-0.395874	
-0.396484	
-0.396057	
-0.39563	
-0.395447	
-0.395691	
-0.395203	
-0.394531	
-0.394775	
-0.394104	
-0.393799	
-0.393555	
-0.393982	
-0.393433	
-0.393677	
-0.394043	
-0.394104	
-0.394531	
-0.394592	
-0.39447	
-0.39502	
-0.395325	
-0.395264	
-0.395447	
-0.395935	
-0.39624	
-0.396545	
-0.396667	
-0.396729	
-0.39679	
-0.397217	
-0.397522	
-0.397705	
-0.397827	
-0.39856	
-0.399048	
-0.398865	
-0.399353	
-0.39978	
-0.400085	
-0.399597	
-0.400208	
-0.400146	
-0.399658	
-0.399597	
-0.399719	
-0.399414	
-0.398987	
-0.399292	
-0.398987	
-0.398804	
-0.398682	
-0.399231	
-0.398743	
-0.397949	
-0.397766	
-0.39801	
-0.39679	
-0.39679	
-0.396851	
-0.396606	
-0.396057	
-0.395813	
-0.395752	
-0.395508	
-0.396118	
-0.395203	
-0.395386	
-0.395508	
-0.395142	
-0.394958	
-0.394409	
-0.394958	
-0.395081	
-0.394958	
-0.394775	
-0.394836	
-0.394836	
-0.395081	
-0.394958	
-0.395142	
-0.395264	
-0.395447	
-0.395142	
-0.395325	
-0.395203	
-0.394348	
-0.39447	
-0.395569	
-0.39563	
-0.395935	
-0.396118	
-0.396118	
-0.396057	
-0.395996	
-0.396545	
-0.396423	
-0.39624	
-0.396606	
-0.396729	
-0.39679	
-0.397705	
-0.397766	
-0.398193	
-0.398071	
-0.397888	
-0.398132	
-0.398193	
-0.398865	
-0.398621	
-0.398621	
-0.398315	
-0.398193	
-0.398743	
-0.398682	
-0.398804	
-0.398621	
-0.398682	
-0.398315	
-0.398438	
-0.397949	
-0.398376	
-0.398315	
-0.397583	
-0.39801	
-0.397339	
-0.397156	
-0.397766	
-0.397583	
-0.397461	
-0.397583	
-0.397583	
-0.397522	
-0.397705	
-0.397705	
-0.397034	
-0.397949	
-0.397644	
-0.39856	
-0.397888	
-0.397644	
-0.398132	
-0.398071	
-0.397827	
-0.398438	
-0.398071	
-0.397949	
-0.398132	
-0.398499	
-0.398254	
-0.397949	
-0.397888	
-0.397522	
-0.397644	
-0.397034	
-0.397278	
-0.396851	
-0.396545	
-0.397156	
-0.396912	
-0.39679	
-0.396912	
-0.396423	
-0.396484	
-0.395691	
-0.395996	
-0.394958	
-0.395508	
-0.39624	
-0.395691	
-0.395142	
-0.395447	
-0.396057	
-0.395874	
-0.395874	
-0.395874	
-0.396362	
-0.396484	
-0.396729	
-0.396545	
-0.396912	
-0.396973	
-0.397156	
-0.397278	
-0.397583	
-0.3974	
-0.397644	
-0.397827	
-0.398926	
-0.398926	
-0.399353	
-0.399048	
-0.399597	
-0.399719	
-0.399414	
-0.399719	
-0.399719	
-0.399292	
-0.399109	
-0.399231	
-0.398804	
-0.398682	
-0.399048	
-0.398499	
-0.397949	
-0.398132	
-0.39801	
-0.397766	
-0.3974	
-0.397156	
-0.396545	
-0.395569	
-0.395996	
-0.395752	
-0.39502	
-0.394653	
-0.394592	
-0.394287	
-0.394226	
-0.393066	
-0.393066	
-0.393188	
-0.39325	
-0.392883	
-0.393311	
-0.392883	
-0.392883	
-0.393005	
-0.392578	
-0.392456	
-0.392822	
-0.392883	
-0.393005	
-0.393921	
-0.394043	
-0.39386	
-0.394043	
-0.394531	
-0.394531	
-0.394592	
-0.394104	
-0.394409	
-0.394531	
-0.394226	
-0.394104	
-0.394531	
-0.394836	
-0.394897	
-0.395081	
-0.395142	
-0.394897	
-0.39502	
-0.394836	
-0.394897	
-0.394714	
-0.394287	
-0.395142	
-0.395569	
-0.395386	
-0.395935	
-0.396057	
-0.395752	
-0.395508	
-0.395325	
-0.395569	
-0.39502	
-0.395447	
-0.395569	
-0.395935	
-0.395752	
-0.395203	
-0.395142	
-0.395325	
-0.394714	
-0.39563	
-0.394531	
-0.395081	
-0.394958	
-0.394836	
-0.393677	
-0.39386	
-0.393433	
-0.392883	
-0.393127	
-0.392578	
-0.392822	
-0.393494	
-0.392944	
-0.393005	
-0.392761	
-0.393005	
-0.393188	
-0.393066	
-0.393372	
-0.393311	
-0.393494	
-0.393677	
-0.393616	
-0.394043	
-0.394226	
-0.394104	
-0.394836	
-0.394043	
-0.39447	
-0.394531	
-0.394714	
-0.394775	
-0.394836	
-0.394348	
-0.394165	
-0.394653	
-0.394165	
-0.394043	
-0.394592	
-0.394531	
-0.394043	
-0.394348	
-0.394531	
-0.394653	
-0.393433	
-0.393555	
-0.393677	
-0.393799	
-0.393127	
-0.393311	
-0.393799	
-0.393127	
-0.393494	
-0.39325	
-0.393494	
-0.393799	
-0.393982	
-0.394287	
-0.39447	
-0.394409	
-0.395081	
-0.394836	
-0.394592	
-0.395569	
-0.395813	
-0.395325	
-0.396362	
-0.396545	
-0.396545	
-0.396545	
-0.397034	
-0.396973	
-0.396362	
-0.396912	
-0.397034	
-0.396057	
-0.39563	
-0.395996	
-0.395203	
-0.395264	
-0.394714	
-0.394897	
-0.394409	
-0.394287	
-0.394348	
-0.394348	
-0.393799	
-0.393311	
-0.393127	
-0.393066	
-0.392944	
-0.392761	
-0.391602	
-0.391479	
-0.391724	
-0.391296	
-0.390625	
-0.39093	
-0.390869	
-0.390259	
-0.390503	
-0.39093	
-0.390625	
-0.390808	
-0.390869	
-0.390564	
-0.390747	
-0.391174	
-0.391235	
-0.391113	
-0.391479	
-0.392151	
-0.392029	
-0.392029	
-0.393005	
-0.393494	
-0.393066	
-0.393311	
-0.393738	
-0.394043	
-0.393982	
-0.394409	
-0.394409	
-0.394836	
-0.394714	
-0.394531	
-0.394653	
-0.394958	
-0.395142	
-0.394897	
-0.394714	
-0.395447	
-0.395081	
-0.394836	
-0.395386	
-0.395142	
-0.39447	
-0.395325	
-0.394958	
-0.39447	
-0.394409	
-0.395081	
-0.39502	
-0.39502	
-0.394775	
-0.39447	
-0.394531	
-0.394653	
-0.394226	
-0.394653	
-0.394287	
-0.394043	
-0.394287	
-0.394287	
-0.393921	
-0.393677	
-0.393677	
-0.393311	
-0.393188	
-0.393127	
-0.393127	
-0.392273	
-0.391602	
-0.391907	
-0.391663	
-0.390808	
-0.391174	
-0.391541	
-0.391724	
-0.391907	
-0.391174	
-0.391418	
-0.390991	
-0.39093	
-0.391541	
-0.392212	
-0.391785	
-0.391907	
-0.391846	
-0.391541	
-0.391724	
-0.391724	
-0.392151	
-0.392273	
-0.39209	
-0.392761	
-0.392212	
-0.3927	
-0.392334	
-0.39209	
-0.391602	
-0.391724	
-0.39209	
-0.39209	
-0.392151	
-0.391785	
-0.391907	
-0.392151	
-0.39209	
-0.392029	
-0.39209	
-0.391296	
-0.391296	
-0.391907	
-0.391663	
-0.391663	
-0.391602	
-0.391479	
-0.391602	
-0.391968	
-0.391235	
-0.391846	
-0.39209	
-0.392029	
-0.392395	
-0.392578	
-0.392761	
-0.393188	
-0.392761	
-0.392883	
-0.393555	
-0.393494	
-0.392822	
-0.393616	
-0.39386	
-0.393555	
-0.393555	
-0.394104	
-0.393982	
-0.393433	
-0.394043	
-0.393372	
-0.393555	
-0.393188	
-0.393494	
-0.392883	
-0.392761	
-0.393127	
-0.392578	
-0.392578	
-0.392578	
-0.392212	
-0.391479	
-0.391724	
-0.391602	
-0.391357	
-0.391235	
-0.390747	
-0.390503	
	
