E:\DOCUMENTS AND SETTINGS\JPOTAS\MEUS DOCUMENTOS\UFRJ\RSCI-BM 12 WK SERIES\070723-RSCI-BM-06\RSCI-BM-06-REMG\070723-RSCI-BM-REMG-0006.ACQ
0.025000 msec/sample
1 channel
Analog input
Volts
CH1	
2000	
-0.387695	
-0.387878	
-0.388184	
-0.387939	
-0.388306	
-0.388367	
-0.388672	
-0.388855	
-0.389099	
-0.388855	
-0.389221	
-0.389099	
-0.388611	
-0.389709	
-0.389954	
-0.390198	
-0.39093	
-0.391235	
-0.391357	
-0.391724	
-0.392273	
-0.392578	
-0.3927	
-0.392578	
-0.3927	
-0.393127	
-0.393372	
-0.393738	
-0.393738	
-0.393677	
-0.393616	
-0.393982	
-0.39447	
-0.394287	
-0.39447	
-0.393616	
-0.393616	
-0.394165	
-0.394226	
-0.39386	
-0.393433	
-0.3927	
-0.393188	
-0.393127	
-0.392639	
-0.392334	
-0.3927	
-0.392334	
-0.39209	
-0.392395	
-0.39209	
-0.392273	
-0.392212	
-0.39209	
-0.391785	
-0.391541	
-0.391479	
-0.391235	
-0.391296	
-0.391235	
-0.391052	
-0.390625	
-0.390808	
-0.390869	
-0.390869	
-0.391052	
-0.390381	
-0.39032	
-0.390808	
-0.391357	
-0.390808	
-0.390869	
-0.391479	
-0.391541	
-0.391541	
-0.391785	
-0.391907	
-0.392212	
-0.392883	
-0.393005	
-0.3927	
-0.393066	
-0.393372	
-0.393127	
-0.393311	
-0.393433	
-0.393311	
-0.393433	
-0.393738	
-0.393738	
-0.393066	
-0.39325	
-0.393188	
-0.39386	
-0.393921	
-0.393799	
-0.394104	
-0.393677	
-0.394348	
-0.394592	
-0.394043	
-0.394287	
-0.394836	
-0.394836	
-0.394409	
-0.394714	
-0.394348	
-0.394348	
-0.394348	
-0.393677	
-0.394226	
-0.393921	
-0.393677	
-0.393677	
-0.393921	
-0.393188	
-0.392761	
-0.392517	
-0.392395	
-0.391724	
-0.391174	
-0.390747	
-0.390625	
-0.390503	
-0.390137	
-0.390137	
-0.390015	
-0.389771	
-0.389893	
-0.389343	
-0.389099	
-0.389404	
-0.389465	
-0.38916	
-0.389587	
-0.389771	
-0.389587	
-0.389709	
-0.389771	
-0.389587	
-0.389771	
-0.389954	
-0.389709	
-0.389771	
-0.389893	
-0.389404	
-0.389771	
-0.390442	
-0.390015	
-0.390198	
-0.390015	
-0.390259	
-0.390442	
-0.390259	
-0.39093	
-0.390991	
-0.39093	
-0.391602	
-0.391479	
-0.391968	
-0.392334	
-0.393372	
-0.393372	
-0.393738	
-0.394592	
-0.394653	
-0.394836	
-0.395691	
-0.39624	
-0.396973	
-0.396973	
-0.396301	
-0.39679	
-0.397095	
-0.397461	
-0.396667	
-0.396362	
-0.39679	
-0.397156	
-0.396484	
-0.395996	
-0.396423	
-0.395874	
-0.395447	
-0.395508	
-0.395142	
-0.394714	
-0.394775	
-0.39447	
-0.39386	
-0.394409	
-0.394531	
-0.394043	
-0.393738	
-0.394409	
-0.39386	
-0.393188	
-0.387878	
-0.383728	
-0.382568	
-0.38269	
-0.382141	
-0.382324	
-0.388977	
-0.393127	
-0.39325	
-0.39325	
-0.393738	
-0.393982	
-0.392761	
-0.393372	
-0.39325	
-0.393188	
-0.393127	
-0.392639	
-0.392517	
-0.392029	
-0.392822	
-0.392212	
-0.392761	
-0.393127	
-0.392761	
-0.392944	
-0.393127	
-0.393005	
-0.393188	
-0.392822	
-0.392761	
-0.392639	
-0.393005	
-0.393127	
-0.393066	
-0.393372	
-0.393433	
-0.392822	
-0.393188	
-0.393127	
-0.393311	
-0.393555	
-0.393921	
-0.394348	
-0.394287	
-0.393616	
-0.393555	
-0.394531	
-0.394165	
-0.394714	
-0.394958	
-0.395386	
-0.395264	
-0.395264	
-0.39563	
-0.395508	
-0.395996	
-0.395752	
-0.396484	
-0.396667	
-0.396851	
-0.397034	
-0.396851	
-0.396973	
-0.396545	
-0.396362	
-0.396484	
-0.396545	
-0.395874	
-0.395935	
-0.396667	
-0.39624	
-0.39624	
-0.396606	
-0.39624	
-0.396179	
-0.397034	
-0.397034	
-0.396667	
-0.396912	
-0.391846	
-0.387756	
-0.386597	
-0.386658	
-0.386902	
-0.387146	
-0.394409	
-0.398682	
-0.399658	
-0.400879	
-0.401245	
-0.401184	
-0.401611	
-0.401855	
-0.402161	
-0.402588	
-0.403076	
-0.403748	
-0.404602	
-0.405334	
-0.40564	
-0.406311	
-0.407471	
-0.40802	
-0.408325	
-0.408936	
-0.40979	
-0.410156	
-0.410828	
-0.411682	
-0.41272	
-0.413513	
-0.413818	
-0.413574	
-0.41394	
-0.41449	
-0.4151	
-0.414429	
-0.413818	
-0.413757	
-0.413574	
-0.411865	
-0.410767	
-0.409973	
-0.408203	
-0.406433	
-0.405457	
-0.404297	
-0.403137	
-0.403687	
-0.401855	
-0.401123	
-0.401001	
-0.400879	
-0.400452	
-0.401245	
-0.401794	
-0.402771	
-0.403564	
-0.404663	
-0.405334	
-0.406189	
-0.407471	
-0.408691	
-0.410034	
-0.411438	
-0.413086	
-0.41449	
-0.415039	
-0.416382	
-0.41748	
-0.419006	
-0.420227	
-0.420288	
-0.421936	
-0.423401	
-0.42334	
-0.424561	
-0.425598	
-0.426392	
-0.427246	
-0.428406	
-0.429932	
-0.431702	
-0.433044	
-0.434143	
-0.435913	
-0.437439	
-0.439514	
-0.441406	
-0.442993	
-0.444885	
-0.447021	
-0.449402	
-0.451294	
-0.454468	
-0.456848	
-0.458923	
-0.462036	
-0.46405	
-0.466309	
-0.467773	
-0.469727	
-0.470703	
-0.472412	
-0.47406	
-0.474854	
-0.475647	
-0.476196	
-0.476257	
-0.475403	
-0.474304	
-0.472839	
-0.471375	
-0.470154	
-0.469238	
-0.467773	
-0.466492	
-0.465271	
-0.464722	
-0.463257	
-0.462341	
-0.460876	
-0.459595	
-0.458435	
-0.457947	
-0.456116	
-0.454468	
-0.452942	
-0.451477	
-0.449158	
-0.447632	
-0.446533	
-0.444031	
-0.4422	
-0.440674	
-0.438782	
-0.437561	
-0.436035	
-0.434204	
-0.432617	
-0.431335	
-0.429688	
-0.427795	
-0.426636	
-0.425476	
-0.424072	
-0.422607	
-0.421692	
-0.420715	
-0.419495	
-0.418762	
-0.418152	
-0.41687	
-0.415894	
-0.415222	
-0.413574	
-0.412415	
-0.412476	
-0.411865	
-0.411804	
-0.411743	
-0.411255	
-0.411438	
-0.411499	
-0.410706	
-0.410889	
-0.410767	
-0.410583	
-0.410645	
-0.410889	
-0.411865	
-0.412231	
-0.413086	
-0.414063	
-0.415039	
-0.415955	
-0.41687	
-0.417847	
-0.419312	
-0.421387	
-0.422913	
-0.424133	
-0.426331	
-0.42865	
-0.429749	
-0.430847	
-0.432129	
-0.433105	
-0.434326	
-0.435547	
-0.437256	
-0.438599	
-0.440247	
-0.442383	
-0.444153	
-0.445496	
-0.446594	
-0.448486	
-0.448975	
-0.449829	
-0.450684	
-0.450928	
-0.451416	
-0.452515	
-0.451904	
-0.451782	
-0.451904	
-0.452209	
-0.451782	
-0.450928	
-0.450134	
-0.449341	
-0.448303	
-0.447388	
-0.445801	
-0.444397	
-0.442932	
-0.440857	
-0.438477	
-0.435669	
-0.433533	
-0.431396	
-0.429626	
-0.426819	
-0.425293	
-0.423523	
-0.422058	
-0.42041	
-0.419067	
-0.41803	
-0.415771	
-0.414063	
-0.41272	
-0.410706	
-0.408875	
-0.407471	
-0.406616	
-0.405151	
-0.404053	
-0.403015	
-0.402039	
-0.401123	
-0.39978	
-0.398499	
-0.3974	
-0.396729	
-0.395569	
-0.394409	
-0.393005	
-0.392273	
-0.390991	
-0.390076	
-0.389404	
-0.388916	
-0.388123	
-0.388123	
-0.387878	
-0.387085	
-0.386414	
-0.386658	
-0.386047	
-0.385681	
-0.385559	
-0.385986	
-0.384888	
-0.385193	
-0.385681	
-0.385559	
-0.385437	
-0.385559	
-0.385315	
-0.384949	
-0.385376	
-0.384949	
-0.384949	
-0.384827	
-0.384155	
-0.383789	
-0.38324	
-0.382629	
-0.381897	
-0.381409	
-0.380432	
-0.379883	
-0.379395	
-0.378113	
-0.378296	
-0.378723	
-0.378784	
-0.378601	
-0.378296	
-0.378357	
-0.378296	
-0.377686	
-0.377686	
-0.37793	
-0.377258	
-0.377136	
-0.37677	
-0.376831	
-0.377014	
-0.376709	
-0.377319	
-0.377441	
-0.377197	
-0.377563	
-0.377075	
-0.377319	
-0.377014	
-0.376343	
-0.37616	
-0.375977	
-0.375793	
-0.376221	
-0.375549	
-0.375854	
-0.375854	
-0.375793	
-0.375854	
-0.375732	
-0.374878	
-0.375122	
-0.375366	
-0.374023	
-0.373596	
-0.373169	
-0.372864	
-0.372437	
-0.371399	
-0.370972	
-0.370178	
-0.369141	
-0.368835	
-0.367859	
-0.367065	
-0.366882	
-0.366211	
-0.366272	
-0.366028	
-0.365784	
-0.365234	
-0.365662	
-0.366211	
-0.366089	
-0.365967	
-0.367432	
-0.368164	
-0.368591	
-0.368652	
-0.369568	
-0.369812	
-0.371155	
-0.37146	
-0.371826	
-0.372498	
-0.372864	
-0.37323	
-0.373901	
-0.374268	
-0.374512	
-0.375305	
-0.375305	
-0.375	
-0.375305	
-0.375122	
-0.375183	
-0.375305	
-0.375183	
-0.374695	
-0.375305	
-0.375427	
-0.375244	
-0.375488	
-0.375671	
-0.376648	
-0.377014	
-0.37738	
-0.37738	
-0.377502	
-0.376892	
-0.377747	
-0.378052	
-0.37854	
-0.379028	
-0.379578	
-0.3797	
-0.379395	
-0.3797	
-0.380005	
-0.380432	
-0.380676	
-0.380981	
-0.381348	
-0.380798	
-0.381531	
-0.382446	
-0.382141	
-0.38269	
-0.383179	
-0.383423	
-0.384033	
-0.384644	
-0.384583	
-0.385315	
-0.386169	
-0.386597	
-0.386841	
-0.387451	
-0.388794	
-0.388977	
-0.388855	
-0.389709	
-0.390381	
-0.390503	
-0.391296	
-0.391602	
-0.391968	
-0.392822	
-0.392944	
-0.392883	
-0.393433	
-0.393921	
-0.39447	
-0.394165	
-0.393738	
-0.393738	
-0.394348	
-0.393799	
-0.393616	
-0.392883	
-0.393066	
-0.392456	
-0.392395	
-0.392273	
-0.392395	
-0.392029	
-0.391785	
-0.391602	
-0.391724	
-0.391174	
-0.391113	
-0.390991	
-0.390747	
-0.390198	
-0.389771	
-0.389404	
-0.389099	
-0.388977	
-0.388916	
-0.38855	
-0.388367	
-0.388489	
-0.387756	
-0.387695	
-0.388123	
-0.387634	
-0.38739	
-0.387634	
-0.387268	
-0.386963	
-0.387268	
-0.386963	
-0.387329	
-0.387329	
-0.387329	
-0.387329	
-0.387573	
-0.387756	
-0.388	
-0.388	
-0.38855	
-0.388733	
-0.389038	
-0.388794	
-0.389648	
-0.389404	
-0.388794	
-0.388794	
-0.389648	
-0.389771	
-0.389404	
-0.389465	
-0.389465	
-0.389893	
-0.389832	
-0.389526	
-0.390015	
-0.390564	
-0.390015	
-0.389648	
-0.390381	
-0.390381	
-0.390503	
-0.390869	
-0.390808	
-0.390747	
-0.391418	
-0.391052	
-0.390442	
-0.390259	
-0.389893	
-0.389954	
-0.389709	
-0.389343	
-0.389343	
-0.389038	
-0.388672	
-0.388428	
-0.387573	
-0.387329	
-0.387207	
-0.38678	
-0.386414	
-0.386414	
-0.386108	
-0.386047	
-0.385925	
-0.385803	
-0.385437	
-0.386047	
-0.386169	
-0.38623	
-0.38623	
-0.38623	
-0.386353	
-0.386047	
-0.386414	
-0.38678	
-0.38678	
-0.386597	
-0.387329	
-0.387329	
-0.386597	
-0.386841	
-0.386841	
-0.387451	
-0.387756	
-0.387695	
-0.387573	
-0.388367	
-0.388672	
-0.388062	
-0.388062	
-0.388977	
-0.389221	
-0.389404	
-0.389771	
-0.389954	
-0.39032	
-0.391113	
-0.391541	
-0.392273	
-0.393188	
-0.39386	
-0.393616	
-0.394409	
-0.394775	
-0.395203	
-0.395691	
-0.396301	
-0.396423	
-0.396362	
-0.396545	
-0.396423	
-0.396606	
-0.396118	
-0.395935	
-0.396362	
-0.395935	
-0.395996	
-0.395874	
-0.396057	
-0.395691	
-0.394836	
-0.39502	
-0.394775	
-0.394958	
-0.394165	
-0.394897	
-0.395081	
-0.394958	
-0.39447	
-0.394348	
-0.394287	
-0.394226	
-0.394531	
-0.393982	
-0.394409	
-0.39386	
-0.393799	
-0.393677	
-0.393799	
-0.393555	
-0.393677	
-0.393799	
-0.393738	
-0.393799	
-0.393372	
-0.393188	
-0.393188	
-0.392944	
-0.393311	
-0.392883	
-0.3927	
-0.392761	
-0.392822	
-0.392822	
-0.393066	
-0.393921	
-0.393311	
-0.393494	
-0.393433	
-0.393311	
-0.39325	
-0.39325	
-0.393799	
-0.394165	
-0.39386	
-0.39325	
-0.394226	
-0.394226	
-0.394714	
-0.39447	
-0.394653	
-0.394958	
-0.395081	
-0.394775	
-0.39447	
-0.395325	
-0.395752	
-0.395447	
-0.396057	
-0.395752	
-0.395813	
-0.395874	
-0.395874	
-0.396545	
-0.396301	
-0.396667	
-0.396851	
-0.39679	
-0.396606	
-0.396423	
-0.396423	
-0.396912	
-0.396667	
-0.396484	
-0.396301	
-0.396729	
-0.396179	
-0.395142	
-0.394775	
-0.39502	
-0.394836	
-0.393799	
-0.394104	
-0.394287	
-0.393799	
-0.394287	
-0.39386	
-0.39386	
-0.393738	
-0.394165	
-0.394287	
-0.394653	
-0.39447	
-0.394714	
-0.394653	
-0.395203	
-0.395203	
-0.394775	
-0.395325	
-0.395447	
-0.395203	
-0.394592	
-0.395264	
-0.395081	
-0.394714	
-0.394775	
-0.394775	
-0.394897	
-0.395264	
-0.395081	
-0.394897	
-0.39502	
-0.395203	
-0.394531	
-0.394714	
-0.395264	
-0.395386	
-0.395142	
-0.39563	
-0.39563	
-0.396545	
-0.397034	
-0.397339	
-0.397827	
-0.398621	
-0.398804	
-0.399353	
-0.400269	
-0.400574	
-0.400635	
-0.401001	
-0.401184	
-0.401733	
-0.4021	
-0.402161	
-0.402222	
-0.401917	
-0.402039	
-0.401367	
-0.401489	
-0.401306	
-0.401367	
-0.40094	
-0.400391	
-0.400208	
-0.400085	
-0.400208	
-0.400024	
-0.399719	
-0.399841	
-0.398987	
-0.400024	
-0.399902	
-0.398987	
-0.399109	
-0.399231	
-0.398621	
-0.398315	
-0.398376	
-0.398499	
-0.398804	
-0.398132	
-0.397949	
-0.397705	
-0.397949	
-0.397522	
-0.396484	
-0.396057	
-0.39624	
-0.396057	
-0.395264	
-0.395203	
-0.394958	
-0.394592	
-0.394775	
-0.394775	
-0.39447	
-0.394409	
-0.394287	
-0.39447	
-0.394714	
-0.394958	
-0.394592	
-0.394348	
-0.394897	
-0.394653	
-0.394531	
-0.394775	
-0.394653	
-0.394348	
-0.394897	
-0.395874	
-0.395447	
-0.39563	
-0.39624	
-0.396057	
-0.395996	
-0.395874	
-0.395325	
-0.395874	
-0.39624	
-0.39624	
-0.396545	
-0.396301	
-0.396851	
-0.396851	
-0.39624	
-0.396484	
-0.397217	
-0.397644	
-0.397217	
-0.397644	
-0.397339	
-0.397278	
-0.3974	
-0.396912	
-0.397583	
-0.3974	
-0.397034	
-0.397278	
-0.397644	
-0.397278	
-0.396851	
-0.396973	
-0.39679	
-0.396362	
-0.396179	
-0.395935	
-0.395813	
-0.395508	
-0.395203	
-0.395447	
-0.395081	
-0.395203	
-0.395203	
-0.395264	
-0.394714	
-0.39502	
-0.39502	
-0.39502	
-0.394714	
-0.394836	
-0.394165	
-0.394714	
-0.39447	
-0.394226	
-0.39386	
-0.394165	
-0.394104	
-0.393921	
-0.39386	
-0.393616	
-0.393188	
-0.39386	
-0.393738	
-0.393433	
-0.394287	
-0.394226	
-0.393738	
-0.393921	
-0.394409	
-0.394226	
-0.394226	
-0.394775	
-0.394836	
-0.395203	
-0.395447	
-0.395996	
-0.396912	
-0.397278	
-0.397156	
-0.397034	
-0.397339	
-0.397644	
-0.397949	
-0.398071	
-0.398193	
-0.398376	
-0.398682	
-0.398438	
-0.398499	
-0.398499	
-0.398193	
-0.398071	
-0.398376	
-0.398499	
-0.398254	
-0.397766	
-0.398254	
-0.397705	
-0.398071	
-0.39801	
-0.398071	
-0.397583	
-0.397949	
-0.397583	
-0.397583	
-0.397949	
-0.397522	
-0.397095	
-0.397461	
-0.397156	
-0.396667	
-0.396851	
-0.396667	
-0.396484	
-0.396545	
-0.395935	
-0.395813	
-0.395752	
-0.395203	
-0.39502	
-0.393738	
-0.392761	
-0.392578	
-0.392517	
-0.392029	
-0.391663	
-0.391174	
-0.390747	
-0.391357	
-0.391052	
-0.39093	
-0.39093	
-0.391052	
-0.391602	
-0.391479	
-0.391296	
-0.391296	
-0.391541	
-0.391724	
-0.392151	
-0.392517	
-0.392395	
-0.392395	
-0.3927	
-0.392761	
-0.392944	
-0.3927	
-0.393433	
-0.393982	
-0.393799	
-0.393677	
-0.39325	
-0.393555	
-0.394287	
-0.393677	
-0.394043	
-0.394592	
-0.394592	
-0.394287	
-0.393555	
-0.393738	
-0.394226	
-0.39447	
-0.394409	
-0.394775	
-0.394592	
-0.394836	
-0.395386	
-0.394836	
-0.394775	
-0.394592	
-0.394775	
-0.395081	
-0.395264	
-0.395203	
-0.395447	
-0.395569	
-0.395325	
-0.395325	
-0.395325	
-0.39502	
-0.395142	
-0.395203	
-0.395325	
-0.395142	
-0.394958	
-0.394592	
-0.394653	
-0.394348	
-0.394287	
-0.394653	
-0.394287	
-0.394104	
-0.393982	
-0.394226	
-0.393921	
-0.394043	
-0.393982	
-0.393372	
-0.393494	
-0.393921	
-0.393921	
-0.393372	
-0.393311	
-0.392944	
-0.393494	
-0.393555	
-0.393494	
-0.393555	
-0.393738	
-0.394104	
-0.393433	
-0.393433	
-0.393921	
-0.394104	
-0.394165	
-0.394653	
-0.395569	
-0.395996	
-0.39624	
-0.396545	
-0.396729	
-0.396851	
-0.397156	
-0.397217	
-0.397766	
-0.397644	
-0.397705	
-0.39801	
-0.398071	
-0.397949	
-0.397766	
-0.39801	
-0.398132	
-0.3974	
-0.397461	
-0.3974	
-0.397766	
-0.397461	
-0.397095	
-0.397034	
-0.397522	
-0.397156	
-0.397217	
-0.397156	
-0.396973	
-0.396973	
-0.396912	
-0.39679	
-0.397095	
-0.397095	
-0.396423	
-0.39679	
-0.396912	
-0.396606	
-0.39563	
-0.395752	
-0.395874	
-0.395142	
-0.395569	
-0.394775	
-0.394836	
-0.394653	
-0.393677	
-0.392761	
-0.3927	
-0.391907	
-0.391174	
-0.390564	
-0.390625	
-0.389771	
-0.38916	
-0.389343	
-0.389465	
-0.388672	
-0.389465	
-0.389648	
-0.388611	
-0.388672	
-0.38916	
-0.388855	
-0.388977	
-0.389404	
-0.389465	
-0.389832	
-0.39032	
-0.390442	
-0.390808	
-0.390503	
-0.390442	
-0.390503	
-0.391418	
-0.391174	
-0.391052	
-0.391479	
-0.391602	
-0.391724	
-0.391113	
-0.391113	
-0.391479	
-0.391968	
-0.392273	
-0.392395	
-0.39209	
-0.392517	
-0.392944	
-0.393494	
-0.393982	
-0.394348	
-0.395142	
-0.395386	
-0.395447	
-0.395386	
-0.39563	
-0.39563	
-0.395874	
-0.396423	
-0.396423	
-0.396545	
-0.396912	
-0.396851	
-0.396851	
-0.39679	
-0.396912	
-0.397278	
-0.397522	
-0.397095	
-0.396912	
-0.397217	
-0.397217	
-0.39624	
-0.395142	
-0.395813	
-0.395752	
-0.395996	
-0.39563	
-0.39563	
-0.395447	
-0.395508	
-0.395142	
-0.394775	
-0.394958	
-0.395264	
-0.395081	
-0.394897	
-0.394043	
-0.394287	
-0.394531	
-0.393921	
-0.39386	
-0.394104	
-0.39447	
-0.393738	
-0.393921	
-0.39386	
-0.393738	
-0.393494	
-0.393677	
-0.393799	
-0.394043	
-0.393494	
-0.39386	
-0.394043	
-0.394531	
-0.394409	
-0.394714	
-0.394775	
-0.394592	
-0.395264	
-0.395447	
-0.395508	
-0.395569	
-0.396179	
-0.396362	
-0.39624	
-0.396606	
-0.396729	
-0.396057	
-0.396118	
-0.396545	
-0.396057	
-0.396118	
-0.396545	
-0.39624	
-0.396545	
-0.397461	
-0.396423	
-0.396484	
-0.396667	
-0.396606	
-0.396729	
-0.397156	
-0.397095	
-0.397034	
-0.397461	
-0.39679	
-0.397156	
-0.3974	
-0.397217	
-0.397034	
-0.397278	
-0.396851	
-0.39679	
-0.396729	
-0.396545	
-0.396362	
-0.39563	
-0.395508	
-0.395325	
-0.394714	
-0.39447	
-0.394287	
-0.393311	
-0.393311	
-0.392761	
-0.392883	
-0.392517	
-0.392212	
-0.391907	
-0.39209	
-0.392395	
-0.392151	
-0.392029	
-0.392212	
-0.392395	
-0.392517	
-0.391846	
-0.391724	
-0.392395	
-0.392578	
-0.392395	
-0.392639	
-0.392334	
-0.393188	
-0.392334	
-0.391602	
-0.392517	
-0.392822	
-0.392761	
-0.392517	
-0.392517	
-0.393127	
-0.393127	
-0.392822	
-0.392944	
-0.393372	
-0.393616	
-0.394226	
-0.394165	
-0.394226	
-0.395081	
-0.395447	
-0.395569	
-0.396545	
-0.39679	
-0.3974	
-0.397827	
-0.397888	
-0.398132	
-0.398865	
-0.399353	
-0.399353	
-0.39917	
-0.399597	
-0.399414	
-0.399658	
-0.400269	
-0.398987	
-0.39917	
-0.398804	
-0.399292	
-0.398743	
-0.398926	
-0.399109	
-0.398499	
-0.397705	
-0.397278	
-0.397278	
-0.396912	
-0.397156	
-0.396973	
-0.396851	
-0.397217	
-0.396423	
-0.396423	
-0.396301	
-0.396545	
-0.396118	
-0.396545	
-0.39624	
-0.396179	
-0.396179	
-0.395874	
-0.395386	
-0.395935	
-0.395447	
-0.395386	
-0.395508	
-0.39563	
-0.395081	
-0.395325	
-0.395142	
-0.395142	
-0.395142	
-0.394653	
-0.394409	
-0.394348	
-0.394287	
-0.394897	
-0.395081	
-0.395325	
-0.394958	
-0.394958	
-0.395142	
-0.395203	
-0.394531	
-0.394714	
-0.394958	
-0.395203	
-0.395508	
-0.395691	
-0.395203	
-0.395569	
-0.39502	
-0.395386	
-0.39624	
-0.395569	
-0.395874	
-0.395447	
-0.395508	
-0.396301	
-0.395996	
-0.395508	
-0.39624	
-0.396484	
-0.395813	
-0.396118	
-0.396118	
-0.395752	
-0.396179	
-0.395935	
-0.395935	
-0.396484	
-0.395752	
-0.395996	
-0.395996	
-0.395752	
-0.395569	
-0.394897	
-0.395325	
-0.395264	
-0.394531	
-0.393555	
-0.393555	
-0.39325	
-0.39325	
-0.392639	
-0.392151	
-0.391907	
-0.392212	
-0.391724	
-0.391296	
-0.391357	
-0.391357	
-0.391174	
-0.391357	
-0.391602	
-0.391663	
-0.391724	
-0.391846	
-0.392212	
-0.391907	
-0.391907	
-0.391724	
-0.391968	
-0.392334	
-0.391968	
-0.392212	
-0.391907	
-0.392273	
-0.392517	
-0.392212	
-0.392334	
-0.392883	
-0.392334	
-0.392456	
-0.392456	
-0.392517	
-0.393005	
-0.393188	
-0.393433	
-0.393311	
-0.393921	
-0.394348	
-0.394409	
-0.395447	
-0.395874	
-0.39624	
-0.396912	
-0.3974	
-0.397827	
-0.39801	
-0.398682	
-0.399597	
-0.399231	
-0.399963	
-0.400757	
-0.400391	
-0.400391	
-0.401123	
-0.400696	
-0.400452	
-0.401123	
-0.40033	
-0.400208	
-0.400024	
-0.400024	
-0.399536	
-0.398926	
-0.398438	
-0.398438	
-0.398621	
-0.39801	
-0.398132	
-0.397766	
-0.398315	
-0.398438	
-0.39801	
-0.397888	
-0.397888	
-0.397461	
-0.397034	
-0.396912	
-0.396545	
-0.396729	
-0.39679	
-0.397095	
-0.396851	
-0.396057	
-0.395935	
-0.395142	
-0.394897	
-0.394897	
-0.394714	
-0.393494	
-0.393555	
-0.393616	
-0.393433	
-0.392639	
-0.392822	
-0.392761	
-0.393066	
-0.392395	
-0.392639	
-0.392517	
-0.393494	
-0.392639	
-0.392212	
-0.39209	
-0.393066	
-0.392822	
-0.392395	
-0.393066	
-0.393127	
-0.393066	
-0.393066	
-0.392822	
-0.393188	
-0.393555	
-0.394043	
-0.39325	
-0.394165	
-0.394104	
-0.393555	
-0.39386	
-0.394165	
-0.394592	
-0.394287	
-0.394653	
-0.394531	
-0.394287	
-0.394287	
-0.394653	
-0.395264	
-0.395203	
-0.395264	
-0.395081	
-0.395386	
-0.395569	
-0.394714	
-0.394775	
-0.395142	
-0.395203	
-0.39502	
-0.395508	
-0.39502	
-0.394897	
-0.394958	
-0.394775	
-0.394104	
-0.394226	
-0.394104	
-0.393738	
-0.39386	
-0.393433	
-0.39325	
-0.392883	
-0.392517	
-0.392761	
-0.393127	
-0.392517	
-0.39325	
-0.393188	
-0.392151	
-0.392395	
-0.3927	
-0.392822	
-0.392639	
-0.392395	
-0.392578	
-0.392151	
-0.391907	
-0.391846	
-0.391846	
-0.39209	
-0.391968	
-0.391785	
-0.392029	
-0.391724	
-0.391235	
-0.391235	
-0.391357	
-0.391479	
-0.391541	
-0.39209	
-0.392151	
-0.392334	
-0.392273	
-0.392334	
-0.393005	
-0.39386	
-0.393616	
-0.393982	
-0.394897	
-0.394958	
-0.395081	
-0.395935	
-0.395935	
-0.395752	
-0.396057	
-0.396301	
-0.396423	
-0.396484	
-0.396545	
-0.39679	
-0.396667	
-0.396362	
-0.396973	
-0.396362	
-0.396545	
-0.396484	
-0.395813	
-0.395691	
-0.395996	
-0.395935	
-0.39624	
-0.396118	
-0.395752	
-0.395935	
-0.396118	
-0.395874	
-0.39624	
-0.395508	
-0.395691	
-0.395569	
-0.395142	
-0.395508	
-0.395203	
-0.394348	
-0.39447	
-0.394775	
-0.394043	
-0.394043	
-0.394287	
-0.393677	
-0.393066	
-0.392761	
-0.391968	
-0.391418	
-0.390747	
-0.390625	
-0.389893	
-0.389404	
-0.389343	
-0.388977	
-0.389038	
-0.388794	
-0.389099	
-0.388611	
-0.389038	
-0.389771	
-0.389465	
-0.389221	
-0.389221	
-0.389404	
-0.389587	
-0.390564	
-0.390747	
-0.390564	
-0.390564	
-0.390808	
-0.391174	
-0.391357	
-0.391235	
-0.391174	
-0.391602	
-0.391479	
-0.391602	
-0.391174	
-0.391663	
-0.392456	
-0.392456	
-0.392212	
-0.392212	
-0.392273	
-0.39209	
-0.392395	
-0.392212	
-0.392273	
-0.3927	
-0.393188	
-0.392944	
-0.393005	
-0.392334	
-0.392822	
-0.393494	
-0.393066	
-0.39325	
-0.39325	
-0.39325	
-0.393738	
-0.393433	
-0.393616	
-0.393921	
-0.394043	
-0.393555	
-0.39386	
-0.393921	
-0.393555	
-0.393372	
-0.393311	
-0.393494	
-0.393494	
-0.393066	
-0.393188	
-0.393188	
-0.392761	
-0.392883	
-0.392517	
-0.392639	
-0.392517	
-0.392151	
-0.392273	
-0.392151	
-0.392517	
-0.391724	
-0.392334	
-0.392273	
-0.391968	
-0.392029	
-0.391846	
-0.391907	
-0.39209	
-0.392334	
-0.391541	
-0.392029	
-0.392395	
-0.392273	
-0.392334	
-0.392639	
-0.392578	
-0.392395	
-0.392883	
-0.393372	
-0.39386	
-0.394348	
-0.395386	
-0.394409	
-0.394958	
-0.395874	
-0.396118	
-0.395874	
-0.395874	
-0.396057	
-0.396667	
-0.396912	
-0.39679	
-0.396851	
-0.396729	
-0.39624	
-0.396484	
-0.396667	
-0.396118	
-0.395996	
-0.395996	
-0.395935	
-0.39624	
-0.395813	
-0.395569	
-0.39624	
-0.395874	
-0.395447	
-0.395874	
-0.395813	
-0.39563	
-0.395813	
-0.395264	
-0.395935	
-0.395508	
-0.395264	
-0.395325	
-0.395142	
-0.394531	
-0.394775	
-0.394043	
-0.394104	
-0.394287	
-0.393616	
-0.393005	
-0.393616	
-0.392395	
-0.391785	
-0.391357	
-0.390015	
-0.389648	
-0.38916	
-0.388611	
-0.388428	
-0.387878	
-0.388184	
-0.388123	
-0.387695	
-0.387634	
-0.387817	
-0.387207	
-0.387268	
-0.387695	
-0.388245	
-0.387695	
-0.388	
-0.388855	
-0.388367	
-0.389038	
-0.389404	
-0.388916	
-0.389038	
-0.389465	
	
