E:\DOCUMENTS AND SETTINGS\JPOTAS\MEUS DOCUMENTOS\UFRJ\RSCI-BM 12 WK SERIES\070723-RSCI-BM-06\RSCI-BM-06-REMG\070723-RSCI-BM-REMG-0011.ACQ
0.025000 msec/sample
1 channel
Analog input
Volts
CH1	
2000	
-0.388306	
-0.388123	
-0.386841	
-0.389038	
-0.387939	
-0.38739	
-0.386902	
-0.38678	
-0.387207	
-0.38562	
-0.387024	
-0.385559	
-0.385681	
-0.384827	
-0.385925	
-0.38501	
-0.384583	
-0.38385	
-0.384888	
-0.385803	
-0.383728	
-0.385254	
-0.384216	
-0.384216	
-0.383118	
-0.384216	
-0.383423	
-0.383911	
-0.382446	
-0.384277	
-0.384705	
-0.383972	
-0.385132	
-0.384033	
-0.385071	
-0.384521	
-0.385315	
-0.385132	
-0.385193	
-0.384216	
-0.38562	
-0.386475	
-0.386536	
-0.386169	
-0.385071	
-0.386047	
-0.38562	
-0.38739	
-0.387573	
-0.388184	
-0.387756	
-0.388489	
-0.389526	
-0.389954	
-0.389221	
-0.388733	
-0.389709	
-0.389404	
-0.389893	
-0.390686	
-0.391113	
-0.390686	
-0.391235	
-0.391479	
-0.392456	
-0.391113	
-0.39032	
-0.390503	
-0.39093	
-0.39093	
-0.391418	
-0.391113	
-0.390503	
-0.390625	
-0.390747	
-0.391418	
-0.390259	
-0.389465	
-0.390015	
-0.39032	
-0.390259	
-0.389709	
-0.390808	
-0.389832	
-0.390137	
-0.389893	
-0.39032	
-0.389404	
-0.388855	
-0.38916	
-0.389893	
-0.389587	
-0.388794	
-0.390076	
-0.389343	
-0.388916	
-0.388794	
-0.390015	
-0.389221	
-0.387817	
-0.388794	
-0.389832	
-0.388794	
-0.389343	
-0.389526	
-0.389832	
-0.389404	
-0.389282	
-0.390564	
-0.389526	
-0.388733	
-0.388855	
-0.389954	
-0.388733	
-0.389893	
-0.389099	
-0.389648	
-0.389954	
-0.389038	
-0.391174	
-0.389648	
-0.388977	
-0.389465	
-0.39032	
-0.389282	
-0.389832	
-0.389526	
-0.389465	
-0.389954	
-0.389343	
-0.390808	
-0.388611	
-0.387756	
-0.387817	
-0.389282	
-0.387878	
-0.388	
-0.387878	
-0.38739	
-0.387573	
-0.387024	
-0.388855	
-0.386841	
-0.385803	
-0.386169	
-0.387695	
-0.386475	
-0.386414	
-0.386414	
-0.386353	
-0.386414	
-0.385742	
-0.387329	
-0.386108	
-0.384949	
-0.384277	
-0.386658	
-0.386169	
-0.385986	
-0.385803	
-0.386169	
-0.386658	
-0.38562	
-0.387085	
-0.38678	
-0.386108	
-0.384766	
-0.387207	
-0.38739	
-0.387268	
-0.385986	
-0.386902	
-0.387573	
-0.386475	
-0.387268	
-0.387146	
-0.386841	
-0.38562	
-0.387878	
-0.38739	
-0.387146	
-0.387085	
-0.388245	
-0.388123	
-0.387268	
-0.388428	
-0.388245	
-0.388367	
-0.388489	
-0.389343	
-0.389465	
-0.389099	
-0.388855	
-0.389343	
-0.389954	
-0.388916	
-0.389587	
-0.385742	
-0.382507	
-0.381042	
-0.382263	
-0.38147	
-0.382019	
-0.384888	
-0.388855	
-0.390442	
-0.389404	
-0.390259	
-0.390381	
-0.391052	
-0.390625	
-0.391602	
-0.391663	
-0.391663	
-0.391113	
-0.392151	
-0.392517	
-0.391296	
-0.392517	
-0.392273	
-0.391907	
-0.392578	
-0.392456	
-0.393188	
-0.392273	
-0.391663	
-0.392273	
-0.393066	
-0.392273	
-0.392517	
-0.392151	
-0.391907	
-0.3927	
-0.391907	
-0.391968	
-0.391846	
-0.391602	
-0.391846	
-0.392639	
-0.390869	
-0.391418	
-0.391296	
-0.390747	
-0.391724	
-0.39093	
-0.390808	
-0.391052	
-0.391357	
-0.39093	
-0.391296	
-0.391296	
-0.391174	
-0.391235	
-0.391113	
-0.391479	
-0.390564	
-0.390625	
-0.390808	
-0.390747	
-0.390747	
-0.391785	
-0.392761	
-0.391113	
-0.39093	
-0.391663	
-0.392822	
-0.391602	
-0.392334	
-0.39209	
-0.392212	
-0.392822	
-0.393127	
-0.394531	
-0.392578	
-0.39209	
-0.392578	
-0.39386	
-0.393982	
-0.393677	
-0.394348	
-0.393921	
-0.394409	
-0.394409	
-0.394592	
-0.394775	
-0.39325	
-0.393494	
-0.394958	
-0.39624	
-0.396179	
-0.396667	
-0.397339	
-0.397766	
-0.397583	
-0.398315	
-0.398743	
-0.399353	
-0.40094	
-0.401428	
-0.401428	
-0.401245	
-0.402588	
-0.403564	
-0.404358	
-0.405396	
-0.404114	
-0.403442	
-0.40448	
-0.404907	
-0.405212	
-0.404419	
-0.405518	
-0.405334	
-0.405518	
-0.404907	
-0.406128	
-0.404785	
-0.403015	
-0.40271	
-0.402222	
-0.401184	
-0.400085	
-0.398193	
-0.396057	
-0.396423	
-0.396179	
-0.394531	
-0.393738	
-0.393372	
-0.393066	
-0.392639	
-0.392761	
-0.393311	
-0.393921	
-0.395325	
-0.396362	
-0.39856	
-0.399109	
-0.399536	
-0.402283	
-0.404053	
-0.405457	
-0.40686	
-0.408997	
-0.410034	
-0.411255	
-0.41217	
-0.415344	
-0.414856	
-0.416443	
-0.41687	
-0.418701	
-0.419922	
-0.420471	
-0.42157	
-0.422852	
-0.425171	
-0.425964	
-0.425842	
-0.42688	
-0.428528	
-0.430054	
-0.431396	
-0.432434	
-0.433838	
-0.434875	
-0.436035	
-0.436707	
-0.439941	
-0.440857	
-0.44281	
-0.44458	
-0.447083	
-0.449097	
-0.450256	
-0.452942	
-0.454834	
-0.456909	
-0.457703	
-0.459534	
-0.460022	
-0.461304	
-0.462524	
-0.462097	
-0.462708	
-0.462036	
-0.461365	
-0.460999	
-0.4599	
-0.458191	
-0.455688	
-0.453613	
-0.451965	
-0.450867	
-0.448975	
-0.447388	
-0.445496	
-0.444519	
-0.44342	
-0.442322	
-0.44104	
-0.438477	
-0.436035	
-0.434753	
-0.433777	
-0.43219	
-0.430603	
-0.431335	
-0.428101	
-0.427612	
-0.427307	
-0.426819	
-0.4245	
-0.422791	
-0.422058	
-0.421936	
-0.422058	
-0.421021	
-0.420837	
-0.4198	
-0.419189	
-0.41748	
-0.417419	
-0.416382	
-0.414001	
-0.414001	
-0.41272	
-0.412537	
-0.411377	
-0.410645	
-0.410339	
-0.409424	
-0.407898	
-0.407715	
-0.406006	
-0.404846	
-0.40509	
-0.403687	
-0.403748	
-0.403259	
-0.402771	
-0.403259	
-0.403625	
-0.403198	
-0.402588	
-0.40094	
-0.399292	
-0.398987	
-0.398499	
-0.397583	
-0.396606	
-0.396606	
-0.395813	
-0.396301	
-0.395752	
-0.395203	
-0.393677	
-0.392029	
-0.391418	
-0.390808	
-0.389771	
-0.390076	
-0.389282	
-0.388489	
-0.389038	
-0.388306	
-0.388123	
-0.386963	
-0.386047	
-0.385681	
-0.386597	
-0.386414	
-0.387024	
-0.386414	
-0.386414	
-0.386414	
-0.386292	
-0.385437	
-0.384583	
-0.386719	
-0.38501	
-0.385376	
-0.385254	
-0.38501	
-0.385315	
-0.385376	
-0.385315	
-0.384888	
-0.383423	
-0.383118	
-0.382629	
-0.382141	
-0.381409	
-0.380127	
-0.379333	
-0.378845	
-0.378906	
-0.377197	
-0.377441	
-0.375977	
-0.375244	
-0.37384	
-0.374939	
-0.374634	
-0.374268	
-0.374084	
-0.373474	
-0.372742	
-0.371887	
-0.371216	
-0.369263	
-0.370605	
-0.369507	
-0.36853	
-0.367249	
-0.366516	
-0.366638	
-0.365479	
-0.36499	
-0.364563	
-0.362732	
-0.361633	
-0.361145	
-0.361755	
-0.361389	
-0.362183	
-0.361389	
-0.361389	
-0.361328	
-0.361877	
-0.362244	
-0.360535	
-0.362793	
-0.362244	
-0.362915	
-0.363403	
-0.363647	
-0.363281	
-0.364441	
-0.364868	
-0.364868	
-0.364624	
-0.363892	
-0.364075	
-0.364746	
-0.365601	
-0.365295	
-0.365417	
-0.366272	
-0.366272	
-0.367188	
-0.366516	
-0.366028	
-0.367798	
-0.367004	
-0.367554	
-0.368103	
-0.368408	
-0.36853	
-0.369873	
-0.369507	
-0.369751	
-0.36969	
-0.369141	
-0.369873	
-0.370667	
-0.370239	
-0.369934	
-0.371033	
-0.371094	
-0.371765	
-0.372131	
-0.372192	
-0.371338	
-0.373108	
-0.372986	
-0.373413	
-0.373779	
-0.374451	
-0.373779	
-0.374939	
-0.374695	
-0.376038	
-0.374756	
-0.374573	
-0.375732	
-0.37561	
-0.376343	
-0.376587	
-0.376648	
-0.377319	
-0.37854	
-0.378296	
-0.378906	
-0.378967	
-0.37793	
-0.379761	
-0.379761	
-0.380005	
-0.379272	
-0.380066	
-0.380798	
-0.382141	
-0.381958	
-0.381287	
-0.380432	
-0.381531	
-0.381409	
-0.381775	
-0.382019	
-0.382385	
-0.382507	
-0.382446	
-0.381958	
-0.383789	
-0.383057	
-0.383606	
-0.383423	
-0.384644	
-0.384338	
-0.384094	
-0.38446	
-0.384644	
-0.385132	
-0.38562	
-0.385315	
-0.384766	
-0.383972	
-0.384521	
-0.384644	
-0.38446	
-0.384338	
-0.384338	
-0.384033	
-0.385193	
-0.384949	
-0.384583	
-0.383606	
-0.382996	
-0.384399	
-0.383728	
-0.383789	
-0.38324	
-0.383545	
-0.383728	
-0.38446	
-0.384705	
-0.383301	
-0.38269	
-0.382813	
-0.383972	
-0.383484	
-0.383545	
-0.383972	
-0.384094	
-0.384216	
-0.383606	
-0.384766	
-0.38446	
-0.383423	
-0.384216	
-0.385193	
-0.385437	
-0.384338	
-0.385132	
-0.385132	
-0.385315	
-0.384155	
-0.384888	
-0.384644	
-0.38324	
-0.383362	
-0.384155	
-0.383911	
-0.383057	
-0.38324	
-0.382996	
-0.383301	
-0.382324	
-0.38208	
-0.381714	
-0.380493	
-0.382996	
-0.381653	
-0.38147	
-0.381348	
-0.381653	
-0.381348	
-0.381592	
-0.382202	
-0.380554	
-0.38031	
-0.380432	
-0.381409	
-0.380615	
-0.380554	
-0.38092	
-0.381042	
-0.381592	
-0.38324	
-0.381897	
-0.381165	
-0.381531	
-0.381592	
-0.382263	
-0.382751	
-0.382385	
-0.383179	
-0.382935	
-0.383057	
-0.383789	
-0.383362	
-0.383362	
-0.381653	
-0.384399	
-0.384155	
-0.384949	
-0.385681	
-0.385559	
-0.385986	
-0.386536	
-0.386841	
-0.386658	
-0.38678	
-0.384583	
-0.387756	
-0.387451	
-0.387939	
-0.387878	
-0.387695	
-0.388062	
-0.387878	
-0.388977	
-0.388184	
-0.387939	
-0.386597	
-0.38916	
-0.388794	
-0.387756	
-0.387512	
-0.388062	
-0.388	
-0.387512	
-0.387634	
-0.387634	
-0.387878	
-0.387756	
-0.388123	
-0.387573	
-0.387451	
-0.386658	
-0.387207	
-0.387146	
-0.387329	
-0.387085	
-0.387207	
-0.38623	
-0.387268	
-0.386963	
-0.387024	
-0.386658	
-0.386597	
-0.387085	
-0.386841	
-0.388916	
-0.38678	
-0.386902	
-0.385071	
-0.387024	
-0.387085	
-0.387207	
-0.387817	
-0.387695	
-0.387451	
-0.387573	
-0.389099	
-0.387695	
-0.387512	
-0.386047	
-0.388123	
-0.387512	
-0.387329	
-0.388855	
-0.388062	
-0.388245	
-0.388428	
-0.388672	
-0.388	
-0.387329	
-0.38739	
-0.388672	
-0.387878	
-0.388489	
-0.387939	
-0.387695	
-0.387817	
-0.387756	
-0.387329	
-0.387268	
-0.385803	
-0.385742	
-0.387329	
-0.38623	
-0.385864	
-0.385193	
-0.386047	
-0.385925	
-0.386902	
-0.385315	
-0.385193	
-0.38324	
-0.384155	
-0.38562	
-0.384949	
-0.385376	
-0.383667	
-0.384583	
-0.384216	
-0.385071	
-0.384705	
-0.384216	
-0.383606	
-0.384644	
-0.384705	
-0.384216	
-0.385315	
-0.384033	
-0.38501	
-0.385071	
-0.385498	
-0.385559	
-0.385071	
-0.38562	
-0.386047	
-0.385498	
-0.385559	
-0.386292	
-0.385864	
-0.385681	
-0.386475	
-0.387024	
-0.386047	
-0.384827	
-0.385925	
-0.38678	
-0.386108	
-0.386475	
-0.38678	
-0.386475	
-0.386658	
-0.387512	
-0.388	
-0.387268	
-0.386169	
-0.387573	
-0.388367	
-0.387939	
-0.388611	
-0.388123	
-0.388611	
-0.388306	
-0.388306	
-0.38855	
-0.388733	
-0.388123	
-0.387146	
-0.389587	
-0.388733	
-0.388672	
-0.388428	
-0.389343	
-0.389343	
-0.388916	
-0.389343	
-0.388733	
-0.389709	
-0.389404	
-0.391113	
-0.390747	
-0.392029	
-0.389771	
-0.390869	
-0.392151	
-0.391174	
-0.391174	
-0.391113	
-0.391846	
-0.391968	
-0.392151	
-0.391968	
-0.392334	
-0.390991	
-0.392151	
-0.392334	
-0.392029	
-0.391113	
-0.390381	
-0.390991	
-0.391663	
-0.391235	
-0.391663	
-0.391602	
-0.390442	
-0.391479	
-0.390869	
-0.391296	
-0.389954	
-0.389282	
-0.390137	
-0.390564	
-0.390198	
-0.390381	
-0.389465	
-0.389587	
-0.390259	
-0.388855	
-0.390442	
-0.389099	
-0.388794	
-0.388367	
-0.389526	
-0.389099	
-0.387878	
-0.387512	
-0.387146	
-0.388062	
-0.386841	
-0.38739	
-0.385864	
-0.38562	
-0.385925	
-0.387085	
-0.386475	
-0.38562	
-0.385193	
-0.386353	
-0.387451	
-0.385864	
-0.385681	
-0.384583	
-0.385254	
-0.385132	
-0.385925	
-0.385681	
-0.386353	
-0.384827	
-0.386169	
-0.386108	
-0.385376	
-0.385315	
-0.383362	
-0.385864	
-0.385071	
-0.38501	
-0.385132	
-0.386047	
-0.385742	
-0.385864	
-0.385742	
-0.386414	
-0.385498	
-0.385437	
-0.38623	
-0.387207	
-0.386536	
-0.386169	
-0.386963	
-0.386597	
-0.387573	
-0.386475	
-0.387695	
-0.386902	
-0.387085	
-0.387817	
-0.38855	
-0.387878	
-0.387817	
-0.387329	
-0.388	
-0.389404	
-0.388245	
-0.388489	
-0.387939	
-0.388855	
-0.388855	
-0.388794	
-0.389099	
-0.389282	
-0.387817	
-0.388611	
-0.388977	
-0.388062	
-0.388428	
-0.386597	
-0.387573	
-0.387146	
-0.388123	
-0.387695	
-0.379578	
-0.377441	
-0.377502	
-0.377563	
-0.377319	
-0.378296	
-0.38562	
-0.389221	
-0.388977	
-0.390686	
-0.390015	
-0.391357	
-0.390686	
-0.390869	
-0.391357	
-0.391418	
-0.391296	
-0.390442	
-0.3927	
-0.392273	
-0.392029	
-0.392517	
-0.392761	
-0.392517	
-0.392822	
-0.392883	
-0.393311	
-0.3927	
-0.392639	
-0.393127	
-0.393494	
-0.392761	
-0.393127	
-0.391663	
-0.392944	
-0.392212	
-0.391663	
-0.392029	
-0.391479	
-0.390808	
-0.391663	
-0.391724	
-0.39093	
-0.391357	
-0.391113	
-0.390991	
-0.391541	
-0.391663	
-0.391663	
-0.390503	
-0.389648	
-0.389832	
-0.390076	
-0.389954	
-0.389954	
-0.389954	
-0.389954	
-0.390869	
-0.390808	
-0.390808	
-0.390198	
-0.391479	
-0.392761	
-0.39209	
-0.3927	
-0.393005	
-0.393066	
-0.393555	
-0.395386	
-0.394531	
-0.394165	
-0.394226	
-0.395264	
-0.395203	
-0.395325	
-0.395691	
-0.395691	
-0.396423	
-0.396301	
-0.39563	
-0.396729	
-0.396423	
-0.394897	
-0.396729	
-0.398193	
-0.398315	
-0.397949	
-0.398682	
-0.399048	
-0.399902	
-0.400513	
-0.401062	
-0.400452	
-0.401672	
-0.403137	
-0.402893	
-0.403198	
-0.40387	
-0.404907	
-0.405762	
-0.407837	
-0.407837	
-0.40802	
-0.407043	
-0.408936	
-0.410339	
-0.410828	
-0.411743	
-0.41156	
-0.411926	
-0.413086	
-0.413879	
-0.413269	
-0.412903	
-0.41333	
-0.413879	
-0.414124	
-0.413635	
-0.413757	
-0.412109	
-0.411621	
-0.411255	
-0.409729	
-0.408936	
-0.406677	
-0.408081	
-0.406372	
-0.407471	
-0.405701	
-0.405945	
-0.406006	
-0.406372	
-0.407959	
-0.407654	
-0.408386	
-0.40802	
-0.41095	
-0.412964	
-0.414185	
-0.416199	
-0.417297	
-0.419861	
-0.421692	
-0.423218	
-0.4245	
-0.424805	
-0.429016	
-0.430054	
-0.431458	
-0.432068	
-0.43396	
-0.434998	
-0.436035	
-0.437622	
-0.437988	
-0.438904	
-0.43866	
-0.441406	
-0.442139	
-0.44342	
-0.444153	
-0.446045	
-0.447876	
-0.450073	
-0.450439	
-0.451294	
-0.452454	
-0.454346	
-0.45636	
-0.458313	
-0.460327	
-0.462769	
-0.463318	
-0.464905	
-0.466614	
-0.465942	
-0.466309	
-0.465027	
-0.467163	
-0.466858	
-0.466614	
-0.466125	
-0.466248	
-0.464539	
-0.463684	
-0.461609	
-0.45874	
-0.456421	
-0.452881	
-0.452576	
-0.450256	
-0.447021	
-0.444031	
-0.442932	
-0.440308	
-0.439331	
-0.435608	
-0.432495	
-0.430847	
-0.429321	
-0.428772	
-0.426575	
-0.425415	
-0.423218	
-0.421448	
-0.420593	
-0.420105	
-0.417236	
-0.416016	
-0.414124	
-0.413696	
-0.412964	
-0.412781	
-0.412231	
-0.412415	
-0.410828	
-0.410645	
-0.40979	
-0.407959	
-0.407104	
-0.405334	
-0.405396	
-0.404175	
-0.403687	
-0.402588	
-0.403564	
-0.402527	
-0.402832	
-0.401794	
-0.400696	
-0.400574	
-0.398132	
-0.399902	
-0.398804	
-0.398376	
-0.397278	
-0.398254	
-0.3974	
-0.397705	
-0.396606	
-0.396973	
-0.396423	
-0.395386	
-0.397644	
-0.395996	
-0.395081	
-0.393921	
-0.393555	
-0.392883	
-0.393066	
-0.391907	
-0.39093	
-0.390686	
-0.389282	
-0.38916	
-0.388245	
-0.387878	
-0.387268	
-0.38739	
-0.387268	
-0.388245	
-0.386658	
-0.386475	
-0.385437	
-0.385132	
-0.385254	
-0.384766	
-0.384155	
-0.384766	
-0.383423	
-0.383911	
-0.384033	
-0.382141	
-0.381714	
-0.377991	
-0.381226	
-0.379395	
-0.378479	
-0.37793	
-0.377808	
-0.377502	
-0.376892	
-0.375793	
-0.375977	
-0.375183	
-0.374634	
-0.374512	
-0.374268	
-0.373657	
-0.373108	
-0.372803	
-0.371887	
-0.372498	
-0.370239	
-0.369263	
-0.367065	
-0.368042	
-0.367371	
-0.367126	
-0.365784	
-0.366028	
-0.364441	
-0.364258	
-0.363953	
-0.362976	
-0.362122	
-0.360901	
-0.362244	
-0.362061	
-0.362	
-0.361023	
-0.362305	
-0.362793	
-0.364685	
-0.363953	
-0.364319	
-0.363342	
-0.365051	
-0.36615	
-0.366699	
-0.366882	
-0.368896	
-0.369446	
-0.369568	
-0.369995	
-0.370789	
-0.371338	
-0.370544	
-0.372864	
-0.372314	
-0.372192	
-0.371887	
-0.372742	
-0.373047	
-0.374695	
-0.373962	
-0.374023	
-0.371826	
-0.374084	
-0.373657	
-0.373108	
-0.373291	
-0.374695	
-0.373352	
-0.373657	
-0.374634	
-0.373291	
-0.372131	
-0.371704	
-0.373657	
-0.372742	
-0.372375	
-0.371948	
-0.372375	
-0.37262	
-0.373596	
-0.372253	
-0.37207	
-0.370667	
-0.372681	
-0.371948	
-0.372253	
-0.372559	
-0.373047	
-0.372437	
-0.373413	
-0.374512	
-0.37323	
-0.374146	
-0.373718	
-0.375122	
-0.374573	
-0.375	
-0.374451	
-0.375183	
-0.375793	
-0.376648	
-0.376465	
-0.376038	
-0.374817	
-0.377136	
-0.377136	
-0.378235	
-0.378418	
-0.379883	
-0.379272	
-0.380127	
-0.381226	
-0.380432	
-0.380188	
-0.380066	
-0.381897	
-0.381531	
-0.381775	
-0.38147	
-0.382263	
-0.383118	
-0.38446	
-0.38385	
-0.383484	
-0.382874	
-0.381592	
-0.383606	
-0.384277	
-0.383606	
-0.384399	
-0.384094	
-0.383789	
-0.383728	
-0.38385	
-0.384094	
-0.383972	
-0.383423	
-0.383911	
-0.383972	
-0.383423	
-0.383728	
-0.383972	
-0.385071	
-0.384277	
-0.38385	
-0.383179	
-0.383301	
-0.384399	
-0.383057	
-0.383362	
-0.383118	
-0.384583	
-0.384033	
-0.384338	
-0.384033	
-0.383301	
-0.382874	
-0.382813	
-0.384033	
-0.383728	
-0.383728	
-0.382629	
-0.38385	
-0.384338	
-0.384338	
-0.384705	
-0.384521	
-0.383484	
-0.383179	
-0.384827	
-0.384094	
-0.384033	
-0.384644	
-0.384521	
-0.385681	
-0.385559	
-0.38562	
-0.384888	
-0.385193	
-0.384766	
-0.384583	
-0.385559	
-0.385559	
-0.38562	
-0.385498	
-0.386597	
-0.386353	
-0.385193	
-0.385071	
-0.384644	
-0.385315	
-0.385071	
-0.384338	
-0.383667	
-0.384888	
-0.383972	
-0.384644	
-0.384216	
-0.383484	
-0.382629	
-0.381775	
-0.383789	
-0.383362	
-0.382874	
-0.382141	
-0.383484	
-0.382935	
-0.383179	
-0.382568	
-0.382507	
-0.381287	
-0.381104	
-0.382629	
-0.383057	
-0.382324	
-0.382629	
-0.382935	
-0.382935	
-0.382996	
-0.383179	
-0.382874	
-0.382507	
-0.38385	
-0.383301	
-0.383728	
-0.384094	
-0.384644	
-0.383789	
-0.384033	
-0.385071	
-0.383789	
-0.383972	
-0.383972	
-0.384338	
-0.38385	
-0.383972	
-0.383545	
-0.385071	
-0.384583	
-0.385254	
-0.386108	
-0.384766	
-0.38501	
-0.384033	
-0.385376	
-0.385315	
-0.385559	
-0.386108	
-0.387207	
-0.386475	
-0.387756	
-0.386536	
-0.386719	
-0.38562	
-0.386353	
-0.387207	
-0.386963	
-0.386414	
-0.386841	
-0.387817	
-0.387634	
-0.387878	
-0.386047	
-0.387085	
-0.386108	
-0.387817	
-0.387634	
-0.388367	
-0.387024	
-0.388367	
-0.389587	
-0.389587	
-0.390381	
-0.388184	
-0.389404	
-0.388672	
-0.389648	
-0.389954	
-0.389343	
-0.389648	
-0.390259	
-0.390259	
-0.390869	
-0.390686	
-0.390015	
-0.389954	
-0.389832	
-0.390076	
-0.390747	
-0.389709	
-0.39032	
-0.390625	
-0.390015	
-0.391418	
-0.390076	
-0.389648	
-0.389343	
-0.390259	
-0.389282	
-0.389221	
-0.388184	
-0.389038	
-0.389587	
-0.389038	
-0.390686	
-0.388245	
-0.387939	
-0.387024	
-0.388245	
-0.388367	
-0.388	
-0.388245	
-0.387939	
-0.388123	
-0.387329	
-0.388062	
-0.386414	
-0.386047	
-0.384033	
-0.385742	
-0.385315	
-0.384644	
-0.385132	
-0.38446	
-0.38562	
-0.385254	
-0.385315	
-0.38385	
-0.384705	
-0.383484	
-0.384155	
-0.384888	
-0.382935	
-0.384338	
-0.385315	
-0.385193	
-0.385559	
-0.38501	
-0.383911	
-0.38446	
-0.383179	
-0.384583	
-0.384155	
-0.384216	
-0.384399	
-0.384583	
-0.384094	
-0.385681	
-0.383911	
-0.384705	
-0.384521	
-0.384766	
-0.385071	
-0.38446	
-0.385315	
-0.385498	
-0.386414	
-0.385803	
-0.387329	
-0.385681	
-0.385803	
-0.385437	
-0.38623	
-0.386353	
-0.385742	
-0.386597	
-0.386353	
-0.387695	
-0.387329	
-0.388733	
-0.386353	
-0.387329	
-0.385376	
-0.387207	
-0.388062	
-0.387268	
-0.388	
-0.388184	
-0.387756	
-0.388062	
-0.388428	
-0.387146	
-0.387207	
-0.38562	
-0.387146	
-0.387146	
-0.38678	
-0.387024	
-0.387573	
-0.386902	
-0.387878	
-0.387207	
-0.38739	
-0.387085	
-0.385803	
-0.387085	
-0.387512	
-0.388367	
-0.388184	
-0.389709	
-0.388977	
-0.389832	
-0.388306	
-0.389648	
-0.389709	
-0.389404	
-0.390259	
-0.388977	
-0.390381	
-0.390808	
-0.391418	
-0.391235	
-0.392822	
-0.391785	
-0.391479	
-0.39032	
-0.392029	
-0.391663	
-0.392029	
-0.392395	
-0.393127	
-0.392334	
-0.392212	
-0.393433	
-0.391541	
-0.391479	
-0.389404	
-0.391174	
-0.39093	
-0.39093	
-0.390747	
-0.391296	
-0.390503	
-0.390442	
-0.391296	
-0.389954	
-0.39032	
-0.387329	
-0.389709	
-0.388855	
-0.389465	
-0.388489	
-0.388733	
-0.387573	
-0.388245	
-0.387756	
-0.386963	
-0.387268	
-0.385071	
-0.386414	
-0.38562	
-0.385803	
-0.385925	
-0.385864	
-0.386169	
-0.38678	
-0.384949	
-0.385437	
-0.385559	
-0.384949	
-0.385376	
-0.384521	
-0.385376	
-0.385559	
-0.385925	
-0.38562	
-0.386963	
-0.384705	
-0.385986	
-0.384766	
-0.385742	
-0.38562	
-0.38623	
-0.385681	
-0.385986	
-0.386414	
-0.386536	
-0.387817	
-0.386719	
-0.387329	
-0.385498	
-0.386597	
-0.386108	
-0.387024	
-0.387207	
-0.387085	
-0.387207	
-0.387512	
-0.388428	
-0.386963	
-0.387817	
-0.385681	
-0.386902	
-0.386292	
-0.387207	
-0.387451	
-0.388306	
-0.387451	
-0.388184	
-0.387451	
-0.387085	
-0.387146	
-0.38623	
-0.387207	
-0.385742	
-0.386536	
-0.387573	
-0.387817	
-0.387024	
-0.388245	
-0.386841	
-0.386963	
-0.386108	
-0.385376	
-0.386292	
-0.386475	
-0.386414	
-0.386841	
-0.38739	
-0.386719	
-0.388123	
-0.38562	
-0.387756	
-0.385559	
-0.387146	
-0.387695	
-0.388611	
-0.387756	
-0.388428	
-0.388916	
-0.388672	
-0.389465	
-0.388428	
-0.388855	
-0.387695	
-0.389221	
-0.388611	
-0.389099	
-0.389709	
-0.390015	
-0.389954	
-0.389954	
-0.390442	
-0.39032	
-0.390564	
-0.389343	
-0.390503	
-0.390503	
-0.390259	
-0.390991	
-0.390991	
-0.390442	
-0.391418	
-0.390625	
-0.390381	
-0.389282	
-0.389771	
-0.389465	
-0.389771	
-0.389709	
-0.389954	
-0.390381	
-0.389343	
-0.391296	
-0.390137	
-0.39032	
-0.389526	
-0.389099	
-0.388611	
-0.389709	
-0.389832	
-0.389343	
-0.390137	
-0.389221	
-0.390625	
-0.388611	
-0.388916	
-0.387634	
-0.387024	
-0.387146	
-0.388062	
-0.387878	
-0.388184	
-0.388245	
-0.388	
-0.389343	
-0.388123	
-0.387817	
-0.386414	
-0.386047	
-0.386475	
-0.387329	
-0.387756	
-0.387451	
-0.387634	
-0.387634	
-0.388489	
-0.387024	
-0.386963	
-0.384827	
-0.385986	
-0.386353	
-0.385925	
-0.385864	
-0.386292	
-0.385132	
-0.385864	
-0.386108	
-0.38562	
-0.38446	
-0.382935	
-0.384338	
-0.384705	
-0.383728	
-0.383911	
-0.385132	
-0.384338	
-0.38446	
-0.384644	
-0.384888	
-0.384399	
-0.384399	
-0.38446	
-0.384644	
-0.384705	
-0.38446	
-0.38501	
-0.384949	
-0.385559	
-0.384277	
-0.386047	
-0.385437	
-0.384644	
-0.38562	
-0.385254	
-0.386353	
-0.386169	
-0.386108	
-0.386414	
-0.387939	
-0.386475	
-0.387634	
-0.385925	
-0.385864	
-0.386597	
-0.387756	
-0.387695	
-0.388062	
-0.388489	
-0.389038	
-0.389893	
-0.38916	
-0.390137	
-0.388245	
-0.389954	
-0.389343	
-0.390625	
-0.390381	
-0.39093	
-0.390686	
-0.391663	
-0.392334	
-0.391785	
-0.391602	
-0.390198	
-0.391418	
-0.391296	
-0.391052	
-0.391174	
-0.392151	
-0.391541	
-0.391541	
-0.391296	
-0.391052	
-0.390991	
-0.390991	
-0.391418	
-0.391602	
-0.391602	
-0.391724	
-0.391907	
-0.391602	
-0.392212	
-0.390564	
-0.391602	
-0.390747	
-0.390503	
-0.390198	
-0.390625	
-0.390808	
-0.390503	
-0.390442	
-0.390625	
-0.391846	
-0.390076	
-0.391357	
-0.38916	
-0.389343	
-0.389221	
-0.389404	
-0.389404	
-0.389526	
-0.389343	
-0.389099	
-0.390747	
-0.389771	
-0.389893	
-0.387268	
-0.388367	
-0.388306	
-0.388977	
-0.388611	
-0.388855	
-0.388245	
-0.388733	
-0.389404	
-0.389587	
-0.389465	
-0.388489	
-0.387939	
-0.387878	
-0.389954	
-0.38916	
-0.389221	
-0.389343	
-0.390076	
	
