E:\DOCUMENTS AND SETTINGS\JPOTAS\MEUS DOCUMENTOS\UFRJ\RSCI-BM 12 WK SERIES\070723-RSCI-BM-06\RSCI-BM-06-REMG\070723-RSCI-BM-REMG-0007.ACQ
0.025000 msec/sample
1 channel
Analog input
Volts
CH1	
2000	
-0.405151	
-0.406372	
-0.401062	
-0.405151	
-0.405884	
-0.406616	
-0.404419	
-0.405945	
-0.405334	
-0.403198	
-0.40094	
-0.400085	
-0.398682	
-0.394348	
-0.403259	
-0.404175	
-0.40387	
-0.404297	
-0.403931	
-0.403015	
-0.404236	
-0.404236	
-0.40509	
-0.404236	
-0.404602	
-0.404602	
-0.404114	
-0.404602	
-0.405029	
-0.404602	
-0.40448	
-0.405151	
-0.40448	
-0.403564	
-0.404053	
-0.405701	
-0.405518	
-0.405029	
-0.405457	
-0.405457	
-0.405518	
-0.405945	
-0.405823	
-0.40625	
-0.406433	
-0.406372	
-0.406067	
-0.405701	
-0.405762	
-0.405579	
-0.405396	
-0.406006	
-0.406311	
-0.405579	
-0.406799	
-0.406555	
-0.406677	
-0.40625	
-0.40741	
-0.40802	
-0.407837	
-0.407898	
-0.40863	
-0.407898	
-0.406677	
-0.408203	
-0.407532	
-0.408447	
-0.408691	
-0.408386	
-0.407532	
-0.408142	
-0.407959	
-0.407532	
-0.408203	
-0.407715	
-0.406921	
-0.406555	
-0.406921	
-0.405457	
-0.406433	
-0.406494	
-0.406128	
-0.405884	
-0.405823	
-0.40625	
-0.406372	
-0.405884	
-0.406311	
-0.406738	
-0.406189	
-0.405579	
-0.405212	
-0.404602	
-0.404297	
-0.404968	
-0.404663	
-0.404419	
-0.40387	
-0.404053	
-0.404053	
-0.403992	
-0.404602	
-0.403809	
-0.402954	
-0.403198	
-0.402405	
-0.40332	
-0.403809	
-0.403381	
-0.403748	
-0.403564	
-0.40387	
-0.403809	
-0.404297	
-0.404114	
-0.403564	
-0.403442	
-0.403625	
-0.40332	
-0.403992	
-0.403687	
-0.403076	
-0.403809	
-0.40332	
-0.403442	
-0.403687	
-0.403809	
-0.403931	
-0.403503	
-0.402649	
-0.403076	
-0.402649	
-0.403259	
-0.403015	
-0.403503	
-0.402466	
-0.402344	
-0.401794	
-0.401672	
-0.402466	
-0.402222	
-0.402893	
-0.402222	
-0.402344	
-0.402039	
-0.401245	
-0.402466	
-0.4021	
-0.402344	
-0.403015	
-0.402405	
-0.402039	
-0.402039	
-0.401978	
-0.402283	
-0.401978	
-0.401733	
-0.401611	
-0.400269	
-0.401184	
-0.401184	
-0.401062	
-0.401306	
-0.401733	
-0.401672	
-0.400757	
-0.401489	
-0.401733	
-0.400696	
-0.401184	
-0.401001	
-0.400757	
-0.400879	
-0.401489	
-0.401245	
-0.401001	
-0.400879	
-0.400757	
-0.400574	
-0.401794	
-0.400635	
-0.400513	
-0.400635	
-0.400513	
-0.400574	
-0.400696	
-0.40094	
-0.400818	
-0.401123	
-0.40094	
-0.401428	
-0.402222	
-0.402527	
-0.402832	
-0.40448	
-0.403198	
-0.228638	
1.05627	
1.19617	
1.16608	
1.12335	
1.08881	
0.722107	
-0.48468	
-0.665222	
-0.673523	
-0.656067	
-0.637146	
-0.618469	
-0.603088	
-0.588806	
-0.577332	
-0.565186	
-0.556824	
-0.547729	
-0.539368	
-0.532043	
-0.52533	
-0.520203	
-0.514526	
-0.509216	
-0.504456	
-0.500916	
-0.496094	
-0.49292	
-0.489319	
-0.485107	
-0.483154	
-0.479797	
-0.477234	
-0.474121	
-0.471863	
-0.470398	
-0.467285	
-0.464783	
-0.46283	
-0.460815	
-0.459778	
-0.458191	
-0.455872	
-0.453674	
-0.452698	
-0.451843	
-0.44989	
-0.448059	
-0.447693	
-0.445557	
-0.444641	
-0.443542	
-0.441589	
-0.441711	
-0.440918	
-0.44043	
-0.438721	
-0.437561	
-0.435974	
-0.436584	
-0.436584	
-0.435608	
-0.434692	
-0.434692	
-0.433838	
-0.433167	
-0.432373	
-0.431091	
-0.431702	
-0.431519	
-0.429871	
-0.428955	
-0.428406	
-0.427185	
-0.427612	
-0.427124	
-0.425842	
-0.424927	
-0.42572	
-0.42572	
-0.4245	
-0.424011	
-0.423889	
-0.42395	
-0.422241	
-0.42218	
-0.421997	
-0.420959	
-0.421326	
-0.421082	
-0.419495	
-0.419373	
-0.419312	
-0.419128	
-0.418579	
-0.418213	
-0.418152	
-0.417786	
-0.417847	
-0.418457	
-0.417053	
-0.416809	
-0.415955	
-0.415955	
-0.416382	
-0.416504	
-0.416016	
-0.416382	
-0.41571	
-0.415283	
-0.415405	
-0.415649	
-0.417297	
-0.414856	
-0.41449	
-0.414734	
-0.414185	
-0.414673	
-0.414368	
-0.41394	
-0.413574	
-0.414124	
-0.414124	
-0.414124	
-0.414246	
-0.415039	
-0.414368	
-0.414978	
-0.413574	
-0.41272	
-0.414307	
-0.413818	
-0.413513	
-0.413269	
-0.41394	
-0.413818	
-0.413574	
-0.413696	
-0.414063	
-0.412842	
-0.412537	
-0.413086	
-0.411621	
-0.412598	
-0.413086	
-0.413086	
-0.413513	
-0.413391	
-0.413086	
-0.413391	
-0.413635	
-0.414124	
-0.412781	
-0.412842	
-0.413086	
-0.412659	
-0.413269	
-0.41272	
-0.412476	
-0.412598	
-0.411926	
-0.412292	
-0.412048	
-0.412109	
-0.412964	
-0.411682	
-0.411499	
-0.411377	
-0.410339	
-0.411255	
-0.411011	
-0.410889	
-0.410095	
-0.409912	
-0.410645	
-0.409241	
-0.409485	
-0.409363	
-0.409546	
-0.409485	
-0.409363	
-0.408997	
-0.408691	
-0.409485	
-0.410034	
-0.409302	
-0.408691	
-0.409241	
-0.408997	
-0.408325	
-0.407104	
-0.407837	
-0.407593	
-0.407593	
-0.407349	
-0.407104	
-0.406555	
-0.40686	
-0.40741	
-0.406677	
-0.406738	
-0.40625	
-0.406128	
-0.406372	
-0.406372	
-0.404724	
-0.406006	
-0.406067	
-0.405579	
-0.405579	
-0.40564	
-0.406372	
-0.406677	
-0.407471	
-0.40625	
-0.406982	
-0.40686	
-0.40802	
-0.406982	
-0.406738	
-0.406616	
-0.406555	
-0.407715	
-0.406921	
-0.40686	
-0.406738	
-0.407043	
-0.407104	
-0.407288	
-0.407898	
-0.409241	
-0.408203	
-0.407776	
-0.407837	
-0.408325	
-0.408813	
-0.409058	
-0.40863	
-0.408997	
-0.409119	
-0.40863	
-0.409119	
-0.409485	
-0.408813	
-0.408569	
-0.409302	
-0.408386	
-0.408203	
-0.408386	
-0.408081	
-0.40741	
-0.408569	
-0.408203	
-0.408447	
-0.408447	
-0.408264	
-0.408081	
-0.407898	
-0.408203	
-0.408081	
-0.407898	
-0.407166	
-0.407593	
-0.407471	
-0.407471	
-0.407043	
-0.408264	
-0.408081	
-0.408813	
-0.408569	
-0.408691	
-0.408386	
-0.408264	
-0.408386	
-0.408386	
-0.40918	
-0.408691	
-0.408264	
-0.408447	
-0.408203	
-0.407166	
-0.408264	
-0.408081	
-0.409119	
-0.407898	
-0.408264	
-0.407776	
-0.407227	
-0.408386	
-0.408081	
-0.408447	
-0.407776	
-0.408447	
-0.408447	
-0.408142	
-0.406982	
-0.409607	
-0.408813	
-0.408569	
-0.40918	
-0.408325	
-0.408081	
-0.408386	
-0.407959	
-0.408752	
-0.408691	
-0.408508	
-0.40863	
-0.408447	
-0.407837	
-0.407898	
-0.408142	
-0.408203	
-0.408875	
-0.408508	
-0.40863	
-0.409241	
-0.408875	
-0.408997	
-0.408691	
-0.409424	
-0.40863	
-0.408752	
-0.408997	
-0.408325	
-0.407776	
-0.407532	
-0.408203	
-0.407227	
-0.406555	
-0.40686	
-0.406067	
-0.40509	
-0.40509	
-0.405396	
-0.405579	
-0.405151	
-0.405151	
-0.404358	
-0.403809	
-0.403931	
-0.403748	
-0.403931	
-0.404175	
-0.404175	
-0.404419	
-0.404175	
-0.404358	
-0.40509	
-0.40509	
-0.40509	
-0.404846	
-0.404419	
-0.40448	
-0.404541	
-0.405212	
-0.405212	
-0.405396	
-0.405701	
-0.405396	
-0.405518	
-0.405884	
-0.406555	
-0.405945	
-0.406128	
-0.406677	
-0.405579	
-0.406006	
-0.406189	
-0.405884	
-0.406799	
-0.406982	
-0.407104	
-0.407349	
-0.407288	
-0.408081	
-0.407288	
-0.408081	
-0.408081	
-0.407471	
-0.407959	
-0.407959	
-0.40802	
-0.408325	
-0.407349	
-0.408875	
-0.408875	
-0.40918	
-0.408936	
-0.408691	
-0.408508	
-0.408264	
-0.408752	
-0.40863	
-0.408875	
-0.407898	
-0.408264	
-0.40802	
-0.407166	
-0.406433	
-0.407654	
-0.407593	
-0.408264	
-0.407715	
-0.407776	
-0.407288	
-0.407349	
-0.408264	
-0.408264	
-0.408569	
-0.40802	
-0.408081	
-0.407776	
-0.407715	
-0.406677	
-0.408752	
-0.408875	
-0.408264	
-0.408142	
-0.408936	
-0.408081	
-0.40863	
-0.408813	
-0.408569	
-0.409119	
-0.409424	
-0.409729	
-0.409119	
-0.409424	
-0.408752	
-0.408997	
-0.409241	
-0.409363	
-0.409058	
-0.408813	
-0.408752	
-0.408508	
-0.408447	
-0.408875	
-0.408813	
-0.409119	
-0.408752	
-0.409302	
-0.408752	
-0.407959	
-0.408569	
-0.407837	
-0.408508	
-0.408691	
-0.408691	
-0.408142	
-0.408569	
-0.408447	
-0.408508	
-0.40918	
-0.409119	
-0.407898	
-0.407959	
-0.407532	
-0.405029	
-0.407715	
-0.406555	
-0.406616	
-0.407349	
-0.406677	
-0.406555	
-0.406921	
-0.40686	
-0.406677	
-0.406616	
-0.407104	
-0.406738	
-0.405701	
-0.407043	
-0.406677	
-0.406677	
-0.406616	
-0.406738	
-0.406006	
-0.405457	
-0.405701	
-0.405151	
-0.405151	
-0.405273	
-0.405212	
-0.405396	
-0.405273	
-0.405029	
-0.404663	
-0.40448	
-0.404846	
-0.405151	
-0.405151	
-0.405029	
-0.405334	
-0.406311	
-0.405151	
-0.405273	
-0.405334	
-0.404358	
-0.406372	
-0.406006	
-0.405518	
-0.405762	
-0.406189	
-0.406555	
-0.40625	
-0.406311	
-0.406677	
-0.406372	
-0.407043	
-0.406799	
-0.406311	
-0.406982	
-0.407349	
-0.40802	
-0.407166	
-0.406982	
-0.406799	
-0.407043	
-0.406982	
-0.407532	
-0.408203	
-0.407288	
-0.407959	
-0.407288	
-0.40802	
-0.408386	
-0.408691	
-0.408569	
-0.409973	
-0.409119	
-0.408508	
-0.408936	
-0.409241	
-0.410034	
-0.40979	
-0.410217	
-0.409668	
-0.40741	
-0.409363	
-0.409546	
-0.409302	
-0.408813	
-0.408936	
-0.409546	
-0.408142	
-0.408081	
-0.407776	
-0.407959	
-0.40686	
-0.407227	
-0.407227	
-0.407227	
-0.406921	
-0.406921	
-0.406799	
-0.406921	
-0.407104	
-0.407898	
-0.407898	
-0.407166	
-0.40686	
-0.406128	
-0.405334	
-0.405212	
-0.405151	
-0.40564	
-0.405762	
-0.405396	
-0.40448	
-0.404175	
-0.404785	
-0.404846	
-0.404602	
-0.405762	
-0.404175	
-0.40448	
-0.405457	
-0.404602	
-0.404236	
-0.405029	
-0.405396	
-0.404846	
-0.40509	
-0.404968	
-0.40509	
-0.404419	
-0.405334	
-0.406006	
-0.405884	
-0.405273	
-0.405151	
-0.404846	
-0.404358	
-0.404236	
-0.40509	
-0.404541	
-0.404907	
-0.404968	
-0.404541	
-0.404663	
-0.405212	
-0.404358	
-0.404114	
-0.404175	
-0.403564	
-0.404236	
-0.403687	
-0.403931	
-0.40271	
-0.403381	
-0.403625	
-0.403931	
-0.403687	
-0.404968	
-0.40387	
-0.403687	
-0.403931	
-0.403137	
-0.404419	
-0.404053	
-0.403992	
-0.403259	
-0.403503	
-0.402405	
-0.403442	
-0.403564	
-0.403625	
-0.403198	
-0.403564	
-0.403503	
-0.402466	
-0.403137	
-0.403564	
-0.403687	
-0.402893	
-0.402954	
-0.402893	
-0.402954	
-0.40271	
-0.402893	
-0.40332	
-0.403076	
-0.403748	
-0.402649	
-0.402283	
-0.402893	
-0.402893	
-0.402832	
-0.403015	
-0.40271	
-0.402283	
-0.402222	
-0.402893	
-0.402283	
-0.402832	
-0.402527	
-0.403198	
-0.401794	
-0.402893	
-0.403564	
-0.403809	
-0.405029	
-0.404968	
-0.40564	
-0.404663	
-0.405701	
-0.406494	
-0.405273	
-0.404846	
-0.405884	
-0.405273	
-0.406311	
-0.406799	
-0.406921	
-0.406677	
-0.407227	
-0.407166	
-0.406433	
-0.406616	
-0.406921	
-0.40625	
-0.405823	
-0.405823	
-0.404968	
-0.405518	
-0.406128	
-0.405945	
-0.404785	
-0.405029	
-0.404968	
-0.404785	
-0.405151	
-0.404968	
-0.405579	
-0.405273	
-0.404724	
-0.404419	
-0.402649	
-0.403015	
-0.403687	
-0.404236	
-0.40387	
-0.40332	
-0.403259	
-0.403015	
-0.402588	
-0.403442	
-0.402466	
-0.402527	
-0.402649	
-0.401794	
-0.402039	
-0.402161	
-0.401428	
-0.401978	
-0.401672	
-0.401917	
-0.40155	
-0.4021	
-0.402039	
-0.401978	
-0.401611	
-0.401367	
-0.401794	
-0.402283	
-0.4021	
-0.401855	
-0.4021	
-0.401794	
-0.402588	
-0.402344	
-0.402527	
-0.402771	
-0.403381	
-0.4021	
-0.402466	
-0.4021	
-0.401306	
-0.402405	
-0.402588	
-0.401672	
-0.4021	
-0.402039	
-0.401306	
-0.401855	
-0.4021	
-0.402344	
-0.401917	
-0.401733	
-0.401672	
-0.40094	
-0.401794	
-0.401672	
-0.400879	
-0.401917	
-0.401123	
-0.400879	
-0.400635	
-0.400757	
-0.400452	
-0.401123	
-0.401062	
-0.400391	
-0.400452	
-0.399353	
-0.401062	
-0.401001	
-0.401123	
-0.401611	
-0.4021	
-0.401245	
-0.401428	
-0.401367	
-0.40094	
-0.401306	
-0.401489	
-0.401001	
-0.400818	
-0.401062	
-0.401184	
-0.401306	
-0.401917	
-0.401489	
-0.401123	
-0.402283	
-0.4021	
-0.401733	
-0.401733	
-0.401733	
-0.401978	
-0.402405	
-0.40271	
-0.402527	
-0.402649	
-0.402954	
-0.40332	
-0.402954	
-0.403198	
-0.403076	
-0.403687	
-0.404419	
-0.402893	
-0.402771	
-0.402893	
-0.401672	
-0.402344	
-0.402283	
-0.40271	
-0.403137	
-0.403809	
-0.403442	
-0.40387	
-0.404053	
-0.404541	
-0.404968	
-0.404175	
-0.403748	
-0.403687	
-0.403992	
-0.404053	
-0.40387	
-0.40387	
-0.40387	
-0.404053	
-0.404236	
-0.404419	
-0.404053	
-0.404297	
-0.404358	
-0.404846	
-0.40332	
-0.403259	
-0.40387	
-0.403137	
-0.402954	
-0.40332	
-0.403015	
-0.402283	
-0.402954	
-0.402893	
-0.403259	
-0.402344	
-0.402222	
-0.402222	
-0.4021	
-0.402466	
-0.402344	
-0.402344	
-0.402039	
-0.40155	
-0.402588	
-0.402222	
-0.402039	
-0.403259	
-0.401672	
-0.40155	
-0.401367	
-0.401306	
-0.401306	
-0.401855	
-0.401306	
-0.400452	
-0.400635	
-0.400818	
-0.399658	
-0.400696	
-0.401062	
-0.40094	
-0.400146	
-0.399475	
-0.399719	
-0.399841	
-0.400269	
-0.400696	
-0.400696	
-0.400879	
-0.401123	
-0.400879	
-0.400757	
-0.400879	
-0.401794	
-0.401611	
-0.401245	
-0.401245	
-0.401794	
-0.402222	
-0.4021	
-0.402222	
-0.4021	
-0.402222	
-0.40271	
-0.402283	
-0.401733	
-0.402771	
-0.402039	
-0.402771	
-0.402649	
-0.402466	
-0.402832	
-0.403076	
-0.403992	
-0.403931	
-0.403992	
-0.404236	
-0.40509	
-0.405212	
-0.404541	
-0.404846	
-0.404541	
-0.403992	
-0.404297	
-0.403992	
-0.404419	
-0.404236	
-0.404907	
-0.404724	
-0.404236	
-0.40387	
-0.404419	
-0.405334	
-0.405273	
-0.40387	
-0.40332	
-0.403503	
-0.403137	
-0.403748	
-0.403137	
-0.404236	
-0.404968	
-0.404236	
-0.403992	
-0.404114	
-0.404541	
-0.405945	
-0.40509	
-0.405334	
-0.404663	
-0.404236	
-0.405457	
-0.404663	
-0.404785	
-0.40564	
-0.405212	
-0.405396	
-0.40564	
-0.40564	
-0.405518	
-0.405212	
-0.405212	
-0.40448	
-0.404602	
-0.404602	
-0.404541	
-0.404358	
-0.40448	
-0.405273	
-0.405029	
-0.40509	
-0.406006	
-0.406006	
-0.405701	
-0.405579	
-0.406067	
-0.405334	
-0.405579	
-0.406616	
-0.405396	
-0.405396	
-0.405762	
-0.405457	
-0.405029	
-0.406189	
-0.406128	
-0.405945	
-0.405823	
-0.405457	
-0.405212	
-0.40448	
-0.405823	
-0.405762	
-0.406494	
-0.406128	
-0.405762	
-0.405945	
-0.405701	
-0.405457	
-0.40625	
-0.405823	
-0.405701	
-0.405701	
-0.405396	
-0.405151	
-0.404602	
-0.404785	
-0.404297	
-0.404236	
-0.403809	
-0.402954	
-0.402588	
-0.402527	
-0.402222	
-0.402466	
-0.402466	
-0.401978	
-0.40094	
-0.401428	
-0.401611	
-0.401489	
-0.401489	
-0.401917	
-0.402527	
-0.402039	
-0.402344	
-0.403076	
-0.4021	
-0.401062	
-0.402771	
-0.402222	
-0.402466	
-0.402649	
-0.403198	
-0.403198	
-0.402893	
-0.403564	
-0.402954	
-0.404297	
-0.403687	
-0.403809	
-0.40332	
-0.403687	
-0.40332	
-0.40448	
-0.404419	
-0.404846	
-0.404358	
-0.404663	
-0.405151	
-0.40509	
-0.405396	
-0.405884	
-0.406738	
-0.405701	
-0.405823	
-0.406189	
-0.405334	
-0.404785	
-0.406311	
-0.406738	
-0.40625	
-0.406372	
-0.40686	
-0.406738	
-0.407532	
-0.408447	
-0.407104	
-0.407288	
-0.407043	
-0.406189	
-0.407043	
-0.405945	
-0.405273	
-0.406189	
-0.406189	
-0.406494	
-0.405884	
-0.406067	
-0.406311	
-0.406189	
-0.406067	
-0.405823	
-0.406006	
-0.406738	
-0.406555	
-0.406433	
-0.406067	
-0.405701	
-0.40625	
-0.406433	
-0.406494	
-0.40686	
-0.407166	
-0.406372	
-0.40625	
-0.406311	
-0.40625	
-0.407532	
-0.407715	
-0.40741	
-0.407166	
-0.406799	
-0.407227	
-0.407288	
-0.407715	
-0.408386	
-0.407654	
-0.407166	
-0.407837	
-0.407043	
-0.407593	
-0.407227	
-0.407532	
-0.407898	
-0.407166	
-0.407104	
-0.407166	
-0.407043	
-0.407471	
-0.407227	
-0.407227	
-0.407349	
-0.406738	
-0.407288	
-0.407288	
-0.407532	
-0.406982	
-0.407166	
-0.407898	
-0.407349	
-0.407104	
-0.406738	
-0.407288	
-0.406616	
-0.406372	
-0.405823	
-0.404785	
-0.405945	
-0.40564	
-0.40564	
-0.405518	
-0.405334	
-0.405396	
-0.406067	
-0.40564	
-0.404907	
-0.405029	
-0.404968	
-0.406128	
-0.405029	
-0.405518	
-0.405945	
-0.405457	
-0.404907	
-0.404724	
-0.404907	
-0.403809	
-0.40448	
-0.404968	
-0.404724	
-0.403809	
-0.403748	
-0.403625	
-0.402954	
-0.404114	
-0.403992	
-0.403625	
-0.404236	
-0.404297	
-0.403992	
-0.403809	
-0.403992	
-0.404846	
-0.405151	
-0.404236	
-0.404114	
-0.40387	
-0.404602	
-0.404785	
-0.404907	
-0.404602	
-0.405212	
-0.40564	
-0.405273	
-0.405334	
-0.405762	
-0.406677	
-0.406372	
-0.407288	
-0.405029	
-0.404541	
-0.405457	
-0.405823	
-0.405945	
-0.40564	
-0.405762	
-0.405701	
-0.406433	
-0.406921	
-0.407532	
-0.406677	
-0.406799	
-0.406799	
-0.407166	
-0.40741	
-0.407959	
-0.407898	
-0.407715	
-0.408447	
-0.408569	
-0.408203	
-0.408386	
-0.408508	
-0.408875	
-0.408691	
-0.409119	
-0.40802	
-0.407898	
-0.408936	
-0.408142	
-0.408142	
-0.407288	
-0.407532	
-0.406982	
-0.407593	
-0.406616	
-0.407593	
-0.406677	
-0.406616	
-0.406616	
-0.405334	
-0.406311	
-0.406372	
-0.40686	
-0.406189	
-0.40625	
-0.406555	
-0.405579	
-0.406433	
-0.406311	
-0.405823	
-0.405151	
-0.404724	
-0.404663	
-0.404724	
-0.404419	
-0.404358	
-0.404541	
-0.404968	
-0.403931	
-0.40387	
-0.403748	
-0.403748	
-0.404358	
-0.403442	
-0.40448	
-0.404358	
-0.40387	
-0.404297	
-0.404724	
-0.403931	
-0.403931	
-0.404541	
-0.404419	
-0.404541	
-0.404175	
-0.404785	
-0.404297	
-0.404663	
-0.40448	
-0.404419	
-0.404724	
-0.404297	
-0.40448	
-0.404236	
-0.403381	
-0.40448	
-0.404968	
-0.40448	
-0.403748	
-0.40387	
-0.403442	
-0.402405	
-0.402954	
-0.403503	
-0.403198	
-0.40332	
-0.403381	
-0.403076	
-0.403198	
-0.402893	
-0.403015	
-0.403625	
-0.404297	
-0.402832	
-0.403442	
-0.402832	
-0.402588	
-0.402954	
-0.403076	
-0.403015	
-0.402893	
-0.402832	
-0.402405	
-0.402405	
-0.402466	
-0.403503	
-0.402832	
-0.402588	
-0.402344	
-0.401978	
-0.402649	
-0.401855	
-0.402466	
-0.402649	
-0.402771	
-0.402161	
-0.402527	
-0.402344	
-0.402527	
-0.402588	
-0.403259	
-0.402344	
-0.401978	
-0.402588	
-0.402283	
-0.402039	
-0.401245	
-0.402161	
-0.401733	
-0.402222	
-0.402222	
-0.402283	
-0.402649	
-0.402588	
-0.402649	
-0.402161	
-0.402832	
-0.403809	
-0.403442	
-0.404053	
-0.404236	
-0.403748	
-0.404968	
-0.40564	
-0.405334	
-0.405945	
-0.405701	
-0.406189	
-0.405457	
-0.404785	
-0.406189	
-0.406799	
-0.406311	
-0.40625	
-0.406067	
-0.40564	
-0.404602	
-0.40564	
-0.405884	
-0.404785	
-0.404663	
-0.405029	
-0.404602	
-0.405396	
-0.404724	
-0.40509	
-0.404846	
-0.404602	
-0.404236	
-0.403931	
-0.404053	
-0.403564	
-0.405029	
-0.403564	
-0.403503	
-0.40332	
-0.402771	
-0.403015	
-0.403137	
-0.403015	
-0.403076	
-0.40332	
-0.402649	
-0.401733	
-0.4021	
-0.402832	
-0.401001	
-0.401672	
-0.401489	
-0.401001	
-0.40155	
-0.401489	
-0.401306	
-0.401245	
-0.401611	
-0.401489	
-0.401611	
-0.401367	
-0.401672	
-0.401428	
-0.401306	
-0.399902	
-0.401062	
-0.401245	
-0.402039	
-0.402649	
-0.401611	
-0.401917	
-0.401733	
-0.4021	
-0.402283	
-0.40271	
-0.402649	
-0.401245	
-0.401917	
-0.401855	
-0.399048	
-0.401184	
-0.401917	
-0.402405	
-0.401611	
-0.401306	
-0.401428	
-0.401733	
-0.401184	
-0.402161	
-0.401794	
-0.401611	
-0.401306	
-0.401367	
-0.400635	
-0.399231	
-0.40094	
-0.400574	
-0.400635	
-0.400696	
-0.400574	
-0.400208	
-0.401062	
-0.401062	
-0.400452	
-0.400879	
-0.400146	
-0.400879	
-0.400757	
-0.400452	
-0.400269	
-0.401428	
-0.401184	
-0.400879	
-0.400757	
-0.401184	
-0.401611	
-0.401306	
-0.401184	
-0.401123	
-0.40094	
-0.401001	
-0.40094	
-0.401184	
-0.401123	
-0.400391	
-0.400574	
-0.401184	
-0.401245	
-0.4021	
-0.401489	
-0.401855	
-0.401917	
-0.401062	
-0.402588	
-0.403259	
-0.403015	
-0.402405	
-0.402344	
-0.402649	
-0.402649	
-0.403198	
-0.402771	
-0.402832	
-0.402649	
-0.403015	
-0.401978	
-0.401917	
-0.402771	
-0.402954	
-0.403625	
-0.402893	
-0.403137	
-0.403503	
-0.40387	
-0.40387	
-0.403564	
-0.40387	
-0.404114	
-0.404175	
-0.40332	
-0.404053	
-0.403992	
-0.404236	
-0.404053	
-0.404541	
-0.40387	
-0.403809	
-0.40387	
-0.404724	
-0.403198	
-0.403625	
-0.403442	
-0.402527	
-0.403442	
-0.403198	
-0.402649	
-0.403076	
-0.403076	
-0.402466	
-0.402832	
-0.402161	
-0.403137	
-0.402405	
-0.401733	
-0.40155	
-0.402283	
-0.402405	
-0.402283	
-0.402344	
-0.402283	
-0.403076	
-0.402405	
-0.401855	
-0.4021	
-0.402161	
-0.40155	
-0.401428	
-0.401489	
-0.400757	
-0.39978	
-0.40094	
-0.401123	
-0.401001	
-0.399597	
-0.400146	
-0.400635	
-0.400574	
-0.400879	
-0.401123	
-0.400574	
-0.399963	
-0.399292	
-0.399109	
-0.399109	
-0.399475	
-0.400269	
-0.400452	
-0.400513	
-0.400818	
-0.401123	
-0.400757	
-0.401978	
-0.401672	
-0.401855	
-0.40155	
-0.400452	
-0.401611	
-0.402039	
-0.401489	
-0.400513	
-0.401978	
-0.401978	
-0.401672	
-0.401672	
-0.402893	
-0.402832	
-0.402466	
-0.402466	
-0.402344	
-0.404053	
-0.403748	
-0.403748	
-0.40387	
-0.403809	
-0.402832	
-0.40448	
-0.403931	
-0.404114	
-0.404419	
-0.404236	
-0.403931	
-0.403992	
-0.404297	
-0.40387	
-0.404602	
-0.404358	
-0.404419	
-0.404114	
-0.403748	
-0.403748	
-0.404358	
-0.404175	
-0.40387	
-0.403931	
-0.403442	
-0.403076	
-0.403564	
-0.40387	
-0.403625	
-0.404541	
-0.403992	
-0.404236	
-0.403809	
-0.40387	
-0.404785	
-0.403992	
-0.404297	
-0.404419	
-0.403687	
-0.404602	
-0.40448	
-0.404907	
-0.405029	
-0.40509	
-0.405579	
-0.404602	
-0.405151	
-0.404724	
-0.40448	
-0.404053	
-0.404785	
-0.404175	
-0.404358	
-0.404541	
-0.404419	
-0.404602	
-0.404724	
-0.405396	
-0.404968	
-0.406311	
-0.405884	
-0.405701	
-0.405273	
-0.405396	
-0.404358	
-0.404846	
-0.405579	
-0.405457	
-0.404541	
-0.405151	
-0.405823	
-0.405396	
-0.405457	
-0.405701	
-0.407043	
-0.405518	
-0.405457	
-0.405029	
-0.404236	
-0.404846	
-0.405823	
-0.405579	
-0.405762	
-0.405945	
-0.405762	
-0.405945	
-0.405762	
-0.406006	
-0.406006	
-0.406494	
-0.405273	
-0.404968	
-0.404724	
-0.404358	
-0.404175	
-0.403809	
-0.403625	
-0.403564	
-0.403015	
-0.40271	
-0.402466	
-0.402954	
-0.401855	
-0.402344	
-0.402893	
-0.400818	
-0.401672	
-0.400757	
-0.401489	
-0.401794	
-0.402222	
-0.401794	
-0.401733	
-0.401917	
-0.403076	
-0.402283	
-0.402039	
-0.402771	
-0.402649	
-0.403259	
-0.402893	
-0.403381	
-0.402893	
-0.402771	
-0.40332	
-0.403381	
-0.403748	
-0.404358	
-0.403564	
-0.403564	
-0.40387	
-0.404053	
-0.404724	
-0.404541	
-0.405151	
-0.404968	
-0.404968	
-0.404724	
-0.40448	
-0.405151	
-0.405701	
-0.406372	
-0.40509	
-0.405212	
-0.405518	
-0.404968	
-0.406433	
-0.406189	
-0.406616	
-0.406616	
-0.406555	
-0.406494	
-0.406616	
-0.405518	
-0.407288	
-0.407349	
-0.40686	
-0.406372	
-0.40564	
-0.40686	
-0.406311	
-0.405762	
-0.405762	
-0.406433	
-0.405701	
-0.405579	
-0.406006	
-0.405396	
-0.404785	
-0.405518	
-0.406128	
-0.40564	
-0.405762	
-0.406067	
-0.406616	
-0.406494	
-0.405945	
-0.405884	
-0.407349	
-0.406555	
-0.406494	
-0.406616	
-0.406067	
-0.405151	
-0.406799	
-0.406921	
-0.406616	
-0.406799	
-0.407532	
-0.407471	
-0.40686	
-0.407166	
-0.407959	
-0.408264	
-0.408569	
-0.407349	
-0.407654	
-0.407532	
-0.405334	
-0.407532	
-0.406738	
-0.406982	
-0.407043	
-0.407104	
-0.406738	
-0.407104	
-0.407166	
-0.407654	
-0.40802	
-0.407349	
-0.406555	
-0.40625	
-0.407104	
-0.40625	
-0.406799	
-0.407104	
-0.407227	
-0.407166	
-0.407349	
-0.407227	
-0.406616	
-0.407043	
-0.407166	
-0.407349	
-0.405457	
-0.405579	
-0.405579	
-0.405457	
-0.405212	
-0.405273	
-0.405518	
-0.405151	
-0.405273	
-0.405457	
	
