E:\DOCUMENTS AND SETTINGS\JPOTAS\MEUS DOCUMENTOS\UFRJ\RSCI-BM 12 WK SERIES\070723-RSCI-BM-06\RSCI-BM-06-REMG\070723-RSCI-BM-REMG-0009.ACQ
0.025000 msec/sample
1 channel
Analog input
Volts
CH1	
2000	
-0.387512	
-0.386963	
-0.388306	
-0.387695	
-0.387512	
-0.38739	
-0.388123	
-0.388062	
-0.388123	
-0.38739	
-0.38739	
-0.387573	
-0.386658	
-0.387817	
-0.388062	
-0.387573	
-0.387817	
-0.388428	
-0.387756	
-0.387939	
-0.388184	
-0.387512	
-0.387085	
-0.386475	
-0.387329	
-0.387634	
-0.386963	
-0.387146	
-0.387939	
-0.388	
-0.387146	
-0.387085	
-0.387207	
-0.387085	
-0.386536	
-0.387512	
-0.387756	
-0.387146	
-0.38739	
-0.387634	
-0.387146	
-0.387268	
-0.38678	
-0.387207	
-0.387268	
-0.386658	
-0.387573	
-0.387512	
-0.387939	
-0.387634	
-0.387512	
-0.387207	
-0.387268	
-0.387268	
-0.387695	
-0.387085	
-0.386658	
-0.388428	
-0.388367	
-0.387817	
-0.387756	
-0.387817	
-0.387512	
-0.388184	
-0.387634	
-0.387878	
-0.387085	
-0.387512	
-0.389038	
-0.388245	
-0.387878	
-0.388123	
-0.38855	
-0.387756	
-0.387878	
-0.38739	
-0.388062	
-0.387695	
-0.387756	
-0.389038	
-0.388428	
-0.387939	
-0.388672	
-0.388184	
-0.387878	
-0.388794	
-0.388794	
-0.388733	
-0.387939	
-0.388367	
-0.389221	
-0.389343	
-0.389465	
-0.388428	
-0.388855	
-0.388367	
-0.389771	
-0.389038	
-0.389099	
-0.388367	
-0.388855	
-0.389954	
-0.390137	
-0.389771	
-0.389587	
-0.390015	
-0.388672	
-0.389832	
-0.389832	
-0.389648	
-0.38855	
-0.389587	
-0.39093	
-0.39032	
-0.390564	
-0.390198	
-0.390564	
-0.388977	
-0.389709	
-0.390869	
-0.390015	
-0.389038	
-0.389648	
-0.391113	
-0.390991	
-0.391113	
-0.390503	
-0.389343	
-0.388977	
-0.389832	
-0.390808	
-0.389954	
-0.388733	
-0.390015	
-0.390625	
-0.389587	
-0.389832	
-0.389221	
-0.38855	
-0.387695	
-0.388062	
-0.389099	
-0.388245	
-0.387207	
-0.387329	
-0.388794	
-0.387817	
-0.388794	
-0.388245	
-0.387878	
-0.387512	
-0.388428	
-0.38916	
-0.388306	
-0.387634	
-0.388	
-0.38916	
-0.389099	
-0.389099	
-0.388855	
-0.38916	
-0.387939	
-0.389648	
-0.389771	
-0.389038	
-0.388184	
-0.388916	
-0.390381	
-0.390137	
-0.389771	
-0.389404	
-0.390076	
-0.388977	
-0.39032	
-0.390198	
-0.390076	
-0.389587	
-0.389526	
-0.391113	
-0.390686	
-0.390869	
-0.39093	
-0.391541	
-0.390564	
-0.391907	
-0.391418	
-0.392273	
-0.391052	
-0.390808	
-0.39209	
-0.392456	
-0.392517	
-0.392151	
-0.391968	
-0.391846	
-0.392761	
-0.391846	
-0.388489	
-0.384216	
-0.383423	
-0.384766	
-0.38446	
-0.383057	
-0.386597	
-0.390503	
-0.39093	
-0.391907	
-0.390198	
-0.391113	
-0.389954	
-0.389709	
-0.391663	
-0.391296	
-0.390869	
-0.391113	
-0.390808	
-0.391052	
-0.390808	
-0.390198	
-0.390747	
-0.390686	
-0.390259	
-0.391663	
-0.391602	
-0.390991	
-0.391052	
-0.390381	
-0.390442	
-0.391174	
-0.390137	
-0.390747	
-0.390991	
-0.39032	
-0.391296	
-0.391785	
-0.390869	
-0.390259	
-0.390991	
-0.391174	
-0.391541	
-0.39093	
-0.391418	
-0.391296	
-0.390808	
-0.391357	
-0.391663	
-0.391479	
-0.39209	
-0.392395	
-0.392639	
-0.392639	
-0.392395	
-0.392334	
-0.392395	
-0.392395	
-0.393372	
-0.393677	
-0.393982	
-0.393982	
-0.393555	
-0.39447	
-0.394775	
-0.395142	
-0.395264	
-0.395386	
-0.39502	
-0.396851	
-0.396545	
-0.396057	
-0.397156	
-0.396912	
-0.397705	
-0.39679	
-0.396973	
-0.396973	
-0.397156	
-0.396606	
-0.398315	
-0.39856	
-0.396973	
-0.397583	
-0.397034	
-0.398193	
-0.396973	
-0.397156	
-0.397156	
-0.397949	
-0.398132	
-0.398804	
-0.398743	
-0.39856	
-0.398926	
-0.39917	
-0.40033	
-0.399902	
-0.401245	
-0.400757	
-0.401794	
-0.402344	
-0.403198	
-0.404419	
-0.404236	
-0.403442	
-0.404297	
-0.40564	
-0.405701	
-0.405212	
-0.405151	
-0.405762	
-0.406067	
-0.406616	
-0.405945	
-0.406555	
-0.40564	
-0.405701	
-0.404724	
-0.40625	
-0.404114	
-0.403564	
-0.402588	
-0.402527	
-0.401001	
-0.398865	
-0.398254	
-0.3974	
-0.3974	
-0.395081	
-0.395569	
-0.394531	
-0.394653	
-0.393311	
-0.395203	
-0.395752	
-0.395752	
-0.39563	
-0.39679	
-0.398804	
-0.399597	
-0.400818	
-0.402649	
-0.403931	
-0.405579	
-0.408142	
-0.40918	
-0.411011	
-0.409912	
-0.411926	
-0.413635	
-0.415588	
-0.416138	
-0.416016	
-0.418335	
-0.419861	
-0.420593	
-0.421326	
-0.421753	
-0.42218	
-0.424866	
-0.425232	
-0.426941	
-0.427307	
-0.428711	
-0.428528	
-0.432007	
-0.432556	
-0.433716	
-0.433777	
-0.434937	
-0.438477	
-0.439514	
-0.441467	
-0.443176	
-0.445801	
-0.447571	
-0.4505	
-0.451599	
-0.453491	
-0.453247	
-0.456177	
-0.457214	
-0.458923	
-0.459045	
-0.459351	
-0.460938	
-0.462158	
-0.463013	
-0.46228	
-0.462158	
-0.459351	
-0.45929	
-0.45697	
-0.456848	
-0.454224	
-0.451599	
-0.450684	
-0.450073	
-0.448975	
-0.446411	
-0.44519	
-0.443237	
-0.443176	
-0.439758	
-0.439514	
-0.437195	
-0.435913	
-0.433899	
-0.433044	
-0.431946	
-0.430603	
-0.42981	
-0.426575	
-0.427856	
-0.426514	
-0.427429	
-0.426025	
-0.425781	
-0.42572	
-0.426208	
-0.425842	
-0.424988	
-0.42395	
-0.422913	
-0.422607	
-0.421997	
-0.421265	
-0.41925	
-0.418335	
-0.416931	
-0.417053	
-0.416016	
-0.414612	
-0.412842	
-0.410706	
-0.411316	
-0.409424	
-0.408203	
-0.407043	
-0.406067	
-0.405518	
-0.405701	
-0.404297	
-0.404358	
-0.403076	
-0.403137	
-0.403625	
-0.402283	
-0.401611	
-0.400696	
-0.399963	
-0.399597	
-0.400146	
-0.398804	
-0.39856	
-0.397156	
-0.396423	
-0.39679	
-0.39563	
-0.394165	
-0.393311	
-0.393005	
-0.391785	
-0.392578	
-0.390625	
-0.389709	
-0.388428	
-0.388184	
-0.388428	
-0.387939	
-0.387512	
-0.38678	
-0.387695	
-0.387634	
-0.388977	
-0.387634	
-0.387939	
-0.38739	
-0.387634	
-0.385376	
-0.380615	
-0.378662	
-0.377502	
-0.377441	
-0.377502	
-0.381958	
-0.38385	
-0.384094	
-0.381592	
-0.383362	
-0.380676	
-0.381836	
-0.380249	
-0.379395	
-0.377686	
-0.378052	
-0.377319	
-0.376709	
-0.37561	
-0.372375	
-0.373962	
-0.372559	
-0.371948	
-0.370178	
-0.369751	
-0.369324	
-0.369263	
-0.36792	
-0.36731	
-0.365784	
-0.365417	
-0.365479	
-0.364929	
-0.362915	
-0.362	
-0.36145	
-0.361023	
-0.361816	
-0.360046	
-0.359558	
-0.358582	
-0.359314	
-0.35791	
-0.358643	
-0.358337	
-0.358826	
-0.35968	
-0.360474	
-0.361389	
-0.361877	
-0.361755	
-0.361694	
-0.364319	
-0.365112	
-0.364929	
-0.364868	
-0.367249	
-0.368347	
-0.369812	
-0.3703	
-0.371765	
-0.370667	
-0.371948	
-0.372742	
-0.373901	
-0.373962	
-0.375488	
-0.375793	
-0.376953	
-0.378601	
-0.378052	
-0.378906	
-0.377502	
-0.38031	
-0.379761	
-0.380371	
-0.379089	
-0.380432	
-0.380676	
-0.381531	
-0.381775	
-0.381958	
-0.381714	
-0.381958	
-0.382751	
-0.383362	
-0.383667	
-0.383789	
-0.382935	
-0.384827	
-0.386108	
-0.385437	
-0.387268	
-0.385864	
-0.387573	
-0.387695	
-0.388611	
-0.388977	
-0.390503	
-0.390747	
-0.392151	
-0.394226	
-0.393921	
-0.395386	
-0.393799	
-0.395935	
-0.395752	
-0.396484	
-0.396057	
-0.397339	
-0.397766	
-0.398438	
-0.39978	
-0.398499	
-0.399231	
-0.397766	
-0.398804	
-0.397705	
-0.397095	
-0.397034	
-0.396057	
-0.39502	
-0.39447	
-0.39447	
-0.393066	
-0.392334	
-0.390442	
-0.391724	
-0.391113	
-0.391296	
-0.391296	
-0.391479	
-0.392395	
-0.393555	
-0.394287	
-0.396057	
-0.396912	
-0.398804	
-0.400269	
-0.401917	
-0.403198	
-0.404968	
-0.405579	
-0.408508	
-0.411194	
-0.410706	
-0.412598	
-0.412354	
-0.413757	
-0.41449	
-0.414612	
-0.415588	
-0.415588	
-0.415833	
-0.416626	
-0.417114	
-0.417969	
-0.418762	
-0.4198	
-0.420166	
-0.421265	
-0.421631	
-0.423401	
-0.424194	
-0.426697	
-0.429382	
-0.429504	
-0.432129	
-0.432129	
-0.435486	
-0.437378	
-0.438843	
-0.441345	
-0.442871	
-0.44458	
-0.446289	
-0.44812	
-0.448914	
-0.451477	
-0.44989	
-0.452576	
-0.453247	
-0.453369	
-0.454346	
-0.453857	
-0.453186	
-0.453064	
-0.451233	
-0.449829	
-0.448547	
-0.447632	
-0.445129	
-0.443726	
-0.441956	
-0.440369	
-0.438721	
-0.437378	
-0.436279	
-0.433472	
-0.432129	
-0.42981	
-0.42926	
-0.426575	
-0.425415	
-0.423035	
-0.421875	
-0.42041	
-0.420471	
-0.419983	
-0.418213	
-0.418091	
-0.417358	
-0.417114	
-0.41687	
-0.416199	
-0.41571	
-0.41571	
-0.414368	
-0.414001	
-0.414917	
-0.412109	
-0.411865	
-0.409241	
-0.409607	
-0.409668	
-0.408569	
-0.407959	
-0.40741	
-0.406494	
-0.40625	
-0.405701	
-0.404663	
-0.404785	
-0.402588	
-0.402649	
-0.401794	
-0.400757	
-0.399658	
-0.398987	
-0.398438	
-0.398254	
-0.397278	
-0.396362	
-0.396057	
-0.394714	
-0.393982	
-0.392395	
-0.391724	
-0.391785	
-0.391357	
-0.39032	
-0.389709	
-0.389099	
-0.388367	
-0.388062	
-0.385803	
-0.385071	
-0.38501	
-0.38446	
-0.383484	
-0.38208	
-0.382141	
-0.381653	
-0.380554	
-0.380249	
-0.379333	
-0.379822	
-0.378601	
-0.378174	
-0.377319	
-0.377625	
-0.375977	
-0.376587	
-0.377625	
-0.376343	
-0.375671	
-0.374756	
-0.374146	
-0.374268	
-0.37384	
-0.37262	
-0.373413	
-0.373047	
-0.372559	
-0.373413	
-0.372253	
-0.372009	
-0.370117	
-0.370605	
-0.369751	
-0.368225	
-0.367676	
-0.367249	
-0.366882	
-0.366699	
-0.366394	
-0.365601	
-0.36554	
-0.363647	
-0.363892	
-0.363342	
-0.362915	
-0.364441	
-0.364014	
-0.365906	
-0.36676	
-0.366211	
-0.366943	
-0.366821	
-0.36792	
-0.368286	
-0.368835	
-0.369446	
-0.370483	
-0.371582	
-0.372314	
-0.374451	
-0.373108	
-0.373718	
-0.373291	
-0.374084	
-0.374512	
-0.374512	
-0.375793	
-0.375183	
-0.375549	
-0.375977	
-0.37561	
-0.376099	
-0.376099	
-0.376587	
-0.376587	
-0.376343	
-0.376343	
-0.37616	
-0.375122	
-0.376831	
-0.378418	
-0.377197	
-0.377686	
-0.377136	
-0.37793	
-0.37854	
-0.378052	
-0.378723	
-0.378967	
-0.378723	
-0.379211	
-0.379883	
-0.3797	
-0.379883	
-0.378723	
-0.380005	
-0.380371	
-0.379822	
-0.380554	
-0.380554	
-0.381531	
-0.382446	
-0.381897	
-0.381958	
-0.38208	
-0.381531	
-0.382324	
-0.382263	
-0.382935	
-0.382935	
-0.382935	
-0.383484	
-0.384949	
-0.384583	
-0.385193	
-0.385559	
-0.385437	
-0.38562	
-0.385498	
-0.386047	
-0.386047	
-0.386658	
-0.387085	
-0.388062	
-0.387024	
-0.388428	
-0.387329	
-0.387634	
-0.387817	
-0.387207	
-0.388123	
-0.387329	
-0.388062	
-0.388489	
-0.388916	
-0.387756	
-0.387573	
-0.385803	
-0.387573	
-0.387085	
-0.386169	
-0.386902	
-0.386414	
-0.387756	
-0.387451	
-0.388428	
-0.387939	
-0.387512	
-0.385864	
-0.387268	
-0.387146	
-0.386963	
-0.387024	
-0.386597	
-0.387756	
-0.388184	
-0.38855	
-0.388306	
-0.387817	
-0.385986	
-0.387512	
-0.387207	
-0.387878	
-0.38739	
-0.388123	
-0.388611	
-0.388794	
-0.388977	
-0.389465	
-0.388916	
-0.387634	
-0.388977	
-0.388062	
-0.388794	
-0.388611	
-0.388794	
-0.38855	
-0.389954	
-0.388428	
-0.389526	
-0.389404	
-0.388733	
-0.389648	
-0.388184	
-0.389038	
-0.389282	
-0.388977	
-0.389465	
-0.39032	
-0.389832	
-0.390015	
-0.389526	
-0.389893	
-0.390198	
-0.389038	
-0.390442	
-0.390198	
-0.390564	
-0.390808	
-0.391174	
-0.390381	
-0.390259	
-0.388733	
-0.389954	
-0.390259	
-0.390015	
-0.389404	
-0.388184	
-0.389221	
-0.389404	
-0.389587	
-0.389221	
-0.38855	
-0.386719	
-0.387939	
-0.388306	
-0.387756	
-0.387268	
-0.386475	
-0.387451	
-0.387451	
-0.387878	
-0.387512	
-0.38739	
-0.386292	
-0.386536	
-0.387634	
-0.387634	
-0.387817	
-0.386536	
-0.387695	
-0.388306	
-0.389771	
-0.389099	
-0.389038	
-0.388062	
-0.387817	
-0.388855	
-0.388611	
-0.388672	
-0.387329	
-0.38855	
-0.389648	
-0.389526	
-0.388916	
-0.38916	
-0.387878	
-0.388977	
-0.387817	
-0.388672	
-0.388794	
-0.389282	
-0.389404	
-0.389893	
-0.390137	
-0.389526	
-0.387939	
-0.388428	
-0.38916	
-0.38916	
-0.388672	
-0.388977	
-0.389282	
-0.389282	
-0.389465	
-0.390137	
-0.389465	
-0.388489	
-0.388733	
-0.390015	
-0.389099	
-0.389465	
-0.388916	
-0.38916	
-0.389893	
-0.390564	
-0.389038	
-0.390076	
-0.38916	
-0.389099	
-0.39032	
-0.389465	
-0.389587	
-0.389221	
-0.390076	
-0.390625	
-0.390625	
-0.390015	
-0.39032	
-0.389038	
-0.39032	
-0.390991	
-0.390198	
-0.390442	
-0.390076	
-0.389893	
-0.390808	
-0.390747	
-0.390076	
-0.389587	
-0.389099	
-0.39032	
-0.389404	
-0.390137	
-0.390503	
-0.389099	
-0.390137	
-0.390686	
-0.390564	
-0.389709	
-0.389709	
-0.389404	
-0.390259	
-0.389526	
-0.390198	
-0.389832	
-0.388733	
-0.390381	
-0.390259	
-0.390625	
-0.390015	
-0.390198	
-0.388855	
-0.39032	
-0.389099	
-0.389954	
-0.389648	
-0.388428	
-0.391113	
-0.390381	
-0.390259	
-0.389404	
-0.389282	
-0.388733	
-0.389709	
-0.38916	
-0.389709	
-0.389648	
-0.389648	
-0.390381	
-0.390137	
-0.390564	
-0.388794	
-0.389221	
-0.38855	
-0.389709	
-0.389832	
-0.389343	
-0.389709	
-0.389832	
-0.389709	
-0.390137	
-0.39032	
-0.388916	
-0.389282	
-0.388428	
-0.389465	
-0.389709	
-0.389404	
-0.388977	
-0.389221	
-0.388977	
-0.389465	
-0.388672	
-0.388306	
-0.387878	
-0.386719	
-0.388489	
-0.388367	
-0.388184	
-0.388	
-0.388428	
-0.38739	
-0.388489	
-0.388184	
-0.388245	
-0.387329	
-0.386414	
-0.387817	
-0.387085	
-0.387329	
-0.387024	
-0.387085	
-0.386963	
-0.387634	
-0.387207	
-0.387756	
-0.38623	
-0.385559	
-0.387024	
-0.386597	
-0.386353	
-0.387024	
-0.386536	
-0.38678	
-0.387207	
-0.387268	
-0.387146	
-0.38678	
-0.386902	
-0.387695	
-0.388062	
-0.388489	
-0.387939	
-0.388855	
-0.388977	
-0.38916	
-0.388611	
-0.388611	
-0.387756	
-0.387634	
-0.389282	
-0.389099	
-0.388977	
-0.388428	
-0.389709	
-0.388977	
-0.388733	
-0.388245	
-0.388184	
-0.388062	
-0.387573	
-0.388489	
-0.388306	
-0.388	
-0.387207	
-0.388428	
-0.387634	
-0.388306	
-0.387695	
-0.386841	
-0.387146	
-0.387085	
-0.387573	
-0.386963	
-0.387024	
-0.385498	
-0.387878	
-0.387268	
-0.387024	
-0.38678	
-0.386475	
-0.386414	
-0.385803	
-0.386719	
-0.386292	
-0.385559	
-0.384644	
-0.386108	
-0.386108	
-0.385254	
-0.384766	
-0.38501	
-0.384949	
-0.384644	
-0.384949	
-0.384766	
-0.385315	
-0.384155	
-0.385193	
-0.385498	
-0.38501	
-0.38446	
-0.384705	
-0.384644	
-0.384521	
-0.385254	
-0.385254	
-0.385193	
-0.386108	
-0.386597	
-0.38678	
-0.386597	
-0.385315	
-0.385132	
-0.385315	
-0.385681	
-0.386169	
-0.386414	
-0.385742	
-0.386169	
-0.386353	
-0.386597	
-0.386475	
-0.38623	
-0.385376	
-0.385681	
-0.386292	
-0.385864	
-0.385925	
-0.385742	
-0.385681	
-0.385681	
-0.38678	
-0.386536	
-0.386597	
-0.385254	
-0.385925	
-0.385925	
-0.386047	
-0.385986	
-0.385742	
-0.386047	
-0.386292	
-0.386597	
-0.387024	
-0.387207	
-0.385437	
-0.386475	
-0.387512	
-0.386658	
-0.387024	
-0.387207	
-0.387024	
-0.38678	
-0.387634	
-0.38739	
-0.387756	
-0.385742	
-0.386475	
-0.386658	
-0.386841	
-0.387085	
-0.386719	
-0.386963	
-0.386841	
-0.386963	
-0.387451	
-0.387207	
-0.385193	
-0.385864	
-0.38623	
-0.386841	
-0.386536	
-0.386353	
-0.386963	
-0.38678	
-0.386963	
-0.387756	
-0.386963	
-0.38623	
-0.386597	
-0.387146	
-0.387268	
-0.387695	
-0.38739	
-0.38855	
-0.388184	
-0.387939	
-0.388794	
-0.388123	
-0.388489	
-0.387573	
-0.388794	
-0.388611	
-0.388733	
-0.388733	
-0.389648	
-0.388733	
-0.389038	
-0.388916	
-0.388123	
-0.388123	
-0.387512	
-0.38855	
-0.388489	
-0.388794	
-0.387878	
-0.389709	
-0.389648	
-0.389526	
-0.388733	
-0.388733	
-0.38916	
-0.387329	
-0.388489	
-0.388733	
-0.388489	
-0.387451	
-0.389343	
-0.389099	
-0.388733	
-0.387573	
-0.387939	
-0.388306	
-0.387207	
-0.387573	
-0.388062	
-0.388	
-0.388062	
-0.388489	
-0.389038	
-0.388123	
-0.38739	
-0.388	
-0.388123	
-0.387024	
-0.387634	
-0.387756	
-0.38739	
-0.387817	
-0.388123	
-0.388855	
-0.388184	
-0.38739	
-0.387939	
-0.388	
-0.386841	
-0.388	
-0.387939	
-0.38739	
-0.387878	
-0.388245	
-0.388916	
-0.387878	
-0.387695	
-0.387817	
-0.388245	
-0.387329	
-0.387939	
-0.388123	
-0.387695	
-0.387634	
-0.387878	
-0.388611	
-0.387817	
-0.387451	
-0.387024	
-0.387268	
-0.387207	
-0.387573	
-0.388	
-0.387512	
-0.387512	
-0.387329	
-0.388123	
-0.387695	
-0.387207	
-0.386963	
-0.387268	
-0.388	
-0.387756	
-0.387573	
-0.387512	
-0.388306	
-0.388	
-0.388916	
-0.388	
-0.388306	
-0.387207	
-0.388428	
-0.389099	
-0.388	
-0.388245	
-0.388123	
-0.388672	
-0.388733	
-0.388672	
-0.388489	
-0.388733	
-0.387512	
-0.388367	
-0.389038	
-0.388733	
-0.388672	
-0.388672	
-0.388733	
-0.388611	
-0.388977	
-0.38916	
-0.389038	
-0.388672	
-0.388855	
-0.389709	
-0.388977	
-0.389038	
-0.388428	
-0.389282	
-0.389832	
-0.388977	
-0.389343	
-0.389893	
-0.389221	
-0.388977	
-0.389709	
-0.390015	
-0.389648	
-0.38916	
-0.389832	
-0.39032	
-0.390198	
-0.390564	
-0.389832	
-0.389893	
-0.389343	
-0.389526	
-0.390076	
-0.390076	
-0.389404	
-0.391052	
-0.391174	
-0.390076	
-0.390564	
-0.390015	
-0.389893	
-0.390442	
-0.39032	
-0.390991	
-0.390808	
-0.389526	
-0.390991	
-0.390442	
-0.390442	
-0.390808	
-0.390137	
-0.391235	
-0.390869	
-0.390442	
-0.390686	
-0.391296	
-0.389587	
-0.391418	
-0.39032	
-0.390625	
-0.391968	
-0.391113	
-0.391724	
-0.390991	
-0.390747	
-0.390564	
-0.390808	
-0.389526	
-0.390808	
-0.390137	
-0.390259	
-0.390442	
-0.38916	
-0.389709	
-0.388306	
-0.388428	
-0.389221	
-0.388977	
-0.388123	
-0.389954	
-0.38916	
-0.388794	
-0.389343	
-0.389038	
-0.389099	
-0.38855	
-0.388733	
-0.389099	
-0.38916	
-0.388611	
-0.390442	
-0.390015	
-0.389771	
-0.389709	
-0.389954	
-0.389771	
-0.389465	
-0.389954	
-0.390381	
-0.389709	
-0.389954	
-0.391907	
-0.390747	
-0.390808	
-0.390564	
-0.391052	
-0.390747	
-0.391174	
-0.391052	
-0.391541	
-0.391418	
-0.391052	
-0.392822	
-0.391785	
-0.392151	
-0.391418	
-0.392334	
-0.392456	
-0.392578	
-0.392517	
-0.393005	
-0.392822	
-0.392334	
-0.393921	
-0.393188	
-0.393311	
-0.3927	
-0.393066	
-0.392944	
-0.393494	
-0.393066	
-0.393372	
-0.393066	
-0.392944	
-0.393738	
-0.393372	
-0.393311	
-0.391602	
-0.392456	
-0.392151	
-0.392212	
-0.392334	
-0.391785	
-0.391785	
-0.392212	
-0.392395	
-0.391968	
-0.391968	
-0.390686	
-0.39209	
-0.391968	
-0.391968	
-0.392456	
-0.391663	
-0.391602	
-0.392273	
-0.392273	
-0.391357	
-0.391968	
-0.391357	
-0.392395	
-0.392456	
-0.392273	
-0.39209	
-0.39209	
-0.391785	
-0.392273	
-0.391785	
-0.391785	
-0.391907	
-0.391846	
-0.392151	
-0.392151	
-0.391907	
-0.391785	
-0.39209	
-0.390991	
-0.391357	
-0.391663	
-0.391418	
-0.391235	
-0.392029	
-0.390869	
-0.390686	
-0.391235	
-0.39093	
-0.391052	
-0.391357	
-0.391296	
-0.391113	
-0.390869	
-0.391113	
-0.391724	
-0.390808	
-0.391602	
-0.391663	
-0.391602	
-0.391235	
-0.391113	
-0.391541	
-0.391724	
-0.391418	
-0.391846	
-0.392151	
-0.391296	
-0.391296	
-0.391052	
-0.391602	
-0.391296	
-0.391235	
-0.390686	
-0.391113	
-0.390808	
-0.391296	
-0.391296	
-0.390137	
-0.390137	
-0.389954	
-0.39032	
-0.39032	
-0.390259	
-0.389587	
-0.390076	
-0.389709	
-0.390137	
-0.390259	
-0.389587	
-0.389221	
-0.389221	
-0.389954	
-0.389404	
-0.389771	
-0.389465	
-0.390503	
-0.389771	
-0.390503	
-0.390259	
-0.390442	
-0.389282	
-0.389465	
-0.390808	
-0.390259	
-0.390076	
-0.389343	
-0.390869	
-0.390442	
-0.390259	
-0.388855	
-0.390015	
-0.390198	
-0.390076	
-0.390015	
-0.390381	
-0.389954	
-0.389221	
-0.390686	
-0.390442	
-0.389893	
-0.388733	
-0.389954	
-0.389771	
-0.39032	
-0.390015	
-0.390198	
-0.39032	
-0.390869	
-0.39093	
-0.389893	
-0.389893	
-0.38916	
-0.390015	
-0.390137	
-0.390747	
-0.390442	
-0.390442	
-0.390625	
-0.389893	
-0.390503	
-0.390686	
-0.390564	
-0.389954	
-0.39032	
-0.390259	
-0.390137	
-0.390503	
-0.390381	
-0.390381	
-0.390198	
-0.390747	
-0.390869	
-0.391052	
-0.390564	
-0.390259	
-0.390137	
-0.391785	
-0.391113	
-0.390869	
-0.391663	
-0.391479	
-0.390747	
-0.391235	
-0.391479	
-0.390686	
-0.390686	
-0.390625	
-0.391357	
-0.391235	
-0.390991	
-0.390808	
-0.391296	
-0.390808	
-0.391235	
-0.39093	
-0.390503	
-0.390625	
-0.390076	
-0.390869	
-0.390808	
-0.390991	
-0.390991	
-0.391052	
-0.390625	
-0.390869	
-0.391174	
-0.390625	
-0.39032	
-0.389404	
-0.390747	
-0.390442	
-0.39032	
-0.390259	
-0.391052	
-0.390259	
-0.39032	
-0.390747	
-0.390198	
-0.389771	
-0.38916	
-0.390564	
-0.390076	
-0.389771	
-0.389954	
-0.391174	
-0.390198	
-0.390686	
-0.390686	
-0.389771	
-0.389709	
-0.388916	
-0.390686	
-0.39032	
-0.390564	
-0.389954	
-0.391663	
-0.390076	
-0.390198	
-0.39032	
-0.389587	
-0.389587	
-0.388855	
-0.391113	
-0.390137	
-0.39032	
-0.389099	
-0.391235	
-0.389526	
-0.389099	
-0.388184	
-0.38855	
-0.388428	
-0.387085	
-0.389343	
-0.389221	
-0.388855	
-0.387634	
-0.390625	
-0.38855	
-0.388306	
-0.387634	
-0.388	
-0.387756	
-0.386108	
-0.388672	
-0.38855	
-0.388367	
-0.387268	
-0.389771	
-0.387817	
-0.387939	
-0.386658	
-0.387878	
-0.387329	
-0.386719	
-0.387939	
-0.388306	
-0.388123	
-0.388062	
-0.38855	
-0.387329	
-0.388184	
-0.386108	
-0.388367	
-0.388977	
-0.388306	
-0.388733	
-0.389465	
-0.389221	
-0.389526	
-0.389648	
-0.389893	
-0.39032	
-0.388672	
-0.389709	
-0.389709	
-0.388794	
-0.389771	
-0.390076	
-0.390076	
-0.390625	
-0.389893	
-0.389648	
-0.389709	
-0.38855	
-0.389771	
-0.389343	
-0.388611	
-0.388794	
-0.389099	
-0.389221	
-0.389221	
-0.388977	
-0.388672	
-0.389526	
-0.387756	
-0.388489	
-0.388367	
-0.387756	
-0.387939	
-0.388062	
-0.388062	
-0.388245	
-0.387817	
-0.387878	
-0.388367	
-0.387634	
-0.387695	
-0.38678	
-0.386719	
-0.387268	
-0.387268	
-0.38678	
-0.38678	
-0.386108	
-0.386169	
-0.386536	
-0.385864	
-0.38623	
-0.385132	
-0.385498	
-0.385864	
-0.386292	
-0.386047	
-0.38678	
-0.386047	
-0.386475	
-0.386353	
-0.385437	
-0.385559	
-0.38562	
-0.385742	
-0.386353	
-0.386475	
-0.386292	
-0.387207	
-0.387146	
-0.387268	
-0.387573	
-0.386414	
-0.386719	
-0.386047	
-0.386047	
-0.386658	
-0.387085	
-0.386902	
-0.388306	
-0.387268	
-0.387146	
-0.387512	
-0.387085	
-0.386719	
-0.386047	
-0.386536	
-0.387085	
-0.387146	
-0.386963	
-0.38855	
-0.387207	
-0.387024	
-0.38739	
-0.386902	
-0.387085	
-0.38623	
-0.386719	
-0.387329	
-0.387268	
-0.387024	
-0.388489	
-0.387817	
-0.387756	
-0.387207	
-0.387695	
-0.387878	
-0.387024	
-0.388428	
-0.388611	
-0.388611	
-0.388184	
-0.389526	
-0.388306	
-0.388	
-0.388	
-0.388367	
-0.388123	
-0.387085	
-0.388672	
-0.388306	
-0.387512	
-0.387817	
-0.389465	
-0.387634	
-0.388	
-0.387451	
-0.387817	
-0.387451	
-0.387024	
-0.387634	
-0.387939	
-0.387573	
-0.387573	
-0.388733	
-0.387634	
-0.388306	
-0.387146	
-0.388184	
-0.388367	
-0.387939	
-0.388672	
-0.38855	
-0.38855	
-0.388428	
-0.390259	
-0.388916	
-0.38916	
-0.38855	
-0.389954	
-0.389343	
-0.38916	
-0.389954	
-0.389893	
-0.390259	
-0.389771	
-0.390686	
-0.389465	
-0.390076	
-0.388367	
-0.389099	
-0.388977	
-0.388916	
-0.390137	
-0.389771	
-0.389587	
-0.389954	
-0.391174	
-0.390015	
-0.390076	
-0.389282	
-0.389954	
-0.389526	
-0.388489	
-0.390686	
-0.390137	
-0.389465	
-0.390076	
-0.391235	
-0.389648	
-0.388916	
-0.388245	
-0.390015	
-0.389343	
-0.388306	
-0.390137	
-0.389404	
-0.389343	
-0.389526	
-0.390564	
-0.388855	
-0.389526	
-0.389038	
-0.389587	
-0.388916	
-0.387817	
	
