E:\DOCUMENTS AND SETTINGS\JPOTAS\MEUS DOCUMENTOS\UFRJ\RSCI-BM 12 WK SERIES\070723-RSCI-BM-06\RSCI-BM-06-REMG\070723-RSCI-BM-REMG-0001.ACQ
0.025000 msec/sample
1 channel
Analog input
Volts
CH1	
2000	
-0.389832	
-0.389954	
-0.389954	
-0.390564	
-0.390625	
-0.391052	
-0.390625	
-0.391174	
-0.391785	
-0.391602	
-0.392212	
-0.39209	
-0.392273	
-0.391968	
-0.391846	
-0.392212	
-0.39209	
-0.392151	
-0.3927	
-0.393616	
-0.392883	
-0.393188	
-0.393188	
-0.393616	
-0.393616	
-0.393433	
-0.393372	
-0.393799	
-0.393616	
-0.393982	
-0.394226	
-0.394287	
-0.39502	
-0.395203	
-0.394775	
-0.394165	
-0.394836	
-0.395508	
-0.395264	
-0.395264	
-0.395081	
-0.395386	
-0.395935	
-0.395447	
-0.39502	
-0.394958	
-0.394836	
-0.394409	
-0.394165	
-0.393982	
-0.394836	
-0.393982	
-0.394043	
-0.39386	
-0.393372	
-0.392944	
-0.393738	
-0.393188	
-0.393188	
-0.393127	
-0.392639	
-0.392578	
-0.393677	
-0.39325	
-0.393494	
-0.393494	
-0.393738	
-0.393372	
-0.393005	
-0.393555	
-0.393738	
-0.39386	
-0.393494	
-0.393188	
-0.393005	
-0.393616	
-0.393188	
-0.393555	
-0.393616	
-0.393555	
-0.393677	
-0.393372	
-0.393188	
-0.393799	
-0.393066	
-0.393433	
-0.393127	
-0.392883	
-0.393127	
-0.393188	
-0.3927	
-0.393188	
-0.393066	
-0.392822	
-0.392883	
-0.39209	
-0.392578	
-0.392395	
-0.392029	
-0.392456	
-0.392334	
-0.392273	
-0.392395	
-0.3927	
-0.393188	
-0.392334	
-0.392273	
-0.393372	
-0.393494	
-0.393066	
-0.393433	
-0.393311	
-0.393494	
-0.393677	
-0.393494	
-0.393494	
-0.393677	
-0.393677	
-0.393738	
-0.394043	
-0.393555	
-0.393311	
-0.393616	
-0.393372	
-0.392944	
-0.392883	
-0.392578	
-0.3927	
-0.392822	
-0.39209	
-0.391663	
-0.391357	
-0.391418	
-0.391541	
-0.391357	
-0.39093	
-0.391174	
-0.390869	
-0.390625	
-0.390747	
-0.391113	
-0.390686	
-0.391296	
-0.390869	
-0.390808	
-0.391174	
-0.391785	
-0.391418	
-0.391602	
-0.391785	
-0.391479	
-0.391541	
-0.392273	
-0.391785	
-0.391602	
-0.391846	
-0.391113	
-0.390564	
-0.390869	
-0.391113	
-0.390686	
-0.39093	
-0.391418	
-0.391663	
-0.391357	
-0.391663	
-0.39209	
-0.391724	
-0.391724	
-0.391724	
-0.39209	
-0.392151	
-0.391724	
-0.392578	
-0.392578	
-0.392395	
-0.392395	
-0.392273	
-0.392151	
-0.392639	
-0.392212	
-0.392212	
-0.392334	
-0.392273	
-0.392395	
-0.392395	
-0.392761	
-0.392212	
-0.392395	
-0.391907	
-0.39209	
-0.392151	
-0.392334	
-0.392151	
-0.391846	
-0.392029	
-0.391968	
-0.385376	
-0.390076	
-0.391602	
-0.392212	
-0.392456	
-0.392761	
-0.3927	
-0.392212	
-0.391968	
-0.391968	
-0.392334	
-0.39209	
-0.392761	
-0.392395	
-0.39209	
-0.392029	
-0.392822	
-0.3927	
-0.392151	
-0.392761	
-0.392517	
-0.392273	
-0.392334	
-0.392822	
-0.392456	
-0.392151	
-0.391296	
-0.390991	
-0.390869	
-0.39093	
-0.391113	
-0.391541	
-0.391602	
-0.391968	
-0.391052	
-0.391235	
-0.39093	
-0.391357	
-0.392029	
-0.391541	
-0.391907	
-0.391235	
-0.390442	
-0.390991	
-0.391479	
-0.391418	
-0.391724	
-0.390991	
-0.391663	
-0.392029	
-0.392151	
-0.391602	
-0.391663	
-0.391663	
-0.392334	
-0.392456	
-0.392883	
-0.393188	
-0.393494	
-0.393066	
-0.393982	
-0.39325	
-0.39325	
-0.393555	
-0.393738	
-0.39325	
-0.392822	
-0.393311	
-0.393005	
-0.393005	
-0.392944	
-0.393555	
-0.393066	
-0.393433	
-0.393799	
-0.393188	
-0.393005	
-0.393188	
-0.393555	
-0.392761	
-0.393066	
-0.393127	
-0.393311	
-0.394043	
-0.393616	
-0.393982	
-0.394226	
-0.394226	
-0.394287	
-0.394592	
-0.395081	
-0.395081	
-0.395508	
-0.395203	
-0.396118	
-0.396667	
-0.397339	
-0.397522	
-0.39801	
-0.398743	
-0.398743	
-0.398865	
-0.399048	
-0.399353	
-0.399658	
-0.399841	
-0.399292	
-0.398926	
-0.399902	
-0.398743	
-0.39801	
-0.398315	
-0.398193	
-0.396851	
-0.396851	
-0.396851	
-0.395447	
-0.395264	
-0.39447	
-0.393311	
-0.391541	
-0.390564	
-0.389221	
-0.38855	
-0.387268	
-0.386353	
-0.38562	
-0.384888	
-0.384583	
-0.384155	
-0.383484	
-0.383728	
-0.38324	
-0.383423	
-0.38385	
-0.384521	
-0.384583	
-0.385254	
-0.385315	
-0.385925	
-0.386108	
-0.386414	
-0.38739	
-0.387329	
-0.387512	
-0.388367	
-0.389282	
-0.389893	
-0.390625	
-0.392395	
-0.393372	
-0.394653	
-0.396118	
-0.397095	
-0.398193	
-0.399963	
-0.40155	
-0.403442	
-0.404724	
-0.405823	
-0.407593	
-0.409241	
-0.411438	
-0.41333	
-0.41449	
-0.416809	
-0.418945	
-0.420471	
-0.422241	
-0.425171	
-0.427063	
-0.430054	
-0.432861	
-0.434631	
-0.436707	
-0.439209	
-0.442017	
-0.443848	
-0.446472	
-0.448059	
-0.450073	
-0.451721	
-0.453857	
-0.455383	
-0.456238	
-0.456299	
-0.457397	
-0.456848	
-0.456116	
-0.455444	
-0.453613	
-0.452576	
-0.452087	
-0.449707	
-0.448303	
-0.446533	
-0.44519	
-0.44342	
-0.441345	
-0.439392	
-0.438171	
-0.437073	
-0.434937	
-0.433533	
-0.432007	
-0.430298	
-0.428833	
-0.427795	
-0.426575	
-0.425964	
-0.425171	
-0.424194	
-0.423645	
-0.422729	
-0.421997	
-0.421509	
-0.420532	
-0.420471	
-0.419617	
-0.419189	
-0.418701	
-0.418213	
-0.417725	
-0.417053	
-0.416931	
-0.416321	
-0.415527	
-0.415405	
-0.414612	
-0.414124	
-0.413269	
-0.41272	
-0.411377	
-0.411194	
-0.411011	
-0.410095	
-0.408875	
-0.408691	
-0.408813	
-0.407715	
-0.407776	
-0.408142	
-0.407715	
-0.407288	
-0.407715	
-0.406982	
-0.406616	
-0.406006	
-0.40509	
-0.404846	
-0.404114	
-0.403687	
-0.403259	
-0.403503	
-0.403076	
-0.402649	
-0.401978	
-0.401978	
-0.40155	
-0.400208	
-0.40033	
-0.399719	
-0.399048	
-0.398804	
-0.398376	
-0.397888	
-0.3974	
-0.3974	
-0.396606	
-0.39624	
-0.395874	
-0.395447	
-0.395569	
-0.395264	
-0.395142	
-0.394836	
-0.394836	
-0.394531	
-0.394653	
-0.394287	
-0.394409	
-0.394165	
-0.393188	
-0.392944	
-0.3927	
-0.392029	
-0.391541	
-0.391418	
-0.390259	
-0.390137	
-0.389893	
-0.389221	
-0.389038	
-0.388428	
-0.388	
-0.387268	
-0.386475	
-0.385376	
-0.383911	
-0.382385	
-0.38147	
-0.38092	
-0.379883	
-0.378967	
-0.377991	
-0.377258	
-0.37677	
-0.37561	
-0.374939	
-0.373779	
-0.373291	
-0.371948	
-0.371094	
-0.370483	
-0.3703	
-0.369385	
-0.369385	
-0.368713	
-0.368286	
-0.368225	
-0.367371	
-0.367126	
-0.36676	
-0.366577	
-0.36615	
-0.365906	
-0.365845	
-0.365479	
-0.365295	
-0.365051	
-0.364502	
-0.363831	
-0.364685	
-0.365479	
-0.364807	
-0.365112	
-0.365234	
-0.365784	
-0.365601	
-0.366028	
-0.366516	
-0.366882	
-0.367371	
-0.368042	
-0.368713	
-0.368958	
-0.369507	
-0.370605	
-0.371033	
-0.371643	
-0.371887	
-0.372253	
-0.373108	
-0.373474	
-0.373413	
-0.373535	
-0.374023	
-0.373901	
-0.375	
-0.375183	
-0.376282	
-0.376465	
-0.376892	
-0.376953	
-0.376587	
-0.376282	
-0.376648	
-0.377625	
-0.377563	
-0.377441	
-0.377625	
-0.377197	
-0.37738	
-0.377625	
-0.378357	
-0.378784	
-0.379211	
-0.378418	
-0.378662	
-0.378357	
-0.378906	
-0.379211	
-0.378906	
-0.379028	
-0.379822	
-0.379944	
-0.379456	
-0.379761	
-0.379456	
-0.379578	
-0.379517	
-0.379822	
-0.379028	
-0.379456	
-0.380066	
-0.379822	
-0.379822	
-0.380127	
-0.38031	
-0.38092	
-0.381104	
-0.381287	
-0.381531	
-0.381287	
-0.381592	
-0.381287	
-0.381592	
-0.382019	
-0.382568	
-0.38269	
-0.38324	
-0.382996	
-0.383301	
-0.383667	
-0.38385	
-0.384338	
-0.38446	
-0.384705	
-0.385071	
-0.385742	
-0.385437	
-0.386108	
-0.386047	
-0.386719	
-0.386963	
-0.387207	
-0.387268	
-0.387512	
-0.387573	
-0.387207	
-0.387512	
-0.387756	
-0.387329	
-0.387939	
-0.387878	
-0.387756	
-0.388123	
-0.388306	
-0.388	
-0.38855	
-0.38855	
-0.387939	
-0.388489	
-0.388367	
-0.388	
-0.387939	
-0.388611	
-0.387756	
-0.387878	
-0.387817	
-0.387024	
-0.386597	
-0.386414	
-0.386169	
-0.384949	
-0.385742	
-0.38562	
-0.385193	
-0.384949	
-0.384521	
-0.384277	
-0.383911	
-0.38385	
-0.38385	
-0.383789	
-0.384338	
-0.384155	
-0.384277	
-0.384583	
-0.385132	
-0.385132	
-0.385254	
-0.385498	
-0.385742	
-0.386292	
-0.386169	
-0.38678	
-0.386719	
-0.386597	
-0.387085	
-0.38739	
-0.387756	
-0.388062	
-0.387634	
-0.387878	
-0.388489	
-0.388855	
-0.388977	
-0.38916	
-0.389465	
-0.390076	
-0.390198	
-0.390625	
-0.390686	
-0.390991	
-0.39093	
-0.391541	
-0.391724	
-0.39209	
-0.392578	
-0.392822	
-0.3927	
-0.393066	
-0.39325	
-0.39325	
-0.393066	
-0.393738	
-0.393799	
-0.394287	
-0.394226	
-0.39447	
-0.394531	
-0.393921	
-0.394592	
-0.393921	
-0.393616	
-0.393982	
-0.394165	
-0.393311	
-0.393555	
-0.393188	
-0.392456	
-0.392578	
-0.39209	
-0.392151	
-0.392334	
-0.391785	
-0.391174	
-0.391174	
-0.390625	
-0.391418	
-0.391296	
-0.391113	
-0.391296	
-0.39093	
-0.390625	
-0.391235	
-0.391052	
-0.390747	
-0.391235	
-0.390625	
-0.390503	
-0.390076	
-0.389771	
-0.390015	
-0.389771	
-0.390442	
-0.39032	
-0.390381	
-0.390503	
-0.389648	
-0.389709	
-0.389832	
-0.389709	
-0.389771	
-0.389709	
-0.389526	
-0.389343	
-0.389526	
-0.389099	
-0.389404	
-0.389282	
-0.388794	
-0.38855	
-0.388977	
-0.388916	
-0.388306	
-0.38855	
-0.388733	
-0.388428	
-0.388733	
-0.389099	
-0.389221	
-0.388733	
-0.38916	
-0.38916	
-0.389343	
-0.389221	
-0.389893	
-0.389954	
-0.389893	
-0.390198	
-0.389771	
-0.390015	
-0.39032	
-0.390747	
-0.390381	
-0.39032	
-0.390503	
-0.390625	
-0.390869	
-0.39093	
-0.391357	
-0.390625	
-0.39032	
-0.39032	
-0.390076	
-0.389709	
-0.389954	
-0.390198	
-0.390198	
-0.389709	
-0.389771	
-0.389465	
-0.38916	
-0.389526	
-0.388611	
-0.388428	
-0.389404	
-0.389343	
-0.388794	
-0.389343	
-0.389648	
-0.389404	
-0.388977	
-0.389587	
-0.389893	
-0.389404	
-0.390503	
-0.390808	
-0.390198	
-0.390381	
-0.39032	
-0.389893	
-0.389954	
-0.389465	
-0.388794	
-0.388733	
-0.389404	
-0.388916	
-0.388855	
-0.388794	
-0.38916	
-0.388977	
-0.389099	
-0.389832	
-0.390198	
-0.390015	
-0.389771	
-0.389832	
-0.389832	
-0.390137	
-0.390137	
-0.390015	
-0.389832	
-0.390381	
-0.390198	
-0.390564	
-0.390198	
-0.390442	
-0.39093	
-0.390869	
-0.390503	
-0.390808	
-0.39093	
-0.390747	
-0.39093	
-0.390564	
-0.390991	
-0.39093	
-0.391357	
-0.391235	
-0.391785	
-0.391968	
-0.392029	
-0.391296	
-0.391235	
-0.391541	
-0.391052	
-0.392029	
-0.39209	
-0.391846	
-0.392273	
-0.391785	
-0.392334	
-0.391846	
-0.391724	
-0.392029	
-0.392151	
-0.392212	
-0.391968	
-0.392151	
-0.391785	
-0.391968	
-0.391479	
-0.391846	
-0.390869	
-0.391235	
-0.391541	
-0.391418	
-0.391357	
-0.391174	
-0.390747	
-0.389709	
-0.390442	
-0.389709	
-0.390076	
-0.389954	
-0.390076	
-0.390381	
-0.389526	
-0.38916	
-0.389343	
-0.389832	
-0.390137	
-0.38916	
-0.388794	
-0.38855	
-0.389038	
-0.38855	
-0.38855	
-0.388672	
-0.388916	
-0.388611	
-0.388916	
-0.388611	
-0.388672	
-0.388184	
-0.388428	
-0.388306	
-0.388123	
-0.388489	
-0.388184	
-0.388672	
-0.388611	
-0.388672	
-0.388672	
-0.388367	
-0.388489	
-0.388855	
-0.388428	
-0.388428	
-0.387878	
-0.388	
-0.387878	
-0.388123	
-0.387756	
-0.388245	
-0.388672	
-0.387939	
-0.387817	
-0.387878	
-0.388245	
-0.387329	
-0.387756	
-0.388	
-0.387878	
-0.387329	
-0.387207	
-0.387329	
-0.387634	
-0.387268	
-0.387756	
-0.387329	
-0.387756	
-0.387573	
-0.386963	
-0.386902	
-0.387634	
-0.387085	
-0.387695	
-0.387329	
-0.386902	
-0.387024	
-0.387329	
-0.387146	
-0.386719	
-0.387146	
-0.387085	
-0.386902	
-0.387024	
-0.38739	
-0.386536	
-0.386902	
-0.386963	
-0.386902	
-0.386597	
-0.386658	
-0.386963	
-0.386597	
-0.387329	
-0.387573	
-0.387451	
-0.388977	
-0.38916	
-0.389404	
-0.389893	
-0.390686	
-0.390442	
-0.390381	
-0.390564	
-0.390503	
-0.391296	
-0.391785	
-0.39209	
-0.391785	
-0.39209	
-0.392334	
-0.392395	
-0.391724	
-0.391296	
-0.391296	
-0.390564	
-0.391296	
-0.390564	
-0.390076	
-0.390015	
-0.389832	
-0.390198	
-0.389526	
-0.389221	
-0.388916	
-0.388611	
-0.388672	
-0.388123	
-0.387939	
-0.388184	
-0.388367	
-0.387756	
-0.388062	
-0.387878	
-0.387817	
-0.387512	
-0.388	
-0.38739	
-0.387024	
-0.388	
-0.387878	
-0.387268	
-0.387268	
-0.387268	
-0.387146	
-0.387329	
-0.386841	
-0.38678	
-0.386841	
-0.386719	
-0.387146	
-0.386963	
-0.386475	
-0.386902	
-0.386536	
-0.386597	
-0.387146	
-0.386292	
-0.386536	
-0.387268	
-0.387634	
-0.387329	
-0.386658	
-0.387695	
-0.387939	
-0.387756	
-0.387939	
-0.388489	
-0.387878	
-0.388184	
-0.389099	
-0.388611	
-0.388855	
-0.388855	
-0.388733	
-0.388489	
-0.388916	
-0.388855	
-0.38855	
-0.388245	
-0.388062	
-0.388	
-0.387817	
-0.387634	
-0.388062	
-0.387573	
-0.387756	
-0.38855	
-0.388367	
-0.388123	
-0.388	
-0.388184	
-0.387207	
-0.387817	
-0.387939	
-0.387573	
-0.388062	
-0.388062	
-0.388	
-0.388245	
-0.388123	
-0.388489	
-0.388062	
-0.387451	
-0.388184	
-0.388672	
-0.388733	
-0.388977	
-0.389038	
-0.389038	
-0.389282	
-0.389587	
-0.389648	
-0.389282	
-0.389771	
-0.389832	
-0.389771	
-0.389282	
-0.389587	
-0.389404	
-0.389526	
-0.389343	
-0.389221	
-0.389282	
-0.388916	
-0.389343	
-0.389038	
-0.388245	
-0.38855	
-0.388855	
-0.388672	
-0.388855	
-0.389099	
-0.388672	
-0.388489	
-0.388672	
-0.388733	
-0.388306	
-0.388611	
-0.389099	
-0.389404	
-0.389282	
-0.389587	
-0.390076	
-0.390259	
-0.390869	
-0.39032	
-0.390442	
-0.391052	
-0.391052	
-0.391296	
-0.391052	
-0.391541	
-0.392151	
-0.391602	
-0.391663	
-0.391846	
-0.391541	
-0.391479	
-0.391907	
-0.391724	
-0.391235	
-0.391296	
-0.391418	
-0.390991	
-0.390564	
-0.391174	
-0.390686	
-0.391052	
-0.391357	
-0.390991	
-0.391541	
-0.392151	
-0.392578	
-0.392456	
-0.392273	
-0.392456	
-0.392517	
-0.392212	
-0.391479	
-0.391357	
-0.391052	
-0.391235	
-0.391235	
-0.391052	
-0.390991	
-0.391174	
-0.391052	
-0.390869	
-0.391235	
-0.391052	
-0.390991	
-0.390869	
-0.391052	
-0.39093	
-0.390076	
-0.390564	
-0.390198	
-0.390625	
-0.390808	
-0.390869	
-0.390869	
-0.391357	
-0.391052	
-0.391357	
-0.390869	
-0.390869	
-0.39093	
-0.390686	
-0.390808	
-0.391052	
-0.391174	
-0.390808	
-0.391235	
-0.391174	
-0.391052	
-0.390625	
-0.390747	
-0.390503	
-0.390991	
-0.391052	
-0.391296	
-0.39093	
-0.390869	
-0.390808	
-0.391113	
-0.390869	
-0.391357	
-0.391602	
-0.391602	
-0.391968	
-0.391785	
-0.392395	
-0.39209	
-0.391846	
-0.391846	
-0.391907	
-0.392639	
-0.392273	
-0.392517	
-0.39325	
-0.393127	
-0.3927	
-0.392578	
-0.392456	
-0.392273	
-0.392334	
-0.392456	
-0.392883	
-0.391968	
-0.391724	
-0.392029	
-0.392212	
-0.3927	
-0.393066	
-0.3927	
-0.39209	
-0.392761	
-0.392883	
-0.392639	
-0.392883	
-0.393066	
-0.393005	
-0.392883	
-0.393188	
-0.392822	
-0.392761	
-0.393005	
-0.392944	
-0.392883	
-0.392761	
-0.392761	
-0.392761	
-0.393005	
-0.392761	
-0.392639	
-0.3927	
-0.393311	
-0.393799	
-0.393738	
-0.393982	
-0.393921	
-0.393982	
-0.393738	
-0.393982	
-0.394226	
-0.394287	
-0.394226	
-0.394287	
-0.394348	
-0.394592	
-0.394165	
-0.394409	
-0.39447	
-0.394714	
-0.394653	
-0.394958	
-0.394958	
-0.395569	
-0.395508	
-0.395447	
-0.395081	
-0.395264	
-0.39563	
-0.395569	
-0.395935	
-0.395569	
-0.395752	
-0.396057	
-0.395752	
-0.395935	
-0.396484	
-0.396362	
-0.396423	
-0.396423	
-0.396973	
-0.396545	
-0.39563	
-0.396545	
-0.396729	
-0.396362	
-0.396606	
-0.396973	
-0.396484	
-0.396606	
-0.397034	
-0.39624	
-0.396423	
-0.39679	
-0.396423	
-0.395203	
-0.394653	
-0.394653	
-0.39447	
-0.394348	
-0.393616	
-0.393982	
-0.393311	
-0.393494	
-0.393066	
-0.392456	
-0.392212	
-0.392273	
-0.392639	
-0.392761	
-0.393066	
-0.39325	
-0.393311	
-0.394104	
-0.394348	
-0.393677	
-0.394226	
-0.394531	
-0.394653	
-0.394104	
-0.394836	
-0.395569	
-0.395386	
-0.395264	
-0.395935	
-0.395874	
-0.395935	
-0.395935	
-0.395935	
-0.396057	
-0.396362	
-0.396362	
-0.396606	
-0.396423	
-0.396606	
-0.396729	
-0.396912	
-0.39679	
-0.39679	
-0.397278	
-0.396973	
-0.397705	
-0.397888	
-0.397888	
-0.397644	
-0.398254	
-0.398315	
-0.398315	
-0.398621	
-0.398254	
-0.398132	
-0.39917	
-0.39856	
-0.399048	
-0.398743	
-0.398804	
-0.398865	
-0.398499	
-0.398621	
-0.398315	
-0.398804	
-0.398499	
-0.398193	
-0.397644	
-0.397522	
-0.397766	
-0.397522	
-0.396667	
-0.396973	
-0.397461	
-0.396484	
-0.396118	
-0.396484	
-0.396484	
-0.395996	
-0.396362	
-0.396484	
-0.396301	
-0.396057	
-0.396912	
-0.397339	
-0.396667	
-0.396545	
-0.396606	
-0.396423	
-0.396362	
-0.396057	
-0.396118	
-0.396301	
-0.39679	
-0.396484	
-0.396606	
-0.396179	
-0.396606	
-0.395935	
-0.395935	
-0.396729	
-0.395752	
-0.396057	
-0.396423	
-0.396423	
-0.396484	
-0.396057	
-0.396057	
-0.395386	
-0.395508	
-0.39563	
-0.395569	
-0.395508	
-0.394836	
-0.394958	
-0.394897	
-0.395081	
-0.39447	
-0.395386	
-0.395264	
-0.395325	
-0.395447	
-0.395386	
-0.395447	
-0.395691	
-0.395569	
-0.395569	
-0.395813	
-0.396057	
-0.395874	
-0.396118	
-0.396301	
-0.39624	
-0.395752	
-0.396118	
-0.39624	
-0.396118	
-0.395874	
-0.395874	
-0.395752	
-0.39624	
-0.395752	
-0.394958	
-0.395142	
-0.395325	
-0.394836	
-0.39447	
-0.394348	
-0.394165	
-0.393921	
-0.393616	
-0.393555	
-0.393616	
-0.393311	
-0.393188	
-0.393188	
-0.392883	
-0.393494	
-0.393311	
-0.393005	
-0.393127	
-0.393127	
-0.392944	
-0.393066	
-0.393738	
-0.393372	
-0.393555	
-0.393677	
-0.394043	
-0.394104	
-0.394165	
-0.393921	
-0.393677	
-0.393555	
-0.392761	
-0.392883	
-0.392395	
-0.392456	
-0.392456	
-0.392822	
-0.392944	
-0.393311	
-0.393005	
-0.393188	
-0.393616	
-0.394043	
-0.393616	
-0.393616	
-0.393677	
-0.393494	
-0.393616	
-0.393433	
-0.393799	
-0.39386	
-0.393799	
-0.39386	
-0.394287	
-0.394043	
-0.394043	
-0.393982	
-0.393616	
-0.393433	
-0.393799	
-0.393494	
-0.393555	
-0.393494	
-0.393677	
-0.393921	
-0.393799	
-0.394043	
-0.393738	
-0.393494	
-0.393188	
-0.393066	
-0.392578	
-0.393311	
-0.393616	
-0.394043	
-0.393311	
-0.39386	
-0.393677	
-0.393372	
-0.393005	
-0.392883	
-0.393372	
-0.393738	
-0.393982	
-0.393433	
-0.393494	
-0.393982	
-0.393921	
-0.393494	
-0.392883	
-0.393616	
-0.393555	
-0.393433	
-0.39325	
-0.393799	
-0.393311	
-0.393433	
-0.392761	
-0.392151	
-0.392273	
-0.39209	
-0.392822	
-0.392395	
-0.392761	
-0.392212	
-0.392456	
-0.392273	
-0.392395	
-0.392151	
-0.392395	
-0.392578	
-0.392151	
-0.391785	
-0.392029	
-0.39209	
-0.39209	
-0.39209	
-0.392029	
-0.391846	
-0.391724	
-0.391846	
-0.391724	
-0.391479	
-0.391296	
-0.391357	
-0.391907	
-0.391479	
-0.391724	
-0.391907	
-0.391846	
-0.391907	
-0.391663	
-0.391418	
-0.391541	
-0.391663	
-0.391602	
-0.391541	
-0.391296	
-0.390808	
-0.39093	
-0.390503	
-0.390442	
-0.390503	
-0.390564	
-0.390198	
-0.390381	
-0.390564	
-0.39032	
-0.390015	
-0.390503	
-0.390076	
-0.39032	
-0.390076	
-0.389587	
-0.389587	
-0.389893	
-0.389404	
-0.389282	
-0.389526	
-0.389221	
-0.389221	
-0.38916	
-0.389282	
-0.388672	
-0.388916	
-0.388672	
-0.388977	
-0.38855	
-0.388733	
-0.388733	
-0.388245	
-0.387939	
-0.388367	
-0.388306	
-0.388123	
-0.387939	
-0.388367	
-0.387817	
-0.387329	
-0.387634	
-0.387573	
-0.387634	
-0.388367	
-0.388	
-0.386963	
-0.387573	
-0.388245	
-0.387939	
-0.38855	
-0.389465	
-0.389648	
-0.390137	
-0.390686	
-0.390503	
-0.390503	
-0.390808	
-0.390747	
-0.391052	
-0.391479	
-0.391907	
-0.391785	
-0.391968	
-0.392761	
-0.391907	
-0.391418	
-0.390869	
-0.391235	
-0.390381	
-0.390381	
-0.390259	
-0.390137	
-0.389954	
-0.389954	
-0.389771	
-0.38916	
-0.389099	
-0.389404	
-0.388977	
-0.388428	
-0.388062	
-0.388306	
-0.388062	
-0.387878	
-0.387817	
-0.388	
-0.387756	
-0.388184	
-0.387634	
-0.387207	
-0.387512	
-0.387451	
-0.387268	
-0.386841	
-0.386719	
-0.38678	
-0.386902	
-0.387024	
-0.386719	
-0.386169	
-0.38623	
-0.386536	
-0.385681	
-0.385559	
-0.385803	
-0.385742	
-0.385742	
-0.385681	
-0.385742	
-0.38562	
-0.385864	
-0.386353	
-0.385864	
-0.386047	
-0.386536	
-0.386414	
-0.386169	
-0.386902	
-0.387146	
-0.387146	
-0.387207	
-0.388184	
-0.388245	
-0.38739	
-0.388062	
-0.388123	
-0.388245	
-0.387878	
-0.388367	
-0.388489	
-0.388672	
-0.388184	
-0.387512	
-0.387085	
-0.386902	
-0.387268	
-0.387207	
-0.387207	
-0.386963	
-0.387512	
-0.387756	
-0.387634	
-0.387329	
-0.387024	
-0.386902	
-0.38739	
-0.387024	
-0.387634	
-0.387573	
-0.387756	
-0.386963	
-0.38739	
-0.387512	
-0.386841	
-0.387207	
-0.387207	
-0.387085	
-0.387512	
-0.387451	
-0.388123	
-0.388306	
-0.388428	
-0.388123	
-0.388733	
-0.388489	
-0.388611	
-0.388611	
-0.388916	
-0.388855	
-0.388672	
-0.388245	
-0.388489	
-0.38855	
-0.388489	
-0.388	
-0.387817	
-0.388184	
-0.387634	
-0.387329	
-0.387756	
-0.387451	
-0.387512	
-0.38739	
-0.387024	
-0.38739	
-0.387451	
-0.387573	
-0.387085	
-0.387329	
-0.387146	
-0.387451	
-0.387329	
-0.387634	
-0.387634	
-0.388	
-0.388245	
-0.388245	
-0.388611	
-0.388733	
-0.388794	
-0.38916	
-0.388855	
-0.389526	
-0.390076	
-0.389465	
-0.390015	
-0.39032	
-0.389648	
-0.389587	
-0.390625	
-0.390076	
-0.390137	
-0.390015	
-0.390137	
-0.390015	
-0.389648	
-0.389526	
-0.389465	
-0.389404	
-0.389343	
-0.389099	
-0.388794	
-0.389648	
-0.389709	
-0.390137	
-0.389893	
-0.390564	
-0.390808	
-0.390564	
-0.390137	
-0.390503	
-0.390259	
-0.389709	
-0.389771	
-0.389709	
-0.389465	
-0.388977	
-0.389099	
-0.388977	
-0.389343	
-0.389099	
-0.38916	
-0.388977	
-0.388794	
-0.388489	
-0.388367	
-0.388184	
-0.388184	
-0.388611	
-0.388489	
-0.388672	
-0.388916	
-0.388367	
-0.388733	
-0.389343	
-0.38855	
-0.38855	
-0.388489	
-0.388062	
-0.388245	
-0.388428	
-0.388367	
-0.388855	
-0.388794	
-0.389404	
-0.389465	
-0.38855	
-0.388367	
-0.388611	
-0.388611	
-0.389099	
-0.388367	
-0.388733	
-0.388977	
-0.389282	
-0.388733	
-0.388733	
-0.387878	
-0.388489	
-0.388855	
-0.38855	
-0.389282	
-0.389587	
-0.388916	
-0.38916	
-0.389832	
-0.388977	
-0.389221	
-0.389587	
-0.389648	
-0.389587	
-0.390076	
-0.39032	
-0.390076	
-0.390503	
-0.390259	
-0.389465	
-0.390503	
-0.389771	
-0.390137	
-0.389954	
-0.389343	
-0.389526	
-0.389709	
-0.389709	
-0.389771	
-0.389893	
-0.389954	
-0.389771	
-0.390198	
-0.390076	
-0.390076	
-0.390259	
-0.390198	
-0.390076	
-0.390503	
-0.390076	
-0.39032	
-0.39032	
-0.390442	
-0.390198	
-0.389832	
-0.390442	
-0.390259	
-0.390442	
-0.389771	
-0.39032	
-0.390137	
-0.390015	
-0.390442	
-0.390381	
-0.390747	
-0.390381	
-0.39093	
-0.391235	
-0.391052	
-0.391479	
-0.391296	
-0.391113	
-0.391296	
-0.391235	
-0.391052	
-0.391418	
-0.391174	
-0.391052	
-0.391602	
-0.391785	
-0.391541	
-0.392029	
-0.391968	
-0.392151	
-0.39209	
-0.392212	
-0.391907	
-0.392273	
-0.392151	
-0.392639	
-0.392517	
-0.392517	
-0.392578	
-0.392639	
-0.3927	
-0.3927	
-0.393066	
-0.393005	
-0.393005	
-0.392944	
-0.393494	
-0.39325	
-0.393494	
-0.393372	
-0.393738	
-0.393799	
-0.393433	
-0.393555	
-0.393616	
-0.393494	
-0.393921	
-0.393921	
-0.393616	
-0.393311	
-0.393188	
-0.393005	
-0.392334	
-0.392334	
-0.391724	
-0.390869	
-0.39093	
-0.39093	
-0.390442	
-0.390442	
-0.390259	
-0.389771	
-0.389343	
-0.389709	
-0.389099	
-0.389221	
-0.389404	
-0.389526	
-0.389832	
-0.390381	
-0.390442	
-0.389954	
	
