E:\DOCUMENTS AND SETTINGS\JPOTAS\MEUS DOCUMENTOS\UFRJ\RSCI-BM 12 WK SERIES\070730-RSCI-BM-09\RSCI-BM-09-LEMG\070730-RSCI-BM-09-LEMG-0010.ACQ
0.025000 msec/sample
1 channel
Analog input
Volts
CH1	
2000	
-0.406067	
-0.405334	
-0.407104	
-0.407104	
-0.407227	
-0.407654	
-0.407104	
-0.408691	
-0.40863	
-0.408081	
-0.408447	
-0.406921	
-0.408386	
-0.40802	
-0.406738	
-0.407959	
-0.407532	
-0.407227	
-0.407837	
-0.407166	
-0.40686	
-0.408264	
-0.407288	
-0.408142	
-0.407349	
-0.407288	
-0.407349	
-0.406555	
-0.40741	
-0.40802	
-0.407532	
-0.407837	
-0.407288	
-0.407288	
-0.40741	
-0.408325	
-0.40802	
-0.407715	
-0.407471	
-0.408447	
-0.408325	
-0.407532	
-0.407471	
-0.407166	
-0.406738	
-0.40741	
-0.407288	
-0.406982	
-0.407227	
-0.40741	
-0.407166	
-0.406433	
-0.406677	
-0.406067	
-0.40564	
-0.405762	
-0.405518	
-0.405701	
-0.404663	
-0.405762	
-0.405212	
-0.404724	
-0.406006	
-0.406494	
-0.40564	
-0.405334	
-0.406433	
-0.404968	
-0.405151	
-0.404724	
-0.404053	
-0.404846	
-0.404419	
-0.404236	
-0.40387	
-0.403442	
-0.404663	
-0.40448	
-0.403992	
-0.404175	
-0.404175	
-0.403564	
-0.402954	
-0.403198	
-0.403259	
-0.404297	
-0.403503	
-0.403748	
-0.403076	
-0.402588	
-0.403198	
-0.402954	
-0.402771	
-0.402893	
-0.402344	
-0.40155	
-0.401917	
-0.40155	
-0.402039	
-0.402527	
-0.402344	
-0.402527	
-0.402588	
-0.403198	
-0.402649	
-0.403259	
-0.402649	
-0.403198	
-0.402405	
-0.402466	
-0.402649	
-0.401245	
-0.404663	
-0.403809	
-0.404175	
-0.404358	
-0.404297	
-0.404968	
-0.405273	
-0.405823	
-0.406799	
-0.406616	
-0.405762	
-0.406006	
-0.405212	
-0.405945	
-0.407227	
-0.406433	
-0.407043	
-0.40686	
-0.40625	
-0.406799	
-0.40686	
-0.406616	
-0.406555	
-0.406799	
-0.406067	
-0.405762	
-0.40564	
-0.406799	
-0.406982	
-0.40741	
-0.407227	
-0.408203	
-0.407837	
-0.408386	
-0.408813	
-0.408813	
-0.410339	
-0.409058	
-0.409241	
-0.408325	
-0.408875	
-0.410828	
-0.410461	
-0.410522	
-0.41095	
-0.411438	
-0.411499	
-0.411377	
-0.411682	
-0.411316	
-0.412842	
-0.411133	
-0.410706	
-0.410706	
-0.410461	
-0.411743	
-0.410706	
-0.410767	
-0.411743	
-0.40979	
-0.410645	
-0.410339	
-0.410522	
-0.410706	
-0.411621	
-0.409668	
-0.408936	
-0.409912	
-0.408569	
-0.408997	
-0.408813	
-0.409119	
-0.408508	
-0.408264	
-0.408386	
-0.407898	
-0.408081	
-0.407471	
-0.407043	
-0.405029	
-0.405518	
-0.405518	
-0.405518	
-0.404968	
-0.404724	
-0.395142	
-0.38269	
-0.382629	
-0.382874	
-0.383606	
-0.383362	
-0.39563	
-0.405518	
-0.407043	
-0.406494	
-0.406433	
-0.406433	
-0.405945	
-0.406738	
-0.406494	
-0.406494	
-0.406799	
-0.407654	
-0.406677	
-0.406738	
-0.407166	
-0.405579	
-0.406494	
-0.405823	
-0.405334	
-0.406311	
-0.405029	
-0.40564	
-0.404907	
-0.405273	
-0.405762	
-0.405823	
-0.404968	
-0.405273	
-0.405579	
-0.40564	
-0.406311	
-0.405396	
-0.405823	
-0.406311	
-0.404846	
-0.404846	
-0.404236	
-0.405701	
-0.406006	
-0.406006	
-0.406128	
-0.406677	
-0.406799	
-0.407471	
-0.407837	
-0.40802	
-0.408447	
-0.408386	
-0.408203	
-0.407654	
-0.407715	
-0.40802	
-0.407776	
-0.407898	
-0.397949	
-0.387085	
-0.385742	
-0.387573	
-0.389465	
-0.39209	
-0.404785	
-0.418457	
-0.423767	
-0.426575	
-0.433533	
-0.439514	
-0.445679	
-0.450745	
-0.457458	
-0.463379	
-0.469238	
-0.473999	
-0.475708	
-0.477905	
-0.478516	
-0.477905	
-0.479126	
-0.478333	
-0.476501	
-0.474548	
-0.474548	
-0.473755	
-0.4729	
-0.473511	
-0.473999	
-0.474182	
-0.475159	
-0.476746	
-0.478027	
-0.479187	
-0.48053	
-0.481445	
-0.482971	
-0.485107	
-0.484558	
-0.484802	
-0.485352	
-0.485168	
-0.484253	
-0.483826	
-0.483337	
-0.483643	
-0.483948	
-0.484253	
-0.484375	
-0.484985	
-0.485657	
-0.484985	
-0.485413	
-0.485718	
-0.485535	
-0.485107	
-0.484863	
-0.485107	
-0.484497	
-0.483887	
-0.482788	
-0.480164	
-0.480103	
-0.477905	
-0.475403	
-0.473389	
-0.470642	
-0.467529	
-0.464783	
-0.461304	
-0.458679	
-0.456116	
-0.453369	
-0.452515	
-0.450989	
-0.4505	
-0.450378	
-0.449402	
-0.449646	
-0.450073	
-0.450073	
-0.45166	
-0.450867	
-0.452087	
-0.452698	
-0.453308	
-0.454102	
-0.454102	
-0.455444	
-0.455627	
-0.454346	
-0.454712	
-0.453796	
-0.452576	
-0.452271	
-0.449951	
-0.448303	
-0.445801	
-0.441895	
-0.43988	
-0.43512	
-0.432068	
-0.428223	
-0.422241	
-0.417358	
-0.411377	
-0.403748	
-0.398926	
-0.391418	
-0.385071	
-0.37793	
-0.369568	
-0.362793	
-0.356628	
-0.351135	
-0.34668	
-0.342773	
-0.338867	
-0.335571	
-0.333313	
-0.330627	
-0.329285	
-0.328308	
-0.327393	
-0.327942	
-0.329285	
-0.331604	
-0.334167	
-0.337463	
-0.341125	
-0.344238	
-0.347351	
-0.351135	
-0.354187	
-0.356628	
-0.361206	
-0.362366	
-0.365784	
-0.368591	
-0.370911	
-0.375244	
-0.378784	
-0.381042	
-0.383118	
-0.385559	
-0.387024	
-0.388977	
-0.391113	
-0.391846	
-0.3927	
-0.393738	
-0.393921	
-0.395813	
-0.397095	
-0.398926	
-0.398926	
-0.399292	
-0.400024	
-0.401001	
-0.400879	
-0.402405	
-0.401855	
-0.402283	
-0.4021	
-0.401306	
-0.402222	
-0.401672	
-0.401245	
-0.40033	
-0.398926	
-0.397888	
-0.396545	
-0.394714	
-0.39386	
-0.391663	
-0.39032	
-0.388855	
-0.386353	
-0.38678	
-0.386536	
-0.38678	
-0.384216	
-0.383545	
-0.382935	
-0.380737	
-0.381104	
-0.380737	
-0.380493	
-0.379089	
-0.378174	
-0.377075	
-0.375305	
-0.374634	
-0.372681	
-0.369812	
-0.367188	
-0.364319	
-0.360657	
-0.357483	
-0.353271	
-0.349365	
-0.345276	
-0.341736	
-0.337769	
-0.332581	
-0.330627	
-0.325806	
-0.322083	
-0.317932	
-0.314087	
-0.312439	
-0.310486	
-0.307129	
-0.304749	
-0.302979	
-0.300964	
-0.2995	
-0.29834	
-0.297729	
-0.296631	
-0.296082	
-0.294922	
-0.295532	
-0.294983	
-0.293701	
-0.293213	
-0.293335	
-0.292847	
-0.292786	
-0.292786	
-0.293884	
-0.293701	
-0.294434	
-0.294922	
-0.296326	
-0.297607	
-0.298279	
-0.299377	
-0.300598	
-0.301453	
-0.303284	
-0.304993	
-0.306702	
-0.309082	
-0.310974	
-0.313538	
-0.315613	
-0.318604	
-0.32074	
-0.323059	
-0.3255	
-0.328796	
-0.330444	
-0.333923	
-0.336792	
-0.339294	
-0.340637	
-0.343018	
-0.34552	
-0.347412	
-0.350525	
-0.352539	
-0.354797	
-0.356445	
-0.358948	
-0.360352	
-0.362366	
-0.363831	
-0.366211	
-0.366211	
-0.366333	
-0.36853	
-0.371033	
-0.370789	
-0.371704	
-0.372559	
-0.372375	
-0.374634	
-0.374939	
-0.375549	
-0.376038	
-0.376099	
-0.376892	
-0.377197	
-0.37738	
-0.378113	
-0.377136	
-0.377441	
-0.378235	
-0.378052	
-0.380066	
-0.380249	
-0.380005	
-0.380432	
-0.379883	
-0.380249	
-0.382019	
-0.382263	
-0.383362	
-0.382813	
-0.382019	
-0.383484	
-0.382996	
-0.384338	
-0.385559	
-0.384583	
-0.384888	
-0.384521	
-0.383667	
-0.385498	
-0.385498	
-0.386108	
-0.385071	
-0.386353	
-0.386475	
-0.385681	
-0.386963	
-0.387329	
-0.386719	
-0.386719	
-0.38678	
-0.386414	
-0.386719	
-0.386658	
-0.386292	
-0.386719	
-0.386902	
-0.38739	
-0.386597	
-0.38739	
-0.387756	
-0.388123	
-0.389465	
-0.388489	
-0.388489	
-0.388489	
-0.38855	
-0.389832	
-0.389343	
-0.389771	
-0.390076	
-0.390686	
-0.390442	
-0.391296	
-0.391357	
-0.390137	
-0.390198	
-0.389404	
-0.389587	
-0.390381	
-0.389832	
-0.389648	
-0.389282	
-0.388184	
-0.389465	
-0.389648	
-0.389282	
-0.388855	
-0.388184	
-0.387146	
-0.38678	
-0.388	
-0.38739	
-0.387268	
-0.387512	
-0.38678	
-0.387207	
-0.386963	
-0.386292	
-0.387024	
-0.386719	
-0.38562	
-0.386658	
-0.387756	
-0.388306	
-0.387878	
-0.388733	
-0.388	
-0.388367	
-0.38855	
-0.388855	
-0.388428	
-0.388733	
-0.388123	
-0.387451	
-0.389404	
-0.389893	
-0.389526	
-0.390503	
-0.389282	
-0.390137	
-0.39032	
-0.390686	
-0.390991	
-0.390686	
-0.390442	
-0.390564	
-0.390625	
-0.391418	
-0.391357	
-0.392517	
-0.391296	
-0.391479	
-0.391663	
-0.393066	
-0.393372	
-0.392822	
-0.393311	
-0.393433	
-0.392822	
-0.394653	
-0.396118	
-0.396912	
-0.395691	
-0.395813	
-0.395386	
-0.3974	
-0.396423	
-0.397095	
-0.397095	
-0.396362	
-0.396545	
-0.396729	
-0.397034	
-0.397888	
-0.397095	
-0.397217	
-0.39679	
-0.394958	
-0.398071	
-0.397583	
-0.397461	
-0.398376	
-0.396545	
-0.397522	
-0.397949	
-0.397644	
-0.399048	
-0.398254	
-0.398315	
-0.396667	
-0.397217	
-0.398987	
-0.399597	
-0.39978	
-0.400513	
-0.398499	
-0.397522	
-0.398071	
-0.398987	
-0.399902	
-0.398926	
-0.398804	
-0.398621	
-0.398865	
-0.400269	
-0.399658	
-0.398499	
-0.398621	
-0.397644	
-0.396851	
-0.398071	
-0.397583	
-0.398499	
-0.397522	
-0.397217	
-0.397949	
-0.397339	
-0.398254	
-0.398438	
-0.397949	
-0.39801	
-0.398132	
-0.398254	
-0.39856	
-0.39801	
-0.398499	
-0.397644	
-0.397583	
-0.397705	
-0.397583	
-0.397827	
-0.397522	
-0.3974	
-0.396912	
-0.396362	
-0.397644	
-0.396667	
-0.396851	
-0.397339	
-0.396057	
-0.39679	
-0.39679	
-0.3974	
-0.397461	
-0.396179	
-0.39624	
-0.39563	
-0.396667	
-0.396423	
-0.396179	
-0.396667	
-0.395325	
-0.39563	
-0.395874	
-0.395996	
-0.397034	
-0.395935	
-0.396606	
-0.396057	
-0.395569	
-0.396484	
-0.396545	
-0.396484	
-0.396667	
-0.396729	
-0.397034	
-0.3974	
-0.397156	
-0.39917	
-0.398071	
-0.397766	
-0.398315	
-0.398743	
-0.398865	
-0.399353	
-0.39917	
-0.399109	
-0.399902	
-0.400146	
-0.40033	
-0.399658	
-0.40155	
-0.401062	
-0.400513	
-0.400757	
-0.40155	
-0.401123	
-0.400818	
-0.401367	
-0.401428	
-0.401245	
-0.401123	
-0.401367	
-0.400757	
-0.401245	
-0.401184	
-0.401245	
-0.401672	
-0.401611	
-0.403198	
-0.40271	
-0.402588	
-0.403564	
-0.402222	
-0.403503	
-0.403992	
-0.404663	
-0.405029	
-0.404541	
-0.404968	
-0.404907	
-0.405151	
-0.406128	
-0.405518	
-0.40448	
-0.406738	
-0.405884	
-0.406006	
-0.405945	
-0.406982	
-0.406982	
-0.405945	
-0.405945	
-0.405701	
-0.405518	
-0.406189	
-0.406677	
-0.405457	
-0.406372	
-0.405762	
-0.40448	
-0.40564	
-0.40625	
-0.405334	
-0.405273	
-0.404907	
-0.404175	
-0.403809	
-0.404236	
-0.404053	
-0.403687	
-0.403748	
-0.403259	
-0.403259	
-0.403564	
-0.403259	
-0.402954	
-0.402527	
-0.401611	
-0.400391	
-0.400696	
-0.400146	
-0.399414	
-0.400391	
-0.400391	
-0.399475	
-0.399597	
-0.39856	
-0.399597	
-0.399658	
-0.400269	
-0.400146	
-0.398132	
-0.399231	
-0.39917	
-0.39978	
-0.400452	
-0.400818	
-0.400269	
-0.400208	
-0.40033	
-0.400818	
-0.400635	
-0.401733	
-0.40094	
-0.39978	
-0.39978	
-0.399292	
-0.400513	
-0.400513	
-0.401428	
-0.400146	
-0.400146	
-0.400208	
-0.399536	
-0.400146	
-0.401062	
-0.399963	
-0.400024	
-0.400024	
-0.398682	
-0.40033	
-0.40033	
-0.400757	
-0.401184	
-0.400696	
-0.400208	
-0.400146	
-0.399475	
-0.401123	
-0.400513	
-0.400696	
-0.400696	
-0.400696	
-0.400879	
-0.401489	
-0.402283	
-0.402405	
-0.402161	
-0.402161	
-0.401978	
-0.401611	
-0.402161	
-0.401672	
-0.401306	
-0.401062	
-0.400757	
-0.400696	
-0.400757	
-0.400879	
-0.401001	
-0.401306	
-0.401367	
-0.401306	
-0.400696	
-0.400696	
-0.401611	
-0.401123	
-0.400208	
-0.400757	
-0.400146	
-0.401733	
-0.402283	
-0.403259	
-0.403076	
-0.404663	
-0.403503	
-0.402832	
-0.40332	
-0.402527	
-0.40387	
-0.402954	
-0.403748	
-0.403442	
-0.404663	
-0.405212	
-0.405762	
-0.405762	
-0.406616	
-0.406189	
-0.406128	
-0.405334	
-0.405212	
-0.405945	
-0.40509	
-0.405579	
-0.405396	
-0.405273	
-0.405029	
-0.405151	
-0.404907	
-0.40564	
-0.404968	
-0.405334	
-0.404419	
-0.404053	
-0.404663	
-0.403809	
-0.404114	
-0.403931	
-0.403015	
-0.404602	
-0.404114	
-0.404541	
-0.404419	
-0.403687	
-0.404297	
-0.401672	
-0.402161	
-0.402588	
-0.401672	
-0.402222	
-0.401794	
-0.40155	
-0.401184	
-0.40094	
-0.401794	
-0.401794	
-0.400818	
-0.400879	
-0.400085	
-0.399475	
-0.399658	
-0.399719	
-0.397827	
-0.398193	
-0.398071	
-0.396851	
-0.397522	
-0.397888	
-0.398071	
-0.397766	
-0.397278	
-0.397522	
-0.397034	
-0.397522	
-0.397583	
-0.397766	
-0.397583	
-0.397644	
-0.397339	
-0.397461	
-0.397949	
-0.399048	
-0.398254	
-0.397827	
-0.397217	
-0.396301	
-0.396729	
-0.397461	
-0.398132	
-0.397217	
-0.397217	
-0.397217	
-0.39624	
-0.397522	
-0.398743	
-0.398193	
-0.397156	
-0.396729	
-0.39563	
-0.396912	
-0.397278	
-0.397095	
-0.397278	
-0.396301	
-0.397583	
-0.397461	
-0.397522	
-0.398438	
-0.398926	
-0.398132	
-0.398315	
-0.39856	
-0.399414	
-0.399353	
-0.399597	
-0.400208	
-0.399353	
-0.399597	
-0.400085	
-0.398926	
-0.400085	
-0.400696	
-0.399719	
-0.399536	
-0.399902	
-0.399353	
-0.401184	
-0.400696	
-0.401428	
-0.400513	
-0.399841	
-0.400818	
-0.401184	
-0.4021	
-0.401062	
-0.40033	
-0.400696	
-0.400208	
-0.400452	
-0.401001	
-0.402222	
-0.401367	
-0.402039	
-0.401367	
-0.401123	
-0.401245	
-0.402039	
-0.401917	
-0.401733	
-0.401428	
-0.400452	
-0.401855	
-0.4021	
-0.40271	
-0.403076	
-0.402649	
-0.402649	
-0.402283	
-0.40094	
-0.403381	
-0.401672	
-0.402527	
-0.401428	
-0.400085	
-0.401794	
-0.400452	
-0.402344	
-0.402161	
-0.401367	
-0.401978	
-0.400818	
-0.400391	
-0.400757	
-0.399292	
-0.40033	
-0.399353	
-0.398621	
-0.398499	
-0.398376	
-0.39856	
-0.39856	
-0.398682	
-0.398682	
-0.397827	
-0.398376	
-0.398499	
-0.397461	
-0.39801	
-0.398193	
-0.397827	
-0.398438	
-0.39801	
-0.397217	
-0.39801	
-0.398438	
-0.398987	
-0.398315	
-0.399292	
-0.397888	
-0.396973	
-0.396912	
-0.395874	
-0.397034	
-0.395447	
-0.39563	
-0.39502	
-0.394653	
-0.394409	
-0.394592	
-0.396118	
-0.394714	
-0.393616	
-0.393311	
-0.390869	
-0.392761	
-0.393433	
-0.392395	
-0.392883	
-0.392822	
-0.392456	
-0.3927	
-0.392639	
-0.393005	
-0.394226	
-0.392944	
-0.39325	
-0.391968	
-0.391846	
-0.392883	
-0.392395	
-0.392883	
-0.3927	
-0.3927	
-0.393127	
-0.393921	
-0.39386	
-0.394836	
-0.39447	
-0.394897	
-0.393921	
-0.394287	
-0.393982	
-0.394531	
-0.395386	
-0.39563	
-0.395264	
-0.395203	
-0.39624	
-0.397217	
-0.39801	
-0.398132	
-0.398743	
-0.397766	
-0.397705	
-0.398254	
-0.397766	
-0.399902	
-0.399658	
-0.399292	
-0.399048	
-0.398987	
-0.399841	
-0.400024	
-0.39978	
-0.400757	
-0.399048	
-0.398438	
-0.398438	
-0.397095	
-0.398438	
-0.398315	
-0.398254	
-0.398071	
-0.397583	
-0.398254	
-0.398315	
-0.39801	
-0.397949	
-0.398132	
-0.397827	
-0.398193	
-0.398254	
-0.397644	
-0.399292	
-0.398315	
-0.398438	
-0.397766	
-0.397461	
-0.397949	
-0.398804	
-0.397949	
-0.3974	
-0.398254	
-0.396912	
-0.397583	
-0.397949	
-0.397644	
-0.39801	
-0.397766	
-0.397461	
-0.398071	
-0.397522	
-0.397705	
-0.397339	
-0.396667	
-0.397644	
-0.397095	
-0.397095	
-0.396851	
-0.39679	
-0.397156	
-0.396423	
-0.396484	
-0.397339	
-0.39679	
-0.397583	
-0.398071	
-0.397766	
-0.397339	
-0.398071	
-0.396423	
-0.396362	
-0.397583	
-0.397461	
-0.397339	
-0.397705	
-0.397827	
-0.396362	
-0.396851	
-0.397339	
-0.396606	
-0.396912	
-0.396362	
-0.396667	
-0.395508	
-0.395935	
-0.395142	
-0.394714	
-0.394836	
-0.395447	
-0.39386	
-0.393127	
-0.393555	
-0.394165	
-0.393555	
-0.3927	
-0.392883	
-0.392151	
-0.392639	
-0.392517	
-0.392212	
-0.39093	
-0.392517	
-0.391846	
-0.391479	
-0.391663	
-0.392517	
-0.392395	
-0.392212	
-0.392212	
-0.392334	
-0.392578	
-0.392883	
-0.392761	
-0.393738	
-0.392883	
-0.392822	
-0.392212	
-0.391663	
-0.393005	
-0.394897	
-0.393005	
-0.393127	
-0.392883	
-0.391968	
-0.393677	
-0.393677	
-0.394287	
-0.39447	
-0.394043	
-0.394165	
-0.394043	
-0.394775	
-0.395386	
-0.394958	
-0.395203	
-0.39563	
-0.395264	
-0.395386	
-0.39624	
-0.396729	
-0.397766	
-0.39679	
-0.397888	
-0.398132	
-0.398071	
-0.399719	
-0.400085	
-0.399353	
-0.399719	
-0.399841	
-0.399658	
-0.399963	
-0.399719	
-0.399475	
-0.399292	
-0.398438	
-0.398315	
-0.399353	
-0.399292	
-0.400085	
-0.399414	
-0.398865	
-0.398621	
-0.397827	
-0.398193	
-0.399719	
-0.398743	
-0.399353	
-0.39856	
-0.397705	
-0.398865	
-0.397888	
-0.399719	
-0.399597	
-0.399048	
-0.39917	
-0.398499	
-0.398315	
-0.399414	
-0.399658	
-0.399109	
-0.398926	
-0.39801	
-0.398254	
-0.398743	
-0.398987	
-0.398804	
-0.399048	
-0.39856	
-0.398499	
-0.397766	
-0.397583	
-0.397644	
-0.398376	
-0.397888	
-0.396118	
-0.396606	
-0.396118	
-0.395874	
-0.397217	
-0.397156	
-0.39624	
-0.396606	
-0.395508	
-0.396118	
-0.39679	
-0.396851	
-0.397766	
-0.396667	
-0.396057	
-0.395508	
-0.394592	
-0.395325	
-0.395386	
-0.395813	
-0.39502	
-0.394775	
-0.395447	
-0.394104	
-0.394714	
-0.394714	
-0.395325	
-0.394043	
-0.393738	
-0.393738	
-0.393372	
-0.393982	
-0.394409	
-0.39386	
-0.393677	
-0.393433	
-0.393188	
-0.393127	
-0.392883	
-0.3927	
-0.393677	
-0.392456	
-0.392456	
-0.392212	
-0.391907	
-0.393066	
-0.393494	
-0.392944	
-0.392395	
-0.392883	
-0.39209	
-0.393066	
-0.392639	
-0.393555	
-0.393494	
-0.393127	
-0.393738	
-0.394592	
-0.394226	
-0.395081	
-0.394592	
-0.394409	
-0.394897	
-0.394653	
-0.395447	
-0.39563	
-0.395874	
-0.396851	
-0.396179	
-0.396179	
-0.396606	
-0.395752	
-0.396851	
-0.397095	
-0.396423	
-0.396545	
-0.396729	
-0.396729	
-0.396301	
-0.396301	
-0.396729	
-0.397583	
-0.396179	
-0.39563	
-0.396423	
-0.395935	
-0.397705	
-0.396973	
-0.396423	
-0.397461	
-0.397217	
-0.398193	
-0.398804	
-0.399109	
-0.399597	
-0.399231	
-0.399353	
-0.400391	
-0.399475	
-0.399719	
-0.400757	
-0.399597	
-0.400391	
-0.400818	
-0.400085	
-0.400818	
-0.400635	
-0.40094	
-0.401489	
-0.401184	
-0.400513	
-0.400818	
-0.399658	
-0.40094	
-0.39978	
-0.400024	
-0.399902	
-0.399536	
-0.399719	
-0.399658	
-0.399963	
-0.400513	
-0.399353	
-0.399719	
-0.399475	
-0.398315	
-0.399231	
-0.398743	
-0.396484	
-0.397461	
-0.396729	
-0.396301	
-0.397095	
-0.397217	
-0.396851	
-0.396179	
-0.395569	
-0.396118	
-0.394531	
-0.394714	
-0.394043	
-0.392761	
-0.393066	
-0.391968	
-0.392944	
-0.392639	
-0.393066	
-0.3927	
-0.393494	
-0.392639	
-0.392822	
-0.393311	
-0.39325	
-0.392944	
-0.393127	
-0.392334	
-0.39209	
-0.393066	
-0.393066	
-0.393188	
-0.393433	
-0.393677	
-0.393555	
-0.393372	
-0.393799	
-0.394104	
-0.391602	
-0.392456	
-0.392029	
-0.391968	
-0.392517	
-0.392639	
-0.391724	
-0.392578	
-0.39209	
-0.392517	
-0.392395	
-0.392639	
-0.392944	
-0.392212	
-0.391968	
-0.391846	
-0.391479	
-0.391846	
-0.391907	
-0.391907	
-0.391846	
-0.392273	
-0.392273	
-0.392883	
-0.392639	
-0.393616	
-0.3927	
-0.391907	
-0.392761	
-0.392212	
-0.392944	
-0.392761	
-0.393127	
-0.392639	
-0.393311	
-0.393188	
-0.393372	
-0.393494	
-0.394043	
-0.39209	
-0.392273	
-0.392456	
-0.390747	
-0.392334	
-0.391907	
-0.390747	
-0.391296	
-0.390808	
-0.391479	
-0.391663	
-0.392456	
-0.393005	
-0.392334	
-0.392151	
-0.392029	
-0.392639	
-0.392944	
-0.39325	
-0.393433	
-0.3927	
-0.393372	
-0.394226	
-0.394592	
-0.394714	
-0.396118	
-0.396118	
-0.395386	
-0.394531	
-0.394287	
-0.395081	
-0.396729	
-0.395813	
-0.39563	
-0.39502	
-0.39502	
-0.396301	
-0.396484	
-0.397705	
-0.396667	
-0.395264	
-0.395203	
-0.394043	
-0.395447	
-0.395874	
-0.396057	
-0.394958	
-0.394897	
-0.393677	
-0.39502	
-0.394958	
-0.395752	
-0.39563	
-0.39502	
-0.394409	
-0.39325	
-0.393921	
-0.393921	
-0.39502	
-0.393738	
-0.393433	
-0.393188	
-0.391785	
-0.39325	
-0.393494	
-0.393066	
-0.393005	
-0.391968	
-0.390442	
-0.391052	
-0.390442	
-0.391968	
-0.391785	
-0.390503	
-0.390015	
-0.390015	
-0.389343	
-0.389893	
-0.38916	
-0.390503	
-0.388123	
-0.387207	
-0.387451	
-0.385559	
-0.387878	
-0.388184	
-0.388184	
-0.387817	
-0.386963	
-0.387512	
-0.387329	
-0.387817	
-0.388062	
-0.387756	
-0.387573	
-0.388	
-0.387268	
-0.388367	
-0.387878	
-0.388672	
-0.387878	
-0.387817	
-0.387878	
-0.387817	
-0.387268	
-0.388062	
-0.389038	
-0.38739	
-0.387878	
-0.388062	
-0.386719	
-0.387573	
-0.388367	
-0.388916	
-0.388367	
-0.387512	
-0.388123	
-0.386597	
-0.386902	
-0.388672	
-0.387451	
-0.387756	
-0.388367	
-0.388489	
-0.387939	
-0.389526	
-0.390076	
-0.389832	
-0.390198	
-0.391113	
-0.389526	
-0.390137	
-0.390198	
-0.389771	
-0.390442	
-0.390564	
-0.390869	
-0.39032	
-0.391052	
-0.391541	
-0.391907	
-0.391296	
-0.392212	
-0.391479	
-0.390503	
-0.390808	
-0.391907	
-0.392395	
-0.391174	
-0.391174	
-0.390015	
-0.390564	
-0.391418	
-0.391785	
-0.392273	
-0.3927	
-0.391663	
-0.391479	
-0.391602	
-0.392273	
-0.392212	
-0.3927	
-0.392212	
-0.391418	
-0.39209	
-0.392334	
-0.392883	
-0.393799	
-0.394287	
-0.393982	
-0.393127	
-0.392883	
-0.393127	
-0.392456	
-0.393738	
-0.393433	
-0.392822	
-0.392578	
-0.392822	
-0.392761	
-0.393127	
-0.394348	
-0.393127	
-0.393433	
-0.391785	
-0.390686	
-0.392517	
-0.391357	
-0.391663	
-0.390198	
-0.389526	
-0.390137	
-0.388977	
-0.390015	
-0.389954	
-0.389282	
-0.38916	
-0.389221	
-0.388916	
-0.389709	
-0.388489	
-0.388611	
-0.389099	
-0.388184	
-0.388794	
-0.388977	
-0.38916	
-0.388977	
-0.389465	
-0.388916	
-0.388977	
-0.389893	
-0.388794	
-0.389832	
-0.388855	
-0.388428	
-0.388	
-0.387634	
-0.387512	
-0.38678	
-0.387695	
-0.387268	
-0.386536	
-0.385864	
-0.385986	
-0.386292	
-0.38562	
-0.385193	
-0.385437	
-0.384705	
-0.384888	
-0.384705	
-0.38501	
-0.384277	
-0.384277	
-0.385071	
-0.383789	
-0.384583	
-0.38501	
-0.385925	
-0.384705	
-0.384827	
-0.38501	
-0.383606	
-0.384949	
-0.385498	
-0.384521	
-0.38501	
-0.385803	
-0.384827	
-0.385803	
-0.38562	
-0.386047	
-0.386841	
-0.38623	
-0.386658	
-0.386414	
-0.386414	
-0.388062	
-0.387207	
-0.386292	
-0.388245	
-0.388184	
-0.388672	
-0.389343	
-0.390381	
-0.389465	
-0.391602	
-0.390747	
-0.391174	
-0.391418	
-0.391785	
-0.391724	
-0.391968	
-0.391846	
-0.392029	
-0.392517	
-0.393066	
-0.392822	
-0.392456	
-0.392578	
-0.393311	
-0.391663	
-0.392212	
-0.391846	
-0.390137	
-0.390991	
-0.390869	
-0.390991	
-0.391418	
-0.391113	
-0.391357	
-0.391357	
-0.39032	
-0.390808	
-0.391724	
-0.390686	
-0.393372	
-0.391235	
-0.391113	
-0.391602	
-0.390686	
-0.392639	
-0.391602	
-0.391785	
-0.391846	
-0.390503	
-0.391418	
-0.391907	
-0.392029	
-0.3927	
-0.391846	
-0.391357	
-0.391174	
-0.391113	
-0.391785	
-0.391418	
-0.390991	
-0.391357	
-0.391907	
-0.390503	
-0.391174	
-0.391602	
-0.390991	
-0.391235	
-0.390869	
-0.390381	
-0.39093	
-0.390625	
-0.391663	
-0.390686	
-0.390991	
-0.392151	
-0.39032	
-0.391418	
-0.391968	
-0.391907	
-0.391541	
-0.392151	
-0.391296	
-0.390564	
-0.391174	
-0.391663	
-0.391602	
-0.391785	
-0.391968	
-0.391907	
-0.391296	
-0.391296	
-0.390869	
-0.390686	
-0.390381	
-0.38916	
-0.389038	
-0.388245	
-0.388977	
-0.390076	
-0.38916	
-0.388977	
-0.389343	
-0.387268	
-0.388184	
-0.387329	
-0.386536	
-0.387756	
-0.387085	
-0.386963	
-0.386902	
-0.387024	
-0.386658	
-0.38678	
-0.387024	
-0.387451	
-0.387085	
-0.387817	
-0.387634	
-0.38739	
-0.388367	
-0.387085	
-0.388123	
-0.388062	
-0.387939	
-0.387634	
-0.388733	
-0.388306	
-0.388733	
-0.388855	
-0.388184	
-0.388123	
-0.388733	
-0.388977	
-0.389282	
-0.39032	
-0.389709	
-0.389526	
-0.389221	
-0.390259	
-0.390442	
-0.390381	
-0.391418	
-0.390869	
-0.390747	
-0.391296	
-0.39032	
-0.39209	
-0.393433	
-0.392639	
	
