E:\DOCUMENTS AND SETTINGS\JPOTAS\MEUS DOCUMENTOS\UFRJ\RSCI-BM 12 WK SERIES\070730-RSCI-BM-09\RSCI-BM-09-LEMG\070730-RSCI-BM-09-LEMG-0020.ACQ
0.025000 msec/sample
1 channel
Analog input
Volts
CH1	
2000	
-0.402832	
-0.40332	
-0.403198	
-0.403076	
-0.403259	
-0.402466	
-0.402588	
-0.399719	
-0.401672	
-0.401062	
-0.399597	
-0.39978	
-0.399597	
-0.399902	
-0.399231	
-0.399719	
-0.400146	
-0.399414	
-0.400146	
-0.398254	
-0.399841	
-0.399841	
-0.398987	
-0.399048	
-0.398804	
-0.399109	
-0.399231	
-0.399841	
-0.400635	
-0.400146	
-0.400818	
-0.400024	
-0.401733	
-0.400635	
-0.400757	
-0.400757	
-0.400574	
-0.401794	
-0.401794	
-0.402771	
-0.402649	
-0.402161	
-0.40271	
-0.401794	
-0.402954	
-0.402039	
-0.402771	
-0.402588	
-0.401733	
-0.403198	
-0.403687	
-0.404968	
-0.405396	
-0.405151	
-0.406372	
-0.406006	
-0.40802	
-0.406311	
-0.406616	
-0.40686	
-0.406982	
-0.407959	
-0.407959	
-0.408691	
-0.409058	
-0.408752	
-0.40918	
-0.408752	
-0.409485	
-0.408569	
-0.408142	
-0.408142	
-0.407959	
-0.408386	
-0.408325	
-0.408813	
-0.409302	
-0.408508	
-0.408447	
-0.408081	
-0.409546	
-0.40802	
-0.407959	
-0.407654	
-0.408081	
-0.407837	
-0.408142	
-0.408142	
-0.409119	
-0.408142	
-0.408203	
-0.40802	
-0.409119	
-0.40863	
-0.408447	
-0.407715	
-0.407593	
-0.407959	
-0.408508	
-0.408081	
-0.408203	
-0.40802	
-0.408081	
-0.407349	
-0.40863	
-0.406799	
-0.406555	
-0.406189	
-0.406799	
-0.406677	
-0.407043	
-0.407043	
-0.407043	
-0.406555	
-0.406128	
-0.40686	
-0.406189	
-0.40564	
-0.405945	
-0.405212	
-0.406555	
-0.406921	
-0.406738	
-0.406799	
-0.407349	
-0.407166	
-0.406494	
-0.406982	
-0.407471	
-0.406189	
-0.405579	
-0.403687	
-0.405701	
-0.405273	
-0.405334	
-0.405762	
-0.405212	
-0.405151	
-0.404663	
-0.405029	
-0.40448	
-0.403992	
-0.404175	
-0.403198	
-0.403992	
-0.404175	
-0.404358	
-0.404053	
-0.404114	
-0.403992	
-0.402649	
-0.403748	
-0.403442	
-0.401978	
-0.402466	
-0.400818	
-0.402771	
-0.402527	
-0.403076	
-0.403442	
-0.402893	
-0.403015	
-0.40271	
-0.403198	
-0.403198	
-0.402893	
-0.403442	
-0.403687	
-0.404114	
-0.404175	
-0.405029	
-0.404541	
-0.404358	
-0.404846	
-0.404785	
-0.405212	
-0.405212	
-0.404541	
-0.405151	
-0.405212	
-0.405945	
-0.406189	
-0.407043	
-0.407959	
-0.406799	
-0.407593	
-0.407288	
-0.409363	
-0.408386	
-0.407959	
-0.409302	
-0.409485	
-0.409363	
-0.409668	
-0.410706	
-0.410889	
-0.410034	
-0.405396	
-0.389099	
-0.388977	
-0.387695	
-0.388123	
-0.388855	
-0.396423	
-0.411987	
-0.41394	
-0.414795	
-0.414063	
-0.413513	
-0.413086	
-0.412476	
-0.413391	
-0.411499	
-0.411804	
-0.411316	
-0.41156	
-0.411682	
-0.411804	
-0.411682	
-0.411438	
-0.411255	
-0.410828	
-0.411804	
-0.411194	
-0.410461	
-0.410461	
-0.408997	
-0.410828	
-0.410645	
-0.41095	
-0.411194	
-0.411011	
-0.410522	
-0.40979	
-0.409912	
-0.409973	
-0.408142	
-0.409241	
-0.407593	
-0.40918	
-0.409302	
-0.408936	
-0.409302	
-0.409241	
-0.409485	
-0.408691	
-0.410706	
-0.4104	
-0.409607	
-0.4104	
-0.409058	
-0.410339	
-0.410889	
-0.41156	
-0.410828	
-0.411194	
-0.410889	
-0.409485	
-0.410461	
-0.410767	
-0.411743	
-0.412842	
-0.413147	
-0.417664	
-0.421204	
-0.426208	
-0.430847	
-0.436035	
-0.442139	
-0.448853	
-0.457092	
-0.462952	
-0.471802	
-0.477844	
-0.484314	
-0.488647	
-0.493591	
-0.496887	
-0.500305	
-0.502258	
-0.503296	
-0.505493	
-0.504456	
-0.505127	
-0.505066	
-0.505615	
-0.505737	
-0.505798	
-0.50647	
-0.506592	
-0.506348	
-0.505859	
-0.504761	
-0.50415	
-0.503418	
-0.503052	
-0.501892	
-0.501587	
-0.500366	
-0.499573	
-0.49823	
-0.498047	
-0.497009	
-0.494568	
-0.494873	
-0.494019	
-0.49176	
-0.492004	
-0.490173	
-0.491577	
-0.490784	
-0.490479	
-0.489441	
-0.488953	
-0.488464	
-0.487732	
-0.488342	
-0.486267	
-0.485657	
-0.48468	
-0.484009	
-0.482971	
-0.481384	
-0.479126	
-0.476929	
-0.474548	
-0.472107	
-0.469543	
-0.468323	
-0.463989	
-0.462036	
-0.459961	
-0.458008	
-0.457031	
-0.456055	
-0.455322	
-0.454773	
-0.454346	
-0.453003	
-0.453552	
-0.453491	
-0.452271	
-0.45282	
-0.450684	
-0.450867	
-0.450073	
-0.449951	
-0.448364	
-0.446289	
-0.445313	
-0.443115	
-0.44165	
-0.438049	
-0.434998	
-0.431396	
-0.426636	
-0.423035	
-0.417847	
-0.412476	
-0.406311	
-0.399719	
-0.393433	
-0.385864	
-0.378296	
-0.370056	
-0.360596	
-0.352905	
-0.343689	
-0.33606	
-0.328064	
-0.321228	
-0.314148	
-0.307373	
-0.301758	
-0.295959	
-0.291321	
-0.287903	
-0.285278	
-0.282776	
-0.282227	
-0.281982	
-0.282776	
-0.282837	
-0.284912	
-0.284851	
-0.285095	
-0.287476	
-0.288757	
-0.290771	
-0.293701	
-0.296143	
-0.300293	
-0.303528	
-0.3078	
-0.311707	
-0.315002	
-0.317688	
-0.321472	
-0.325684	
-0.328491	
-0.331482	
-0.333923	
-0.338135	
-0.341492	
-0.344238	
-0.346497	
-0.349365	
-0.351257	
-0.352722	
-0.355347	
-0.357117	
-0.358582	
-0.358276	
-0.361206	
-0.363403	
-0.36554	
-0.365723	
-0.367065	
-0.367615	
-0.368591	
-0.370361	
-0.370728	
-0.371155	
-0.37146	
-0.373291	
-0.373718	
-0.375183	
-0.375366	
-0.376038	
-0.376221	
-0.37616	
-0.378174	
-0.378296	
-0.378357	
-0.377869	
-0.37915	
-0.379272	
-0.380798	
-0.381226	
-0.380737	
-0.380066	
-0.380798	
-0.381897	
-0.380127	
-0.380127	
-0.38031	
-0.379333	
-0.380371	
-0.380249	
-0.379272	
-0.37854	
-0.378723	
-0.376404	
-0.375916	
-0.377197	
-0.375183	
-0.374878	
-0.373779	
-0.373657	
-0.372986	
-0.373413	
-0.373413	
-0.373047	
-0.371338	
-0.371643	
-0.372925	
-0.371521	
-0.370911	
-0.370483	
-0.371033	
-0.370483	
-0.371094	
-0.371704	
-0.371643	
-0.371094	
-0.370667	
-0.372864	
-0.372559	
-0.372864	
-0.372925	
-0.372192	
-0.37439	
-0.374756	
-0.375977	
-0.376038	
-0.37616	
-0.376526	
-0.377136	
-0.378906	
-0.378479	
-0.379517	
-0.379761	
-0.380554	
-0.381042	
-0.38147	
-0.382568	
-0.382263	
-0.381836	
-0.381714	
-0.382568	
-0.38324	
-0.383057	
-0.383362	
-0.382141	
-0.383972	
-0.384216	
-0.385437	
-0.384644	
-0.38446	
-0.384521	
-0.383911	
-0.384583	
-0.38501	
-0.384705	
-0.382996	
-0.384521	
-0.384705	
-0.385498	
-0.385193	
-0.384644	
-0.384338	
-0.384155	
-0.383789	
-0.384094	
-0.383667	
-0.382202	
-0.383301	
-0.383545	
-0.384338	
-0.384583	
-0.38446	
-0.383728	
-0.384338	
-0.383789	
-0.383545	
-0.383362	
-0.382141	
-0.382629	
-0.383301	
-0.383667	
-0.383911	
-0.384521	
-0.384094	
-0.383118	
-0.384338	
-0.384094	
-0.384399	
-0.383911	
-0.384338	
-0.38501	
-0.385132	
-0.385864	
-0.386475	
-0.38623	
-0.385132	
-0.386292	
-0.386719	
-0.385803	
-0.386108	
-0.385681	
-0.385925	
-0.386597	
-0.386902	
-0.386963	
-0.386841	
-0.387146	
-0.386475	
-0.38739	
-0.38739	
-0.388062	
-0.387817	
-0.387634	
-0.389038	
-0.389465	
-0.389832	
-0.390259	
-0.389954	
-0.390076	
-0.390991	
-0.390625	
-0.389648	
-0.390442	
-0.390869	
-0.390442	
-0.390808	
-0.391174	
-0.391724	
-0.391357	
-0.392395	
-0.390869	
-0.390442	
-0.391418	
-0.39209	
-0.391296	
-0.390991	
-0.392151	
-0.3927	
-0.393311	
-0.393433	
-0.392639	
-0.39325	
-0.393616	
-0.394165	
-0.393494	
-0.394104	
-0.393188	
-0.394409	
-0.394409	
-0.394592	
-0.394409	
-0.395081	
-0.394897	
-0.394043	
-0.395569	
-0.395691	
-0.394653	
-0.395081	
-0.394958	
-0.395935	
-0.396362	
-0.396912	
-0.396545	
-0.39624	
-0.396729	
-0.396973	
-0.396912	
-0.395508	
-0.39563	
-0.396057	
-0.396118	
-0.395508	
-0.396362	
-0.396423	
-0.395447	
-0.395386	
-0.394043	
-0.395996	
-0.395203	
-0.394165	
-0.394165	
-0.395203	
-0.394775	
-0.395325	
-0.395752	
-0.394653	
-0.395081	
-0.395203	
-0.39624	
-0.395203	
-0.39502	
-0.395386	
-0.395264	
-0.395569	
-0.395874	
-0.39679	
-0.396057	
-0.396179	
-0.396484	
-0.39679	
-0.397705	
-0.396973	
-0.396667	
-0.396973	
-0.397034	
-0.396851	
-0.397278	
-0.397949	
-0.397034	
-0.396606	
-0.396606	
-0.395691	
-0.396118	
-0.394958	
-0.39386	
-0.393311	
-0.393982	
-0.394226	
-0.394653	
-0.394348	
-0.393677	
-0.39325	
-0.393494	
-0.393555	
-0.39325	
-0.391968	
-0.392944	
-0.393311	
-0.393311	
-0.39325	
-0.393616	
-0.39325	
-0.392883	
-0.393188	
-0.393982	
-0.394043	
-0.393555	
-0.393677	
-0.394958	
-0.395203	
-0.395142	
-0.396484	
-0.396484	
-0.396057	
-0.396362	
-0.397095	
-0.397461	
-0.396362	
-0.395508	
-0.396362	
-0.396912	
-0.397217	
-0.397522	
-0.398193	
-0.398315	
-0.397766	
-0.397644	
-0.398987	
-0.399109	
-0.399292	
-0.398743	
-0.400208	
-0.400879	
-0.401123	
-0.402771	
-0.402283	
-0.402283	
-0.402527	
-0.403931	
-0.403442	
-0.40332	
-0.403137	
-0.402466	
-0.403809	
-0.404358	
-0.404297	
-0.404419	
-0.404785	
-0.404297	
-0.403687	
-0.40564	
-0.40448	
-0.403687	
-0.40271	
-0.403931	
-0.404236	
-0.40448	
-0.404602	
-0.403687	
-0.404236	
-0.404053	
-0.404114	
-0.404602	
-0.403931	
-0.403503	
-0.403625	
-0.404053	
-0.403931	
-0.404236	
-0.404297	
-0.404541	
-0.404419	
-0.403748	
-0.404602	
-0.403137	
-0.404175	
-0.403015	
-0.401672	
-0.404053	
-0.403931	
-0.404236	
-0.403381	
-0.404053	
-0.40271	
-0.403748	
-0.404419	
-0.40271	
-0.402588	
-0.402527	
-0.403015	
-0.403015	
-0.402954	
-0.403076	
-0.402893	
-0.402283	
-0.401733	
-0.403809	
-0.403076	
-0.40271	
-0.402405	
-0.401794	
-0.403015	
-0.403687	
-0.404114	
-0.403503	
-0.403931	
-0.40271	
-0.402832	
-0.403503	
-0.402344	
-0.401855	
-0.400513	
-0.401367	
-0.401855	
-0.401917	
-0.401428	
-0.401733	
-0.401917	
-0.40033	
-0.401855	
-0.401733	
-0.40094	
-0.400696	
-0.398865	
-0.400513	
-0.401001	
-0.401123	
-0.400574	
-0.400757	
-0.400208	
-0.399536	
-0.401062	
-0.400818	
-0.39978	
-0.399292	
-0.399231	
-0.399841	
-0.39978	
-0.400818	
-0.399841	
-0.400879	
-0.400085	
-0.401123	
-0.401184	
-0.40094	
-0.400879	
-0.398926	
-0.400085	
-0.401367	
-0.401428	
-0.402344	
-0.402161	
-0.402344	
-0.401978	
-0.40387	
-0.401917	
-0.40271	
-0.40271	
-0.401917	
-0.40271	
-0.403809	
-0.404175	
-0.40448	
-0.405212	
-0.404907	
-0.405273	
-0.407288	
-0.407166	
-0.406494	
-0.406128	
-0.406616	
-0.406982	
-0.407288	
-0.407837	
-0.407349	
-0.407959	
-0.407349	
-0.408203	
-0.407837	
-0.407043	
-0.407532	
-0.406738	
-0.40741	
-0.408142	
-0.408203	
-0.408813	
-0.408447	
-0.408752	
-0.407837	
-0.408997	
-0.407776	
-0.407898	
-0.407288	
-0.407166	
-0.406677	
-0.407959	
-0.407715	
-0.408203	
-0.407532	
-0.407593	
-0.407715	
-0.40918	
-0.406982	
-0.407471	
-0.407104	
-0.40741	
-0.407654	
-0.407349	
-0.407654	
-0.407166	
-0.407654	
-0.406982	
-0.40802	
-0.406616	
-0.405884	
-0.405518	
-0.405457	
-0.404175	
-0.405212	
-0.405334	
-0.406067	
-0.405396	
-0.405212	
-0.405151	
-0.406433	
-0.404907	
-0.404907	
-0.404846	
-0.404968	
-0.403931	
-0.404968	
-0.404907	
-0.405823	
-0.40509	
-0.404846	
-0.404846	
-0.405334	
-0.405151	
-0.404114	
-0.403015	
-0.403564	
-0.403992	
-0.403748	
-0.404114	
-0.403503	
-0.403564	
-0.403564	
-0.403687	
-0.403442	
-0.402588	
-0.402466	
-0.402344	
-0.402649	
-0.402649	
-0.402527	
-0.403076	
-0.402649	
-0.403564	
-0.402588	
-0.402893	
-0.402344	
-0.40271	
-0.401733	
-0.402039	
-0.401306	
-0.402161	
-0.402771	
-0.403198	
-0.402588	
-0.403442	
-0.402466	
-0.403137	
-0.40332	
-0.403015	
-0.401794	
-0.403015	
-0.402588	
-0.403809	
-0.403931	
-0.404358	
-0.403809	
-0.404053	
-0.40509	
-0.404236	
-0.40387	
-0.404297	
-0.40448	
-0.404968	
-0.404724	
-0.40509	
-0.405212	
-0.405396	
-0.405701	
-0.405151	
-0.405762	
-0.40564	
-0.40509	
-0.404846	
-0.405151	
-0.404663	
-0.404846	
-0.404053	
-0.405029	
-0.404175	
-0.404846	
-0.404175	
-0.404297	
-0.403992	
-0.404114	
-0.402222	
-0.404175	
-0.404175	
-0.404602	
-0.404541	
-0.405334	
-0.405457	
-0.405701	
-0.406982	
-0.406555	
-0.406555	
-0.406677	
-0.406433	
-0.407654	
-0.406982	
-0.407898	
-0.408386	
-0.408447	
-0.408691	
-0.408386	
-0.408875	
-0.408569	
-0.408752	
-0.408142	
-0.408325	
-0.408875	
-0.408813	
-0.408875	
-0.408875	
-0.40918	
-0.409241	
-0.408447	
-0.407898	
-0.407959	
-0.407776	
-0.406433	
-0.406616	
-0.406982	
-0.40625	
-0.406616	
-0.406616	
-0.406372	
-0.406738	
-0.405945	
-0.40686	
-0.406006	
-0.405396	
-0.404358	
-0.405212	
-0.404663	
-0.404785	
-0.405151	
-0.405151	
-0.404541	
-0.404114	
-0.402832	
-0.402344	
-0.401978	
-0.401794	
-0.400452	
-0.400757	
-0.399902	
-0.400391	
-0.400391	
-0.400452	
-0.400574	
-0.400269	
-0.400146	
-0.399292	
-0.399841	
-0.399475	
-0.398865	
-0.399536	
-0.399658	
-0.399719	
-0.400085	
-0.399841	
-0.400269	
-0.399902	
-0.400635	
-0.39978	
-0.400085	
-0.399292	
-0.399902	
-0.399292	
-0.400146	
-0.400085	
-0.401062	
-0.400269	
-0.400269	
-0.400024	
-0.400269	
-0.399231	
-0.400208	
-0.398621	
-0.399597	
-0.399048	
-0.400146	
-0.399902	
-0.401123	
-0.401123	
-0.400513	
-0.401245	
-0.400757	
-0.401245	
-0.40094	
-0.40033	
-0.400574	
-0.401001	
-0.401306	
-0.401794	
-0.401611	
-0.402283	
-0.401855	
-0.402405	
-0.402222	
-0.403259	
-0.402161	
-0.401917	
-0.402344	
-0.402832	
-0.402588	
-0.402893	
-0.401917	
-0.402588	
-0.402649	
-0.402039	
-0.400757	
-0.401855	
-0.40155	
-0.402527	
-0.401672	
-0.4021	
-0.403076	
-0.404175	
-0.403381	
-0.402954	
-0.404175	
-0.404297	
-0.402344	
-0.403198	
-0.403442	
-0.404053	
-0.40332	
-0.40387	
-0.404907	
-0.404785	
-0.404968	
-0.404602	
-0.404907	
-0.404907	
-0.404785	
-0.404663	
-0.404602	
-0.405273	
-0.405457	
-0.405884	
-0.406128	
-0.406067	
-0.406982	
-0.406677	
-0.405396	
-0.406067	
-0.406921	
-0.40509	
-0.40448	
-0.405212	
-0.405579	
-0.405579	
-0.405518	
-0.405029	
-0.405396	
-0.40448	
-0.405151	
-0.404602	
-0.404053	
-0.403381	
-0.403748	
-0.402527	
-0.40332	
-0.403687	
-0.403198	
-0.402893	
-0.402771	
-0.402466	
-0.402283	
-0.401489	
-0.401672	
-0.401489	
-0.401245	
-0.39978	
-0.400757	
-0.400391	
-0.399963	
-0.400269	
-0.399109	
-0.398682	
-0.399292	
-0.399719	
-0.39917	
-0.398071	
-0.399109	
-0.398926	
-0.398804	
-0.399414	
-0.398743	
-0.398743	
-0.398254	
-0.399963	
-0.398193	
-0.398621	
-0.3974	
-0.397949	
-0.398071	
-0.39856	
-0.39856	
-0.399292	
-0.398804	
-0.399536	
-0.398621	
-0.399963	
-0.399292	
-0.399719	
-0.398193	
-0.398987	
-0.398438	
-0.398987	
-0.399109	
-0.39978	
-0.399231	
-0.40033	
-0.398499	
-0.399658	
-0.399841	
-0.39978	
-0.398254	
-0.399536	
-0.399963	
-0.400818	
-0.401611	
-0.400757	
-0.401184	
-0.401001	
-0.402344	
-0.401367	
-0.401489	
-0.401001	
-0.401245	
-0.401306	
-0.401978	
-0.402039	
-0.402283	
-0.402405	
-0.402466	
-0.401428	
-0.403137	
-0.401855	
-0.402405	
-0.401367	
-0.401855	
-0.401733	
-0.402588	
-0.402527	
-0.402344	
-0.402588	
-0.40332	
-0.402161	
-0.403625	
-0.403015	
-0.403015	
-0.402222	
-0.403259	
-0.403259	
-0.40387	
-0.404663	
-0.403687	
-0.403809	
-0.404175	
-0.40509	
-0.404907	
-0.404419	
-0.404541	
-0.404602	
-0.404663	
-0.404541	
-0.404907	
-0.405762	
-0.404724	
-0.404846	
-0.404541	
-0.406311	
-0.405579	
-0.404297	
-0.40448	
-0.404419	
-0.404419	
-0.404541	
-0.404602	
-0.403931	
-0.403809	
-0.403687	
-0.40271	
-0.403809	
-0.403503	
-0.402649	
-0.402161	
-0.40271	
-0.402405	
-0.402649	
-0.403015	
-0.402039	
-0.402466	
-0.403015	
-0.401428	
-0.402222	
-0.40271	
-0.402039	
-0.402222	
-0.401245	
-0.402039	
-0.40271	
-0.403137	
-0.402588	
-0.402649	
-0.403198	
-0.403381	
-0.403503	
-0.403564	
-0.402954	
-0.403015	
-0.402893	
-0.403381	
-0.403442	
-0.403503	
-0.403259	
-0.403076	
-0.403137	
-0.403625	
-0.403259	
-0.402588	
-0.401611	
-0.401672	
-0.400391	
-0.400452	
-0.40033	
-0.400085	
-0.39978	
-0.399597	
-0.400024	
-0.399353	
-0.399963	
-0.39856	
-0.397827	
-0.398499	
-0.397827	
-0.398865	
-0.399292	
-0.398865	
-0.398438	
-0.398926	
-0.398926	
-0.398926	
-0.398865	
-0.398193	
-0.398499	
-0.398438	
-0.398438	
-0.400513	
-0.400574	
-0.40033	
-0.400696	
-0.40094	
-0.401855	
-0.401306	
-0.401672	
-0.40094	
-0.401245	
-0.400208	
-0.401917	
-0.401978	
-0.402527	
-0.402283	
-0.402405	
-0.402588	
-0.40387	
-0.404175	
-0.404114	
-0.402954	
-0.404175	
-0.404541	
-0.405334	
-0.405945	
-0.406372	
-0.406738	
-0.406799	
-0.407715	
-0.40741	
-0.408264	
-0.407776	
-0.406616	
-0.407837	
-0.408081	
-0.408447	
-0.40918	
-0.40802	
-0.408203	
-0.408264	
-0.409729	
-0.408752	
-0.408569	
-0.407715	
-0.40686	
-0.406738	
-0.406738	
-0.407898	
-0.409241	
-0.408081	
-0.407837	
-0.407715	
-0.408447	
-0.407715	
-0.407654	
-0.407043	
-0.407532	
-0.40686	
-0.406799	
-0.408508	
-0.408142	
-0.407532	
-0.407715	
-0.406982	
-0.408997	
-0.407959	
-0.407959	
-0.406616	
-0.407043	
-0.405945	
-0.407043	
-0.407227	
-0.406799	
-0.406799	
-0.406494	
-0.406006	
-0.406982	
-0.407227	
-0.407288	
-0.405945	
-0.406128	
-0.40564	
-0.405823	
-0.407166	
-0.405823	
-0.406006	
-0.405579	
-0.406921	
-0.406067	
-0.406982	
-0.406738	
-0.405701	
-0.406799	
-0.406433	
-0.406799	
-0.407349	
-0.40625	
-0.406189	
-0.405945	
-0.407227	
-0.406067	
-0.405518	
-0.404785	
-0.404724	
-0.404907	
-0.404297	
-0.404663	
-0.405579	
-0.404297	
-0.404053	
-0.404114	
-0.405823	
-0.403931	
-0.404358	
-0.403992	
-0.403564	
-0.40332	
-0.40332	
-0.40332	
-0.403625	
-0.402954	
-0.40271	
-0.402283	
-0.403503	
-0.402954	
-0.402832	
-0.40094	
-0.402283	
-0.401306	
-0.4021	
-0.402649	
-0.403015	
-0.402832	
-0.403137	
-0.40271	
-0.403625	
-0.404419	
-0.404297	
-0.401489	
-0.403564	
-0.403564	
-0.403381	
-0.404846	
-0.404419	
-0.404968	
-0.404846	
-0.406006	
-0.405151	
-0.406006	
-0.406189	
-0.404602	
-0.406006	
-0.406372	
-0.406799	
-0.407593	
-0.40741	
-0.407959	
-0.408325	
-0.409546	
-0.409302	
-0.409729	
-0.408997	
-0.40918	
-0.409058	
-0.409485	
-0.409302	
-0.409607	
-0.409424	
-0.409302	
-0.409668	
-0.41095	
-0.410522	
-0.411072	
-0.410339	
-0.410156	
-0.410095	
-0.410278	
-0.410583	
-0.411011	
-0.410095	
-0.410156	
-0.410339	
-0.409851	
-0.410217	
-0.410278	
-0.409363	
-0.409851	
-0.40863	
-0.408813	
-0.409546	
-0.409973	
-0.409546	
-0.409302	
-0.409668	
-0.409973	
-0.410217	
-0.409912	
-0.407898	
-0.409302	
-0.408264	
-0.408386	
-0.409302	
-0.408936	
-0.408508	
-0.408569	
-0.408569	
-0.408264	
-0.408569	
-0.40802	
-0.406128	
-0.407104	
-0.40741	
-0.40741	
-0.40741	
-0.407654	
-0.407227	
-0.407043	
-0.407532	
-0.40741	
-0.407959	
-0.407654	
-0.406372	
-0.406738	
-0.407227	
-0.407104	
-0.408081	
-0.406982	
-0.406677	
-0.406616	
-0.408203	
-0.406433	
-0.406738	
-0.40625	
-0.405945	
-0.405518	
-0.40564	
-0.406067	
-0.406616	
-0.405212	
-0.405029	
-0.405579	
-0.406311	
-0.404846	
-0.404785	
-0.405029	
-0.404846	
-0.403748	
-0.404236	
-0.404663	
-0.404602	
-0.403931	
-0.404297	
-0.403625	
-0.405212	
-0.40448	
-0.404175	
-0.404236	
-0.404175	
-0.403015	
-0.404114	
-0.404602	
-0.404053	
-0.40448	
-0.404602	
-0.405212	
-0.405945	
-0.406433	
-0.405212	
-0.405029	
-0.405334	
-0.405823	
-0.405273	
-0.406799	
-0.40625	
-0.406311	
-0.406372	
-0.407593	
-0.406982	
-0.406921	
-0.406677	
-0.406555	
-0.406738	
-0.407104	
-0.406433	
-0.408203	
-0.407104	
-0.407349	
-0.406921	
-0.408386	
-0.40686	
-0.407166	
-0.406189	
-0.405029	
-0.405212	
-0.405396	
-0.405884	
-0.40625	
-0.405945	
-0.405884	
-0.406067	
-0.406555	
-0.40625	
-0.405701	
-0.405579	
-0.406494	
-0.404968	
-0.406799	
-0.407104	
-0.407898	
-0.407959	
-0.408569	
-0.409058	
-0.409058	
-0.409546	
-0.409607	
-0.408325	
-0.409424	
-0.409241	
-0.409973	
-0.410278	
-0.410095	
-0.410583	
-0.410706	
-0.410156	
-0.411011	
-0.41095	
-0.410461	
-0.409119	
-0.409973	
-0.40979	
-0.409912	
-0.410034	
-0.409485	
-0.409302	
-0.40918	
-0.410095	
-0.408691	
-0.409058	
-0.40802	
-0.408691	
-0.407593	
-0.407043	
-0.407715	
-0.408447	
-0.407532	
-0.407593	
-0.407104	
-0.408752	
-0.407471	
-0.407532	
-0.406433	
-0.406616	
-0.406067	
-0.405396	
-0.403931	
-0.405151	
-0.403992	
-0.403992	
-0.403198	
-0.404114	
-0.402954	
-0.402832	
-0.401794	
-0.401733	
-0.401428	
-0.40155	
-0.399902	
-0.402405	
-0.401184	
-0.40155	
-0.401917	
-0.401733	
-0.401367	
-0.401611	
-0.400635	
-0.401794	
-0.401306	
-0.401367	
-0.401733	
-0.402588	
-0.40155	
-0.40155	
-0.402039	
-0.401855	
-0.402222	
-0.401672	
-0.401001	
-0.401794	
-0.400574	
-0.401306	
-0.401855	
-0.401367	
-0.401917	
-0.401672	
-0.401245	
-0.401855	
-0.401489	
-0.401001	
-0.400818	
-0.40155	
-0.401184	
-0.401245	
-0.402161	
-0.401733	
-0.401855	
-0.402405	
-0.4021	
-0.403015	
-0.403198	
-0.402527	
-0.401917	
-0.402283	
-0.403015	
-0.403809	
-0.403809	
-0.403748	
-0.403992	
-0.40448	
-0.403931	
-0.404236	
-0.404785	
-0.403076	
-0.402649	
-0.403198	
-0.403259	
-0.402527	
-0.403503	
-0.403015	
-0.402527	
-0.403931	
-0.404297	
-0.404053	
-0.404602	
-0.404663	
-0.404297	
-0.404114	
-0.404419	
-0.404785	
-0.404846	
-0.404358	
-0.404907	
-0.405212	
-0.405334	
-0.404785	
-0.405762	
-0.405701	
-0.40564	
-0.405518	
-0.405396	
-0.405884	
-0.40625	
-0.406189	
-0.40625	
-0.406677	
-0.407288	
-0.40625	
-0.407227	
-0.407288	
-0.407104	
-0.406982	
-0.40686	
-0.407715	
-0.407349	
-0.407349	
-0.406555	
-0.406189	
-0.406738	
-0.406555	
-0.406311	
-0.405823	
-0.40564	
-0.405273	
-0.404724	
-0.406128	
-0.405334	
-0.405701	
-0.405273	
-0.405029	
-0.403809	
-0.404297	
-0.404175	
-0.402222	
-0.404236	
-0.402832	
-0.402161	
-0.403503	
-0.40271	
-0.402283	
-0.401367	
-0.4021	
-0.401062	
-0.40155	
-0.400635	
-0.400879	
-0.400879	
-0.398987	
-0.399414	
-0.400269	
-0.400269	
-0.40033	
-0.39978	
-0.400085	
-0.399719	
-0.399536	
-0.399292	
-0.399841	
-0.400208	
-0.399048	
-0.399536	
-0.399414	
-0.398376	
-0.398987	
-0.399902	
-0.400696	
-0.399353	
-0.399902	
-0.399963	
-0.399109	
-0.399597	
-0.399597	
-0.400513	
-0.399841	
-0.400085	
-0.399902	
-0.401611	
-0.400269	
-0.400208	
-0.400452	
-0.399048	
-0.40033	
-0.399841	
-0.398865	
-0.401367	
-0.400574	
-0.40094	
-0.400452	
-0.400757	
-0.400635	
-0.401611	
-0.401367	
-0.401794	
-0.402222	
-0.40155	
-0.401978	
-0.402405	
-0.402222	
-0.402649	
-0.403015	
-0.403809	
-0.403198	
-0.403442	
-0.403931	
-0.402649	
-0.402405	
-0.402222	
-0.402649	
-0.40332	
-0.403564	
-0.402954	
-0.403198	
-0.403992	
-0.402893	
-0.403503	
-0.404663	
-0.403564	
-0.403625	
-0.403564	
-0.403748	
-0.40387	
-0.403931	
-0.403442	
-0.404785	
-0.404297	
-0.40448	
-0.405029	
-0.40509	
-0.404602	
-0.404846	
-0.404297	
-0.405701	
-0.405396	
-0.405396	
-0.40509	
-0.407288	
-0.405457	
-0.406433	
-0.405823	
-0.407532	
-0.405701	
-0.406677	
-0.405701	
-0.404785	
-0.406189	
-0.406006	
-0.405273	
-0.406616	
-0.405701	
-0.404968	
-0.403992	
-0.40509	
-0.404358	
-0.404236	
-0.403259	
-0.404602	
-0.40387	
-0.403687	
-0.40448	
-0.404663	
-0.403625	
-0.403259	
-0.403076	
-0.404114	
-0.403503	
-0.402954	
-0.401917	
-0.403259	
-0.403137	
-0.404053	
-0.404114	
-0.404175	
-0.404663	
-0.403137	
-0.404297	
-0.403381	
-0.403748	
-0.404053	
-0.40448	
-0.403992	
-0.404541	
-0.404297	
-0.40564	
-0.40448	
-0.404297	
-0.403992	
-0.404663	
	
