E:\DOCUMENTS AND SETTINGS\JPOTAS\MEUS DOCUMENTOS\UFRJ\RSCI-BM 12 WK SERIES\070730-RSCI-BM-09\RSCI-BM-09-LEMG\070730-RSCI-BM-09-LEMG-0005.ACQ
0.025000 msec/sample
1 channel
Analog input
Volts
CH1	
2000	
-0.401611	
-0.399109	
-0.400757	
-0.400452	
-0.400146	
-0.400146	
-0.400208	
-0.400269	
-0.400146	
-0.400513	
-0.401184	
-0.400146	
-0.399597	
-0.399109	
-0.399841	
-0.399658	
-0.400085	
-0.400269	
-0.400513	
-0.401306	
-0.401062	
-0.40094	
-0.401489	
-0.401184	
-0.401855	
-0.400574	
-0.401184	
-0.40155	
-0.401062	
-0.401611	
-0.402039	
-0.403137	
-0.402588	
-0.403687	
-0.404785	
-0.403259	
-0.404663	
-0.404175	
-0.404541	
-0.404724	
-0.404602	
-0.405457	
-0.405823	
-0.406921	
-0.406372	
-0.407288	
-0.408081	
-0.407043	
-0.407837	
-0.407471	
-0.40741	
-0.40802	
-0.407654	
-0.408752	
-0.408936	
-0.409363	
-0.409119	
-0.409912	
-0.409851	
-0.408386	
-0.409485	
-0.409058	
-0.408264	
-0.408569	
-0.407227	
-0.408264	
-0.408813	
-0.408997	
-0.407654	
-0.408142	
-0.408569	
-0.407166	
-0.407227	
-0.406555	
-0.406372	
-0.406982	
-0.406616	
-0.407288	
-0.40686	
-0.407349	
-0.406738	
-0.407532	
-0.406982	
-0.406006	
-0.406128	
-0.406616	
-0.405151	
-0.405823	
-0.405701	
-0.406189	
-0.405762	
-0.40625	
-0.406006	
-0.407166	
-0.406311	
-0.405518	
-0.405823	
-0.405945	
-0.404846	
-0.405701	
-0.406006	
-0.406189	
-0.406555	
-0.406677	
-0.407288	
-0.407898	
-0.406921	
-0.406738	
-0.40625	
-0.406006	
-0.405212	
-0.406006	
-0.40564	
-0.405579	
-0.405518	
-0.405273	
-0.40509	
-0.404602	
-0.404358	
-0.404419	
-0.403931	
-0.403748	
-0.403015	
-0.403259	
-0.402893	
-0.402649	
-0.403015	
-0.403076	
-0.40332	
-0.402832	
-0.402649	
-0.402954	
-0.402161	
-0.401855	
-0.401611	
-0.401978	
-0.401733	
-0.401733	
-0.401733	
-0.4021	
-0.402649	
-0.402222	
-0.402344	
-0.402954	
-0.402222	
-0.401672	
-0.401794	
-0.401062	
-0.401855	
-0.401062	
-0.4021	
-0.401917	
-0.402832	
-0.4021	
-0.401794	
-0.402283	
-0.401855	
-0.401245	
-0.402283	
-0.401611	
-0.402466	
-0.402039	
-0.403076	
-0.403564	
-0.404114	
-0.403625	
-0.404297	
-0.40448	
-0.404114	
-0.404236	
-0.404846	
-0.403687	
-0.404663	
-0.404236	
-0.406006	
-0.406555	
-0.407532	
-0.407471	
-0.407349	
-0.408325	
-0.408325	
-0.407959	
-0.407959	
-0.40741	
-0.408386	
-0.407532	
-0.408447	
-0.408264	
-0.409241	
-0.408508	
-0.409729	
-0.409485	
-0.409668	
-0.408752	
-0.408264	
-0.407104	
-0.40863	
-0.403381	
-0.38855	
-0.38623	
-0.38739	
-0.387207	
-0.388367	
-0.394348	
-0.409119	
-0.411377	
-0.411133	
-0.409912	
-0.410583	
-0.409485	
-0.4104	
-0.40979	
-0.410828	
-0.404724	
-0.389954	
-0.386841	
-0.387756	
-0.387329	
-0.387268	
-0.393005	
-0.408264	
-0.409912	
-0.410583	
-0.410217	
-0.410583	
-0.409241	
-0.409607	
-0.408813	
-0.408264	
-0.407776	
-0.407227	
-0.406006	
-0.40741	
-0.407043	
-0.407471	
-0.407471	
-0.40802	
-0.406982	
-0.40741	
-0.407043	
-0.406799	
-0.40686	
-0.407532	
-0.405945	
-0.406982	
-0.407043	
-0.406982	
-0.40802	
-0.408997	
-0.408142	
-0.409485	
-0.40863	
-0.408569	
-0.408508	
-0.408875	
-0.406433	
-0.407837	
-0.407715	
-0.407715	
-0.408264	
-0.40918	
-0.408875	
-0.410156	
-0.4104	
-0.412109	
-0.413879	
-0.416321	
-0.416321	
-0.42041	
-0.423157	
-0.42572	
-0.429077	
-0.431519	
-0.434448	
-0.4375	
-0.440125	
-0.441162	
-0.442383	
-0.444214	
-0.44635	
-0.447876	
-0.449219	
-0.450195	
-0.451233	
-0.451721	
-0.452759	
-0.452942	
-0.453064	
-0.453003	
-0.452881	
-0.45282	
-0.453918	
-0.453857	
-0.453369	
-0.454407	
-0.45575	
-0.455566	
-0.456665	
-0.457642	
-0.460205	
-0.459839	
-0.460815	
-0.461853	
-0.46344	
-0.464417	
-0.465332	
-0.466858	
-0.469177	
-0.469543	
-0.471863	
-0.472656	
-0.473511	
-0.473816	
-0.474243	
-0.472839	
-0.474731	
-0.475098	
-0.475403	
-0.475159	
-0.475037	
-0.474121	
-0.47345	
-0.471802	
-0.470886	
-0.46936	
-0.468811	
-0.465027	
-0.464233	
-0.461609	
-0.459839	
-0.457825	
-0.455444	
-0.453796	
-0.452698	
-0.451538	
-0.450684	
-0.449585	
-0.449707	
-0.449463	
-0.450256	
-0.450073	
-0.450989	
-0.451904	
-0.452454	
-0.453125	
-0.453918	
-0.4552	
-0.455994	
-0.45697	
-0.459534	
-0.461304	
-0.463135	
-0.464294	
-0.466858	
-0.469177	
-0.470886	
-0.473206	
-0.473938	
-0.476746	
-0.47699	
-0.478271	
-0.47876	
-0.480225	
-0.479736	
-0.478821	
-0.47699	
-0.473267	
-0.469055	
-0.465088	
-0.458923	
-0.452698	
-0.44635	
-0.440186	
-0.43042	
-0.423584	
-0.41626	
-0.407837	
-0.401306	
-0.393738	
-0.387146	
-0.380615	
-0.373779	
-0.368896	
-0.362427	
-0.356873	
-0.351929	
-0.349365	
-0.347168	
-0.344116	
-0.344238	
-0.344238	
-0.345093	
-0.347412	
-0.3479	
-0.348083	
-0.349854	
-0.351685	
-0.351746	
-0.354004	
-0.355835	
-0.357483	
-0.360901	
-0.362549	
-0.364075	
-0.366211	
-0.367676	
-0.368469	
-0.370178	
-0.372437	
-0.373718	
-0.375732	
-0.377319	
-0.380188	
-0.382385	
-0.383911	
-0.385376	
-0.386658	
-0.388794	
-0.389526	
-0.390808	
-0.389587	
-0.391724	
-0.392273	
-0.392822	
-0.393921	
-0.39386	
-0.394348	
-0.394836	
-0.394775	
-0.394653	
-0.394897	
-0.396057	
-0.395386	
-0.395569	
-0.395142	
-0.396545	
-0.396362	
-0.395874	
-0.396362	
-0.397034	
-0.397766	
-0.397644	
-0.397522	
-0.397461	
-0.397949	
-0.398376	
-0.398438	
-0.399658	
-0.399963	
-0.400513	
-0.401733	
-0.400208	
-0.4021	
-0.401367	
-0.402039	
-0.39978	
-0.401062	
-0.400696	
-0.400635	
-0.400757	
-0.400208	
-0.400269	
-0.400574	
-0.399902	
-0.399292	
-0.398132	
-0.398804	
-0.397583	
-0.397461	
-0.396545	
-0.396912	
-0.397217	
-0.396118	
-0.395996	
-0.395874	
-0.397339	
-0.395325	
-0.394775	
-0.395447	
-0.395813	
-0.395935	
-0.395813	
-0.397156	
-0.396973	
-0.397522	
-0.398865	
-0.397827	
-0.398621	
-0.398132	
-0.398193	
-0.395935	
-0.397583	
-0.3974	
-0.397522	
-0.3974	
-0.397278	
-0.397095	
-0.397339	
-0.397278	
-0.396973	
-0.396851	
-0.397339	
-0.395386	
-0.396973	
-0.396729	
-0.396912	
-0.397217	
-0.396606	
-0.396729	
-0.396667	
-0.395813	
-0.395813	
-0.395752	
-0.396118	
-0.39386	
-0.395142	
-0.395691	
-0.395813	
-0.396301	
-0.396179	
-0.396179	
-0.39624	
-0.395874	
-0.395447	
-0.395325	
-0.39679	
-0.395935	
-0.396729	
-0.396667	
-0.396729	
-0.397522	
-0.396729	
-0.396973	
-0.397461	
-0.398132	
-0.397583	
-0.397034	
-0.397827	
-0.396606	
-0.397888	
-0.397827	
-0.398071	
-0.398499	
-0.39856	
-0.399109	
-0.398865	
-0.398926	
-0.398987	
-0.398865	
-0.398193	
-0.399475	
-0.399414	
-0.399109	
-0.399658	
-0.400696	
-0.400146	
-0.401123	
-0.401062	
-0.401062	
-0.401855	
-0.40155	
-0.401062	
-0.401611	
-0.401917	
-0.40155	
-0.403015	
-0.40271	
-0.402649	
-0.403564	
-0.403442	
-0.403748	
-0.403503	
-0.403076	
-0.403137	
-0.404053	
-0.403992	
-0.403748	
-0.404175	
-0.404114	
-0.403748	
-0.403809	
-0.404358	
-0.403381	
-0.403992	
-0.402893	
-0.402405	
-0.403992	
-0.404114	
-0.403748	
-0.404724	
-0.404907	
-0.405457	
-0.405518	
-0.405029	
-0.405396	
-0.405579	
-0.405823	
-0.404419	
-0.405701	
-0.406006	
-0.406372	
-0.405884	
-0.406494	
-0.406738	
-0.407227	
-0.407104	
-0.406372	
-0.406372	
-0.405579	
-0.404602	
-0.405945	
-0.405579	
-0.405762	
-0.406311	
-0.405823	
-0.406311	
-0.406006	
-0.40564	
-0.404663	
-0.40448	
-0.404663	
-0.403198	
-0.404297	
-0.40387	
-0.403809	
-0.403931	
-0.404114	
-0.403748	
-0.404602	
-0.405701	
-0.402954	
-0.404114	
-0.403259	
-0.404297	
-0.404419	
-0.404114	
-0.404846	
-0.404968	
-0.405762	
-0.405884	
-0.40686	
-0.407715	
-0.405579	
-0.406677	
-0.405762	
-0.405945	
-0.40625	
-0.405334	
-0.40625	
-0.406189	
-0.406372	
-0.406128	
-0.406494	
-0.40686	
-0.405273	
-0.40564	
-0.404785	
-0.404724	
-0.40448	
-0.404358	
-0.404297	
-0.404541	
-0.405334	
-0.404297	
-0.404785	
-0.40448	
-0.403442	
-0.403503	
-0.402161	
-0.402222	
-0.401611	
-0.401794	
-0.401672	
-0.401733	
-0.401855	
-0.401672	
-0.401855	
-0.402039	
-0.401428	
-0.400391	
-0.400024	
-0.401733	
-0.400818	
-0.402466	
-0.402527	
-0.40271	
-0.40332	
-0.403442	
-0.403687	
-0.402466	
-0.40332	
-0.402222	
-0.401978	
-0.404236	
-0.402954	
-0.403992	
-0.404419	
-0.404358	
-0.404907	
-0.405334	
-0.405945	
-0.405579	
-0.406433	
-0.406372	
-0.406067	
-0.407043	
-0.407288	
-0.407654	
-0.40802	
-0.408508	
-0.408813	
-0.410156	
-0.409973	
-0.408813	
-0.410461	
-0.409973	
-0.409485	
-0.410583	
-0.411133	
-0.411194	
-0.411133	
-0.411499	
-0.411804	
-0.412659	
-0.412659	
-0.41156	
-0.412231	
-0.411926	
-0.411377	
-0.412048	
-0.411743	
-0.411743	
-0.411316	
-0.411743	
-0.41156	
-0.411072	
-0.410889	
-0.409485	
-0.409912	
-0.409668	
-0.409363	
-0.409851	
-0.410156	
-0.409851	
-0.410461	
-0.410583	
-0.410583	
-0.410156	
-0.410889	
-0.409851	
-0.40918	
-0.40918	
-0.408752	
-0.409241	
-0.40918	
-0.409363	
-0.409485	
-0.409241	
-0.410217	
-0.409851	
-0.40979	
-0.408569	
-0.40979	
-0.408508	
-0.408386	
-0.408813	
-0.409363	
-0.409729	
-0.409912	
-0.410583	
-0.410828	
-0.410339	
-0.410706	
-0.410156	
-0.409729	
-0.409851	
-0.409302	
-0.40979	
-0.409973	
-0.409973	
-0.409546	
-0.409851	
-0.409729	
-0.408386	
-0.40802	
-0.406799	
-0.407776	
-0.406555	
-0.406006	
-0.406006	
-0.407288	
-0.406921	
-0.406982	
-0.407349	
-0.406555	
-0.406616	
-0.406189	
-0.405029	
-0.406128	
-0.405212	
-0.405151	
-0.404907	
-0.40625	
-0.405945	
-0.405945	
-0.406494	
-0.405945	
-0.40625	
-0.406799	
-0.404724	
-0.405518	
-0.404846	
-0.405823	
-0.406128	
-0.406494	
-0.406128	
-0.406433	
-0.407166	
-0.405823	
-0.406494	
-0.406616	
-0.40564	
-0.405884	
-0.404785	
-0.405518	
-0.40625	
-0.406555	
-0.40686	
-0.407166	
-0.408203	
-0.407654	
-0.407959	
-0.408875	
-0.407288	
-0.40863	
-0.406982	
-0.408203	
-0.408936	
-0.409119	
-0.409119	
-0.409729	
-0.411133	
-0.410583	
-0.411499	
-0.412415	
-0.41217	
-0.411804	
-0.411621	
-0.412048	
-0.412598	
-0.412354	
-0.412598	
-0.413147	
-0.414185	
-0.413391	
-0.413818	
-0.414612	
-0.412781	
-0.413574	
-0.412598	
-0.41333	
-0.413208	
-0.41333	
-0.413818	
-0.413818	
-0.415161	
-0.413208	
-0.413513	
-0.414246	
-0.414307	
-0.413086	
-0.413025	
-0.412964	
-0.413574	
-0.413635	
-0.413452	
-0.413208	
-0.41449	
-0.41272	
-0.412781	
-0.413391	
-0.412048	
-0.412476	
-0.411499	
-0.412537	
-0.41217	
-0.412292	
-0.412109	
-0.412109	
-0.412903	
-0.411438	
-0.41156	
-0.411682	
-0.411926	
-0.411316	
-0.410156	
-0.409912	
-0.410339	
-0.410461	
-0.411011	
-0.411194	
-0.411804	
-0.410706	
-0.410706	
-0.410889	
-0.410034	
-0.409607	
-0.408691	
-0.408997	
-0.408386	
-0.409424	
-0.409851	
-0.410339	
-0.410339	
-0.409424	
-0.410339	
-0.410278	
-0.411133	
-0.409546	
-0.409485	
-0.409058	
-0.409241	
-0.409668	
-0.410034	
-0.410156	
-0.409851	
-0.409241	
-0.409241	
-0.409607	
-0.409729	
-0.408752	
-0.407959	
-0.40863	
-0.407776	
-0.408936	
-0.408508	
-0.40863	
-0.408691	
-0.407959	
-0.408325	
-0.40863	
-0.408752	
-0.408447	
-0.407654	
-0.408203	
-0.408142	
-0.409485	
-0.40979	
-0.410889	
-0.410156	
-0.410156	
-0.411011	
-0.410217	
-0.410889	
-0.410583	
-0.410156	
-0.41095	
-0.41095	
-0.411682	
-0.411926	
-0.41333	
-0.412109	
-0.412048	
-0.412354	
-0.411621	
-0.412231	
-0.411804	
-0.411072	
-0.410645	
-0.410767	
-0.411682	
-0.411438	
-0.411682	
-0.410828	
-0.410706	
-0.410339	
-0.410645	
-0.410706	
-0.410828	
-0.409058	
-0.409668	
-0.410156	
-0.410461	
-0.410828	
-0.412415	
-0.411255	
-0.411011	
-0.41156	
-0.411621	
-0.411621	
-0.411926	
-0.411072	
-0.411804	
-0.411987	
-0.412598	
-0.413025	
-0.413879	
-0.413452	
-0.413208	
-0.413269	
-0.4151	
-0.414856	
-0.415894	
-0.413879	
-0.415649	
-0.415344	
-0.415527	
-0.415894	
-0.41748	
-0.416321	
-0.415894	
-0.416138	
-0.415588	
-0.415833	
-0.416016	
-0.414612	
-0.415344	
-0.415344	
-0.415405	
-0.415466	
-0.415833	
-0.415039	
-0.414917	
-0.414063	
-0.415283	
-0.414673	
-0.415283	
-0.413513	
-0.414063	
-0.413879	
-0.413757	
-0.414124	
-0.414917	
-0.413269	
-0.412476	
-0.412292	
-0.411133	
-0.411255	
-0.411804	
-0.409912	
-0.410583	
-0.409912	
-0.410034	
-0.409729	
-0.410522	
-0.409302	
-0.408997	
-0.408386	
-0.408875	
-0.407898	
-0.408752	
-0.407288	
-0.407471	
-0.407227	
-0.407654	
-0.407471	
-0.408264	
-0.406921	
-0.40741	
-0.407166	
-0.40686	
-0.407043	
-0.408203	
-0.406799	
-0.407349	
-0.407654	
-0.407043	
-0.407776	
-0.409119	
-0.408264	
-0.408325	
-0.408264	
-0.409241	
-0.408813	
-0.409058	
-0.408264	
-0.40863	
-0.408691	
-0.408936	
-0.409119	
-0.409424	
-0.409058	
-0.409302	
-0.409546	
-0.409851	
-0.40979	
-0.410461	
-0.40863	
-0.409607	
-0.409424	
-0.409302	
-0.409912	
-0.410706	
-0.410034	
-0.409851	
-0.409424	
-0.410583	
-0.410339	
-0.410645	
-0.409363	
-0.409851	
-0.410034	
-0.408813	
-0.409668	
-0.409851	
-0.409729	
-0.409058	
-0.409119	
-0.409851	
-0.409424	
-0.410339	
-0.408752	
-0.409851	
-0.410461	
-0.40918	
-0.410828	
-0.411926	
-0.411011	
-0.411011	
-0.411438	
-0.41156	
-0.411804	
-0.412415	
-0.412292	
-0.412476	
-0.412964	
-0.411987	
-0.413208	
-0.41394	
-0.413452	
-0.413147	
-0.413757	
-0.414124	
-0.413391	
-0.413879	
-0.412903	
-0.413696	
-0.413696	
-0.413391	
-0.413879	
-0.414978	
-0.414307	
-0.414124	
-0.41394	
-0.414917	
-0.414001	
-0.413757	
-0.413208	
-0.413513	
-0.413818	
-0.413147	
-0.413818	
-0.414856	
-0.414124	
-0.413879	
-0.414185	
-0.41449	
-0.413391	
-0.413635	
-0.413025	
-0.412964	
-0.412781	
-0.412354	
-0.412476	
-0.412903	
-0.412292	
-0.411804	
-0.411438	
-0.411133	
-0.411194	
-0.411255	
-0.411011	
-0.409851	
-0.410706	
-0.410339	
-0.410156	
-0.409912	
-0.409119	
-0.408325	
-0.408508	
-0.406921	
-0.407898	
-0.407776	
-0.407227	
-0.406311	
-0.407288	
-0.407104	
-0.407227	
-0.407471	
-0.406799	
-0.406921	
-0.406616	
-0.405212	
-0.406677	
-0.406921	
-0.407166	
-0.406311	
-0.406616	
-0.406311	
-0.406799	
-0.407227	
-0.406921	
-0.406738	
-0.406738	
-0.405701	
-0.407288	
-0.407166	
-0.407043	
-0.406982	
-0.407349	
-0.40686	
-0.407349	
-0.407959	
-0.407349	
-0.407532	
-0.40802	
-0.406128	
-0.40802	
-0.407837	
-0.408752	
-0.407654	
-0.408386	
-0.408325	
-0.408997	
-0.409973	
-0.409607	
-0.409546	
-0.409729	
-0.408691	
-0.410278	
-0.410034	
-0.410522	
-0.409851	
-0.40979	
-0.409485	
-0.410095	
-0.411255	
-0.410767	
-0.411255	
-0.411011	
-0.409729	
-0.412048	
-0.411255	
-0.411438	
-0.410278	
-0.410522	
-0.410645	
-0.410339	
-0.410522	
-0.410645	
-0.410339	
-0.410583	
-0.410278	
-0.411377	
-0.410828	
-0.411438	
-0.410461	
-0.41095	
-0.410706	
-0.410767	
-0.411621	
-0.411682	
-0.41156	
-0.411865	
-0.411194	
-0.412354	
-0.411621	
-0.412659	
-0.411926	
-0.412354	
-0.411865	
-0.412537	
-0.412537	
-0.412903	
-0.411926	
-0.411682	
-0.412048	
-0.411499	
-0.411377	
-0.411865	
-0.410706	
-0.4104	
-0.410095	
-0.409546	
-0.410217	
-0.411011	
-0.409668	
-0.40918	
-0.409546	
-0.409851	
-0.408875	
-0.409729	
-0.407837	
-0.408508	
-0.40802	
-0.40863	
-0.408875	
-0.410095	
-0.408386	
-0.408569	
-0.409363	
-0.409607	
-0.408813	
-0.409363	
-0.40918	
-0.409424	
-0.40979	
-0.409424	
-0.410156	
-0.411499	
-0.409851	
-0.410767	
-0.410583	
-0.410461	
-0.409973	
-0.410339	
-0.408752	
-0.408997	
-0.409119	
-0.409485	
-0.409363	
-0.410889	
-0.408875	
-0.408447	
-0.40918	
-0.408752	
-0.407837	
-0.407898	
-0.40741	
-0.406555	
-0.406616	
-0.405701	
-0.406738	
-0.407837	
-0.40625	
-0.405823	
-0.405823	
-0.405396	
-0.404846	
-0.404663	
-0.403259	
-0.403015	
-0.40387	
-0.403076	
-0.404053	
-0.405884	
-0.404724	
-0.404297	
-0.405029	
-0.403625	
-0.404419	
-0.404724	
-0.404602	
-0.404419	
-0.404968	
-0.404907	
-0.406128	
-0.406982	
-0.40564	
-0.406189	
-0.406189	
-0.405884	
-0.406372	
-0.406067	
-0.405334	
-0.405701	
-0.406494	
-0.406067	
-0.407959	
-0.409241	
-0.407776	
-0.40863	
-0.409119	
-0.408081	
-0.410522	
-0.410156	
-0.409241	
-0.410278	
-0.410217	
-0.409668	
-0.411133	
-0.41272	
-0.41156	
-0.412354	
-0.412598	
-0.41217	
-0.413635	
-0.412842	
-0.412231	
-0.41272	
-0.412964	
-0.411682	
-0.413452	
-0.414429	
-0.413086	
-0.41333	
-0.413391	
-0.411682	
-0.413818	
-0.412842	
-0.411987	
-0.412048	
-0.411804	
-0.410278	
-0.41156	
-0.412842	
-0.411255	
-0.411194	
-0.41095	
-0.4104	
-0.411743	
-0.4104	
-0.410095	
-0.410645	
-0.411072	
-0.409729	
-0.411072	
-0.411438	
-0.4104	
-0.410156	
-0.410278	
-0.409363	
-0.410156	
-0.409851	
-0.408997	
-0.409607	
-0.409241	
-0.409363	
-0.409851	
-0.4104	
-0.410217	
-0.410034	
-0.409729	
-0.410156	
-0.410645	
-0.410461	
-0.410461	
-0.410217	
-0.410461	
-0.409851	
-0.410889	
-0.411072	
-0.41095	
-0.410278	
-0.410767	
-0.410034	
-0.409851	
-0.409607	
-0.408386	
-0.409119	
-0.408081	
-0.408142	
-0.408264	
-0.408997	
-0.408264	
-0.407227	
-0.406799	
-0.407837	
-0.406677	
-0.406677	
-0.406372	
-0.406494	
-0.405151	
-0.405273	
-0.406189	
-0.407043	
-0.406616	
-0.405823	
-0.405945	
-0.405334	
-0.405945	
-0.406189	
-0.404785	
-0.405579	
-0.405151	
-0.404968	
-0.405884	
-0.406372	
-0.406921	
-0.405945	
-0.406067	
-0.405212	
-0.405701	
-0.405945	
-0.405945	
-0.405579	
-0.404907	
-0.404602	
-0.405334	
-0.405884	
-0.406372	
-0.405518	
-0.406067	
-0.404907	
-0.40625	
-0.407043	
-0.406372	
-0.406677	
-0.40686	
-0.406799	
-0.407532	
-0.407959	
-0.408569	
-0.407837	
-0.407959	
-0.408386	
-0.408386	
-0.409973	
-0.40979	
-0.409668	
-0.410034	
-0.410645	
-0.411316	
-0.411377	
-0.412354	
-0.411682	
-0.411865	
-0.412292	
-0.411255	
-0.412598	
-0.412537	
-0.411804	
-0.411621	
-0.411926	
-0.41217	
-0.412476	
-0.413696	
-0.411865	
-0.412109	
-0.412537	
-0.411865	
-0.413025	
-0.412781	
-0.411682	
-0.411377	
-0.411621	
-0.411987	
-0.411743	
-0.412964	
-0.411438	
-0.411926	
-0.412476	
-0.411499	
-0.412231	
-0.41217	
-0.411682	
-0.411255	
-0.410156	
-0.410217	
-0.411072	
-0.412415	
-0.410767	
-0.410889	
-0.4104	
-0.410095	
-0.410645	
-0.410278	
-0.408875	
-0.409119	
-0.407837	
-0.408569	
-0.408936	
-0.410217	
-0.408875	
-0.408691	
-0.409119	
-0.407471	
-0.409363	
-0.408752	
-0.408386	
-0.408386	
-0.406799	
-0.406311	
-0.407471	
-0.40863	
-0.407349	
-0.407593	
-0.407837	
-0.406799	
-0.408142	
-0.408081	
-0.406921	
-0.407471	
-0.40625	
-0.406494	
-0.40802	
-0.408142	
-0.407166	
-0.40741	
-0.408081	
-0.406616	
-0.407288	
-0.407532	
-0.40686	
-0.406799	
-0.405701	
-0.406128	
-0.407104	
-0.407349	
-0.406677	
-0.406067	
-0.406067	
-0.405579	
-0.406006	
-0.405762	
-0.404968	
-0.405518	
-0.405273	
-0.405518	
-0.405945	
-0.40686	
-0.407349	
-0.406372	
-0.406555	
-0.406006	
-0.407654	
-0.407837	
-0.407837	
-0.408264	
-0.407654	
-0.408264	
-0.40863	
-0.409607	
-0.40918	
-0.408997	
-0.409363	
-0.408813	
-0.409424	
-0.409851	
-0.409851	
-0.409729	
-0.40918	
-0.409485	
-0.409363	
-0.409546	
-0.409546	
-0.409119	
-0.409363	
-0.408264	
-0.408203	
-0.408447	
-0.408508	
-0.408081	
-0.407349	
-0.407104	
-0.407593	
-0.408081	
-0.408691	
-0.407593	
-0.407715	
-0.407471	
-0.408386	
-0.408936	
-0.408325	
-0.408203	
-0.408691	
-0.40863	
-0.409363	
-0.410034	
-0.411072	
-0.409668	
-0.409973	
-0.410095	
-0.410156	
-0.41095	
-0.411133	
-0.410583	
-0.411011	
-0.411438	
-0.411133	
-0.412598	
-0.413391	
-0.412598	
-0.412964	
-0.413025	
-0.412903	
-0.413818	
-0.41333	
-0.412964	
-0.412415	
-0.413025	
-0.411865	
-0.412842	
-0.414063	
-0.412476	
-0.41217	
-0.412537	
-0.412109	
-0.412781	
-0.411926	
-0.410706	
-0.411377	
-0.411377	
-0.410583	
-0.411743	
-0.412231	
-0.410828	
-0.410583	
-0.410583	
-0.409424	
-0.411072	
-0.410217	
-0.408081	
-0.408569	
-0.407471	
-0.407532	
-0.407776	
-0.408386	
-0.407471	
-0.406738	
-0.406494	
-0.405762	
-0.406677	
-0.406128	
-0.405518	
-0.405029	
-0.404236	
-0.404114	
-0.404236	
-0.405396	
-0.404236	
-0.404175	
-0.40387	
-0.402771	
-0.404236	
-0.403992	
-0.403381	
-0.404053	
-0.403076	
-0.403625	
-0.40448	
-0.404846	
-0.404419	
-0.404419	
-0.404968	
-0.404907	
-0.405457	
-0.405334	
-0.405579	
-0.405396	
-0.404358	
-0.40509	
-0.405762	
-0.406738	
-0.405823	
-0.405334	
-0.40564	
-0.404663	
-0.405762	
-0.406189	
-0.406677	
-0.40625	
-0.406006	
-0.40625	
-0.406616	
-0.407288	
-0.407471	
-0.406738	
-0.406616	
-0.406006	
-0.406982	
-0.40741	
-0.407593	
-0.406677	
-0.406372	
-0.406555	
-0.406738	
-0.406982	
-0.408142	
-0.406494	
-0.406311	
-0.406311	
-0.406128	
-0.406738	
-0.406616	
-0.406006	
-0.406433	
-0.40625	
-0.406433	
-0.406494	
-0.407654	
-0.407043	
-0.407166	
-0.407349	
-0.408203	
-0.408691	
-0.408997	
-0.407898	
-0.408386	
-0.408875	
-0.409241	
-0.409363	
-0.410156	
-0.409729	
-0.409851	
-0.410583	
-0.408997	
-0.410706	
-0.410339	
-0.410278	
-0.409912	
-0.410339	
-0.409607	
-0.410828	
-0.411743	
-0.410645	
-0.41095	
-0.41095	
-0.410461	
-0.411621	
-0.410767	
-0.409485	
-0.410217	
-0.410339	
-0.409546	
-0.4104	
-0.411316	
-0.4104	
-0.411133	
-0.411438	
-0.409668	
-0.411438	
-0.410583	
-0.410706	
-0.410583	
-0.4104	
-0.409302	
-0.410034	
-0.410645	
-0.409729	
-0.409119	
-0.408997	
-0.407715	
-0.409302	
-0.408264	
-0.407043	
-0.407959	
-0.407715	
-0.406555	
-0.407776	
-0.407776	
-0.408508	
-0.406799	
-0.406616	
-0.404846	
-0.406067	
-0.405457	
-0.404968	
-0.404419	
-0.404358	
-0.404663	
-0.40448	
-0.404724	
-0.404419	
-0.403931	
-0.404053	
-0.402893	
-0.404358	
-0.403809	
-0.403015	
-0.403137	
-0.403137	
-0.403625	
-0.403931	
-0.404358	
-0.405457	
-0.403748	
-0.404114	
-0.403687	
-0.404053	
-0.403809	
-0.403381	
-0.403992	
-0.402771	
-0.403931	
-0.403992	
-0.404419	
-0.405823	
-0.404846	
-0.40509	
-0.404968	
-0.404541	
-0.404602	
-0.40448	
-0.404846	
-0.404663	
-0.404846	
-0.405701	
-0.405701	
-0.406982	
-0.406311	
-0.406555	
-0.405945	
-0.405212	
-0.407104	
-0.406067	
-0.406677	
-0.406189	
-0.407288	
-0.406738	
-0.407104	
-0.408081	
-0.407166	
-0.407898	
-0.408264	
-0.406372	
-0.408264	
-0.408875	
-0.408203	
-0.406982	
-0.40741	
-0.407349	
-0.407471	
-0.408081	
-0.407776	
-0.40802	
-0.407471	
-0.405762	
-0.407837	
-0.407959	
-0.407593	
-0.407288	
-0.407776	
-0.406677	
-0.408264	
-0.408813	
-0.408936	
-0.408936	
-0.409119	
-0.407654	
-0.409119	
-0.409119	
-0.408875	
-0.408875	
-0.409241	
-0.408203	
-0.409729	
-0.410217	
-0.410156	
-0.409912	
-0.409363	
-0.408813	
-0.410034	
-0.408875	
-0.408386	
-0.408203	
-0.408325	
-0.406921	
-0.40802	
-0.408081	
-0.408752	
-0.40741	
-0.407898	
-0.406738	
-0.407288	
-0.406555	
-0.406189	
-0.406006	
-0.405762	
-0.404724	
-0.405701	
-0.405945	
-0.407532	
-0.40625	
-0.406738	
-0.405884	
-0.407104	
-0.406433	
-0.406128	
-0.406067	
-0.40625	
-0.40564	
-0.407349	
-0.407715	
-0.409119	
-0.407104	
-0.408081	
-0.407349	
-0.407654	
-0.408264	
-0.406494	
-0.407288	
-0.40741	
-0.406555	
-0.407349	
-0.406982	
-0.407959	
-0.406677	
-0.406494	
-0.40625	
-0.405212	
-0.405823	
-0.404785	
-0.405273	
-0.404175	
-0.404602	
-0.404785	
-0.404846	
-0.404724	
-0.403992	
	
