E:\DOCUMENTS AND SETTINGS\JPOTAS\MEUS DOCUMENTOS\UFRJ\RSCI-BM 12 WK SERIES\070730-RSCI-BM-09\RSCI-BM-09-LEMG\070730-RSCI-BM-09-LEMG-0006.ACQ
0.025000 msec/sample
1 channel
Analog input
Volts
CH1	
2000	
-0.4021	
-0.403015	
-0.403992	
-0.402222	
-0.404419	
-0.404358	
-0.405762	
-0.405701	
-0.406128	
-0.406616	
-0.406372	
-0.40686	
-0.40741	
-0.407898	
-0.408508	
-0.406067	
-0.407471	
-0.407166	
-0.408203	
-0.407654	
-0.407776	
-0.407471	
-0.408081	
-0.408081	
-0.40802	
-0.408447	
-0.410889	
-0.407593	
-0.407349	
-0.407349	
-0.407959	
-0.407288	
-0.407654	
-0.407043	
-0.407043	
-0.407166	
-0.406921	
-0.406982	
-0.40863	
-0.406006	
-0.405457	
-0.404602	
-0.405396	
-0.405518	
-0.405334	
-0.405151	
-0.404602	
-0.404968	
-0.405212	
-0.405762	
-0.406738	
-0.40448	
-0.404419	
-0.404053	
-0.403259	
-0.404053	
-0.403931	
-0.403259	
-0.403015	
-0.403809	
-0.404053	
-0.403687	
-0.404663	
-0.403503	
-0.404114	
-0.40387	
-0.403564	
-0.404785	
-0.40448	
-0.404602	
-0.403442	
-0.405212	
-0.406189	
-0.405457	
-0.406982	
-0.405518	
-0.405396	
-0.405457	
-0.404602	
-0.406311	
-0.405884	
-0.40625	
-0.405396	
-0.406494	
-0.406799	
-0.406067	
-0.407654	
-0.406616	
-0.40625	
-0.406311	
-0.405212	
-0.406555	
-0.406738	
-0.406555	
-0.406433	
-0.406799	
-0.407043	
-0.406372	
-0.406738	
-0.406372	
-0.405212	
-0.405457	
-0.404358	
-0.40625	
-0.405518	
-0.404907	
-0.404114	
-0.404968	
-0.404907	
-0.403931	
-0.405518	
-0.405334	
-0.404724	
-0.404419	
-0.403687	
-0.405762	
-0.40509	
-0.404602	
-0.404724	
-0.404846	
-0.405334	
-0.405029	
-0.406006	
-0.40509	
-0.403748	
-0.403931	
-0.403748	
-0.405151	
-0.403992	
-0.403931	
-0.403687	
-0.403381	
-0.404053	
-0.403809	
-0.404663	
-0.404053	
-0.402283	
-0.402466	
-0.402222	
-0.403748	
-0.402832	
-0.402771	
-0.402344	
-0.402527	
-0.402466	
-0.40332	
-0.403381	
-0.404053	
-0.40271	
-0.403015	
-0.403137	
-0.404419	
-0.403809	
-0.404114	
-0.403992	
-0.404724	
-0.404968	
-0.405579	
-0.40625	
-0.407043	
-0.405884	
-0.405823	
-0.40625	
-0.407043	
-0.407288	
-0.407104	
-0.407104	
-0.408325	
-0.407715	
-0.408508	
-0.408997	
-0.408936	
-0.407288	
-0.407715	
-0.407288	
-0.408142	
-0.407959	
-0.407593	
-0.407104	
-0.406799	
-0.407288	
-0.407532	
-0.407349	
-0.407654	
-0.405457	
-0.403931	
-0.404236	
-0.404114	
-0.403809	
-0.402832	
-0.402222	
-0.402588	
-0.402405	
-0.402222	
-0.402466	
-0.402893	
-0.40155	
-0.390137	
-0.379944	
-0.379578	
-0.380005	
-0.380432	
-0.380859	
-0.39325	
-0.402771	
-0.404602	
-0.405273	
-0.406006	
-0.403259	
-0.402161	
-0.403076	
-0.403137	
-0.402954	
-0.403503	
-0.403259	
-0.404053	
-0.40387	
-0.404297	
-0.404541	
-0.405396	
-0.403809	
-0.392273	
-0.382263	
-0.382202	
-0.382935	
-0.383484	
-0.384033	
-0.396545	
-0.406677	
-0.40863	
-0.409546	
-0.409668	
-0.408081	
-0.406616	
-0.40802	
-0.407959	
-0.407898	
-0.408142	
-0.407288	
-0.408081	
-0.408142	
-0.408447	
-0.408386	
-0.409363	
-0.40802	
-0.407104	
-0.407715	
-0.408997	
-0.408447	
-0.408264	
-0.40741	
-0.408142	
-0.407532	
-0.407166	
-0.407166	
-0.407166	
-0.405823	
-0.404724	
-0.405945	
-0.406677	
-0.407471	
-0.40863	
-0.409424	
-0.412415	
-0.415771	
-0.419739	
-0.424438	
-0.429077	
-0.432922	
-0.437805	
-0.442566	
-0.448059	
-0.45282	
-0.456726	
-0.458252	
-0.459473	
-0.458435	
-0.457153	
-0.455811	
-0.452087	
-0.448914	
-0.445313	
-0.44281	
-0.440491	
-0.438477	
-0.437073	
-0.436584	
-0.435913	
-0.437439	
-0.437866	
-0.440002	
-0.440491	
-0.441284	
-0.442932	
-0.445007	
-0.448547	
-0.452026	
-0.455078	
-0.458252	
-0.461304	
-0.463562	
-0.465393	
-0.466919	
-0.466248	
-0.465454	
-0.466125	
-0.466187	
-0.464355	
-0.463257	
-0.461914	
-0.460999	
-0.459961	
-0.458984	
-0.457581	
-0.456055	
-0.45282	
-0.451416	
-0.449402	
-0.447754	
-0.445251	
-0.442688	
-0.439819	
-0.438354	
-0.436035	
-0.433899	
-0.431519	
-0.429749	
-0.42627	
-0.424011	
-0.421448	
-0.420471	
-0.418579	
-0.417114	
-0.41571	
-0.414856	
-0.414612	
-0.414917	
-0.414917	
-0.41394	
-0.413147	
-0.413452	
-0.412903	
-0.414063	
-0.414795	
-0.415283	
-0.414856	
-0.416992	
-0.41748	
-0.417969	
-0.417847	
-0.416809	
-0.415222	
-0.413818	
-0.41095	
-0.409607	
-0.40686	
-0.40387	
-0.399658	
-0.396545	
-0.3927	
-0.387512	
-0.383972	
-0.378052	
-0.371338	
-0.365173	
-0.358337	
-0.351624	
-0.344238	
-0.33667	
-0.327698	
-0.319397	
-0.310425	
-0.301392	
-0.293457	
-0.283997	
-0.274475	
-0.266663	
-0.258606	
-0.252747	
-0.246399	
-0.241638	
-0.238525	
-0.236023	
-0.235168	
-0.23468	
-0.236816	
-0.236084	
-0.237732	
-0.240051	
-0.244385	
-0.247681	
-0.250732	
-0.253479	
-0.256958	
-0.26062	
-0.263794	
-0.267334	
-0.269775	
-0.273499	
-0.276672	
-0.280457	
-0.285095	
-0.289551	
-0.293579	
-0.298157	
-0.302551	
-0.30658	
-0.31134	
-0.314392	
-0.317871	
-0.320801	
-0.32489	
-0.328125	
-0.330994	
-0.33252	
-0.336121	
-0.339111	
-0.340698	
-0.342773	
-0.344238	
-0.344788	
-0.346619	
-0.347351	
-0.348877	
-0.349915	
-0.350037	
-0.351868	
-0.353271	
-0.354736	
-0.355774	
-0.356506	
-0.356567	
-0.356995	
-0.359375	
-0.359192	
-0.35968	
-0.360474	
-0.36145	
-0.362549	
-0.364136	
-0.364624	
-0.364685	
-0.364075	
-0.363647	
-0.363831	
-0.365479	
-0.364868	
-0.364868	
-0.364136	
-0.364624	
-0.365051	
-0.365723	
-0.365295	
-0.363464	
-0.361755	
-0.361328	
-0.363403	
-0.361877	
-0.361206	
-0.361267	
-0.361206	
-0.360413	
-0.361267	
-0.360352	
-0.358643	
-0.357544	
-0.355042	
-0.356689	
-0.355957	
-0.355774	
-0.354614	
-0.353271	
-0.354187	
-0.35437	
-0.355591	
-0.352783	
-0.352905	
-0.351685	
-0.352966	
-0.353516	
-0.353516	
-0.352844	
-0.352844	
-0.352905	
-0.353516	
-0.354858	
-0.354614	
-0.354126	
-0.35321	
-0.353943	
-0.355957	
-0.356323	
-0.356079	
-0.356262	
-0.356506	
-0.357117	
-0.35791	
-0.360046	
-0.358459	
-0.35791	
-0.358948	
-0.359985	
-0.361023	
-0.361572	
-0.361877	
-0.362061	
-0.361633	
-0.364258	
-0.364807	
-0.365417	
-0.365112	
-0.36615	
-0.364014	
-0.367859	
-0.368896	
-0.368958	
-0.369873	
-0.370789	
-0.372375	
-0.372925	
-0.375732	
-0.374573	
-0.374207	
-0.374939	
-0.376953	
-0.378235	
-0.377869	
-0.377991	
-0.378357	
-0.379028	
-0.379578	
-0.381287	
-0.380066	
-0.379272	
-0.380249	
-0.380249	
-0.382202	
-0.381409	
-0.381653	
-0.381897	
-0.382324	
-0.38269	
-0.383301	
-0.382568	
-0.381409	
-0.382202	
-0.3797	
-0.383789	
-0.382813	
-0.383057	
-0.382385	
-0.383179	
-0.383301	
-0.383484	
-0.384277	
-0.382202	
-0.38269	
-0.382141	
-0.383362	
-0.382751	
-0.382996	
-0.382813	
-0.382568	
-0.383179	
-0.382202	
-0.38324	
-0.382141	
-0.381775	
-0.381653	
-0.380615	
-0.383057	
-0.382324	
-0.382385	
-0.382019	
-0.383362	
-0.383911	
-0.383606	
-0.384949	
-0.383057	
-0.383301	
-0.383118	
-0.384094	
-0.384399	
-0.384705	
-0.384521	
-0.385376	
-0.386475	
-0.386353	
-0.38739	
-0.387024	
-0.386475	
-0.386597	
-0.385864	
-0.386475	
-0.386841	
-0.386841	
-0.386902	
-0.387756	
-0.387268	
-0.387634	
-0.388428	
-0.385803	
-0.386414	
-0.385986	
-0.386719	
-0.386475	
-0.386902	
-0.385925	
-0.387329	
-0.388367	
-0.387634	
-0.388367	
-0.387451	
-0.387878	
-0.387512	
-0.387573	
-0.388428	
-0.388428	
-0.388184	
-0.388977	
-0.389282	
-0.389771	
-0.390381	
-0.390198	
-0.388672	
-0.389832	
-0.38855	
-0.39093	
-0.390808	
-0.39093	
-0.39032	
-0.391418	
-0.391418	
-0.391541	
-0.391724	
-0.389709	
-0.390991	
-0.389343	
-0.391052	
-0.390869	
-0.390991	
-0.389709	
-0.391174	
-0.390869	
-0.39093	
-0.391479	
-0.389221	
-0.390381	
-0.389404	
-0.389954	
-0.390625	
-0.390564	
-0.389648	
-0.391174	
-0.391724	
-0.391418	
-0.391602	
-0.390747	
-0.390442	
-0.390808	
-0.389954	
-0.391296	
-0.391479	
-0.390808	
-0.391479	
-0.392456	
-0.392822	
-0.393066	
-0.394226	
-0.392883	
-0.393799	
-0.395081	
-0.395935	
-0.396545	
-0.39679	
-0.396912	
-0.397766	
-0.398499	
-0.399048	
-0.399292	
-0.39801	
-0.398804	
-0.39917	
-0.39801	
-0.399597	
-0.400024	
-0.399109	
-0.400146	
-0.401062	
-0.400208	
-0.40094	
-0.401062	
-0.399902	
-0.399353	
-0.400269	
-0.40033	
-0.400391	
-0.400391	
-0.400574	
-0.400635	
-0.400269	
-0.401489	
-0.401672	
-0.398743	
-0.399109	
-0.399597	
-0.399109	
-0.399353	
-0.398987	
-0.398987	
-0.399292	
-0.399902	
-0.400208	
-0.399353	
-0.39917	
-0.398132	
-0.398132	
-0.398132	
-0.398743	
-0.398376	
-0.398071	
-0.398254	
-0.398254	
-0.398254	
-0.398193	
-0.398254	
-0.39679	
-0.397644	
-0.397827	
-0.397339	
-0.398499	
-0.398376	
-0.397583	
-0.398926	
-0.400085	
-0.399292	
-0.399231	
-0.400085	
-0.399719	
-0.399841	
-0.39978	
-0.400208	
-0.400574	
-0.400208	
-0.400574	
-0.400818	
-0.401611	
-0.40094	
-0.401611	
-0.40155	
-0.40094	
-0.401367	
-0.401367	
-0.401489	
-0.401184	
-0.401001	
-0.401611	
-0.402405	
-0.402039	
-0.401978	
-0.402222	
-0.401611	
-0.401672	
-0.401855	
-0.401001	
-0.401367	
-0.401184	
-0.401245	
-0.401855	
-0.401917	
-0.40155	
-0.401245	
-0.400757	
-0.39978	
-0.400635	
-0.400085	
-0.400391	
-0.400391	
-0.401001	
-0.400757	
-0.400757	
-0.401184	
-0.401306	
-0.400574	
-0.400391	
-0.401184	
-0.399963	
-0.399658	
-0.400574	
-0.39978	
-0.400879	
-0.401245	
-0.401306	
-0.400391	
-0.400696	
-0.399902	
-0.400085	
-0.400635	
-0.399719	
-0.400085	
-0.400085	
-0.400269	
-0.400085	
-0.401062	
-0.399719	
-0.399841	
-0.399109	
-0.398499	
-0.399231	
-0.399292	
-0.398193	
-0.398926	
-0.398743	
-0.399841	
-0.400024	
-0.399963	
-0.39978	
-0.40094	
-0.399963	
-0.400208	
-0.401428	
-0.401062	
-0.399902	
-0.401428	
-0.401611	
-0.402161	
-0.403381	
-0.403564	
-0.403381	
-0.403809	
-0.403625	
-0.404236	
-0.403748	
-0.404541	
-0.404541	
-0.405029	
-0.405334	
-0.405029	
-0.406372	
-0.405701	
-0.406311	
-0.405396	
-0.404785	
-0.405273	
-0.404846	
-0.40387	
-0.40448	
-0.403076	
-0.403992	
-0.403992	
-0.404358	
-0.403198	
-0.402771	
-0.402283	
-0.401428	
-0.401672	
-0.400635	
-0.400024	
-0.399658	
-0.400024	
-0.399597	
-0.400024	
-0.400146	
-0.400085	
-0.399475	
-0.398621	
-0.399414	
-0.398865	
-0.398865	
-0.399231	
-0.398254	
-0.399353	
-0.399231	
-0.40033	
-0.399719	
-0.400574	
-0.39978	
-0.399475	
-0.400208	
-0.399475	
-0.399597	
-0.400085	
-0.400696	
-0.400391	
-0.401001	
-0.402283	
-0.40155	
-0.401611	
-0.402039	
-0.401611	
-0.40094	
-0.401062	
-0.401672	
-0.401245	
-0.402405	
-0.402893	
-0.403809	
-0.404419	
-0.404175	
-0.403931	
-0.402344	
-0.40387	
-0.404236	
-0.403625	
-0.404175	
-0.403625	
-0.404297	
-0.404419	
-0.405151	
-0.404785	
-0.40448	
-0.405396	
-0.402466	
-0.404724	
-0.40448	
-0.404175	
-0.403503	
-0.403687	
-0.40387	
-0.403564	
-0.404053	
-0.402893	
-0.403809	
-0.402893	
-0.402588	
-0.40271	
-0.402893	
-0.402527	
-0.402283	
-0.402588	
-0.403259	
-0.403259	
-0.404236	
-0.404541	
-0.404419	
-0.403503	
-0.404175	
-0.404724	
-0.403442	
-0.403809	
-0.40387	
-0.404236	
-0.404724	
-0.404907	
-0.404419	
-0.404602	
-0.404419	
-0.402771	
-0.403931	
-0.403931	
-0.403137	
-0.404175	
-0.403442	
-0.403748	
-0.403809	
-0.404846	
-0.40332	
-0.403442	
-0.403259	
-0.403076	
-0.402588	
-0.402466	
-0.402344	
-0.40271	
-0.402344	
-0.402832	
-0.403076	
-0.404236	
-0.403503	
-0.402588	
-0.402893	
-0.402832	
-0.404175	
-0.403015	
-0.40332	
-0.403076	
-0.403931	
-0.404236	
-0.404236	
-0.405334	
-0.405273	
-0.404663	
-0.404663	
-0.405212	
-0.404968	
-0.404053	
-0.403992	
-0.404419	
-0.404785	
-0.405212	
-0.405334	
-0.405579	
-0.40509	
-0.404968	
-0.403259	
-0.403931	
-0.404541	
-0.403931	
-0.403381	
-0.404358	
-0.403992	
-0.403687	
-0.403625	
-0.403992	
-0.4021	
-0.401794	
-0.398926	
-0.400574	
-0.399963	
-0.399048	
-0.398621	
-0.399414	
-0.399231	
-0.399231	
-0.400208	
-0.399658	
-0.398743	
-0.399048	
-0.398804	
-0.398499	
-0.398132	
-0.398071	
-0.398438	
-0.398682	
-0.398438	
-0.398865	
-0.399902	
-0.398743	
-0.398987	
-0.398682	
-0.398071	
-0.399231	
-0.398315	
-0.397949	
-0.399048	
-0.39917	
-0.399597	
-0.400024	
-0.401611	
-0.39978	
-0.400696	
-0.399292	
-0.400757	
-0.401001	
-0.399902	
-0.400757	
-0.401733	
-0.401917	
-0.401978	
-0.402649	
-0.402832	
-0.402832	
-0.402649	
-0.401611	
-0.402527	
-0.402527	
-0.402405	
-0.403076	
-0.403259	
-0.403381	
-0.403564	
-0.404724	
-0.403564	
-0.40332	
-0.403564	
-0.401611	
-0.402405	
-0.401978	
-0.401917	
-0.402527	
-0.402161	
-0.401245	
-0.401733	
-0.403381	
-0.401367	
-0.400879	
-0.401123	
-0.399841	
-0.400574	
-0.400391	
-0.399353	
-0.400146	
-0.400452	
-0.400696	
-0.40094	
-0.401855	
-0.400208	
-0.40033	
-0.399963	
-0.400024	
-0.400024	
-0.400024	
-0.399597	
-0.399902	
-0.399902	
-0.400635	
-0.401123	
-0.402893	
-0.401123	
-0.401733	
-0.400269	
-0.400574	
-0.400696	
-0.401428	
-0.401611	
-0.401917	
-0.401917	
-0.402283	
-0.40271	
-0.403198	
-0.402161	
-0.402771	
-0.401367	
-0.4021	
-0.401489	
-0.401855	
-0.401672	
-0.401428	
-0.401306	
-0.401855	
-0.402527	
-0.402161	
-0.401917	
-0.401672	
-0.400513	
-0.402161	
-0.401184	
-0.402222	
-0.402527	
-0.402344	
-0.402832	
-0.402771	
-0.404724	
-0.402771	
-0.403442	
-0.402954	
-0.401733	
-0.403137	
-0.402283	
-0.402466	
-0.404175	
-0.404114	
-0.403809	
-0.404114	
-0.405945	
-0.404236	
-0.404236	
-0.403442	
-0.402832	
-0.403137	
-0.403015	
-0.4021	
-0.403137	
-0.402893	
-0.402344	
-0.402649	
-0.404053	
-0.401917	
-0.401611	
-0.40033	
-0.400452	
-0.399902	
-0.399536	
-0.39917	
-0.399292	
-0.399597	
-0.399048	
-0.39917	
-0.399597	
-0.398987	
-0.399048	
-0.397522	
-0.398743	
-0.397644	
-0.39856	
-0.399353	
-0.399109	
-0.398865	
-0.399231	
-0.400208	
-0.399963	
-0.400146	
-0.399658	
-0.398865	
-0.400879	
-0.400818	
-0.401428	
-0.402649	
-0.402893	
-0.403259	
-0.404053	
-0.405762	
-0.404602	
-0.405151	
-0.404602	
-0.403442	
-0.404358	
-0.403625	
-0.403625	
-0.404968	
-0.404907	
-0.404968	
-0.405029	
-0.407043	
-0.405334	
-0.405884	
-0.404968	
-0.40387	
-0.404846	
-0.404785	
-0.404236	
-0.405151	
-0.404663	
-0.404541	
-0.404541	
-0.406433	
-0.404724	
-0.404785	
-0.403381	
-0.403259	
-0.403931	
-0.403748	
-0.403687	
-0.403687	
-0.403503	
-0.403198	
-0.403076	
-0.404175	
-0.401917	
-0.4021	
-0.400818	
-0.401306	
-0.401367	
-0.399963	
-0.400269	
-0.400391	
-0.400391	
-0.400513	
-0.401184	
-0.401489	
-0.400391	
-0.400879	
-0.399475	
-0.400635	
-0.400757	
-0.399963	
-0.400635	
-0.401123	
-0.400696	
-0.401123	
-0.402039	
-0.402039	
-0.402283	
-0.402466	
-0.400696	
-0.402222	
-0.401672	
-0.401611	
-0.401733	
-0.402527	
-0.40271	
-0.402039	
-0.40271	
-0.401672	
-0.402039	
-0.4021	
-0.399475	
-0.401062	
-0.399719	
-0.400635	
-0.401123	
-0.401062	
-0.401184	
-0.401489	
-0.401978	
-0.400574	
-0.400757	
-0.400635	
-0.399475	
-0.400818	
-0.399597	
-0.400879	
-0.40094	
-0.400818	
-0.401794	
-0.402039	
-0.403137	
-0.401428	
-0.402527	
-0.401306	
-0.400024	
-0.401184	
-0.401794	
-0.4021	
-0.402283	
-0.402283	
-0.402466	
-0.402588	
-0.404358	
-0.402527	
-0.403076	
-0.40155	
-0.401428	
-0.402161	
-0.401489	
-0.401917	
-0.401489	
-0.401978	
-0.401367	
-0.401672	
-0.402527	
-0.400879	
-0.401184	
-0.399536	
-0.399048	
-0.399536	
-0.399902	
-0.400085	
-0.40033	
-0.40033	
-0.40033	
-0.40094	
-0.401062	
-0.399658	
-0.39978	
-0.397827	
-0.399597	
-0.398132	
-0.398865	
-0.399536	
-0.399902	
-0.39978	
-0.400574	
-0.401672	
-0.40271	
-0.401611	
-0.402588	
-0.401794	
-0.402954	
-0.401978	
-0.403625	
-0.404419	
-0.404846	
-0.404907	
-0.405029	
-0.406311	
-0.40625	
-0.40625	
-0.405762	
-0.40448	
-0.40564	
-0.406006	
-0.405518	
-0.406616	
-0.406006	
-0.406311	
-0.406555	
-0.407288	
-0.406311	
-0.406311	
-0.405823	
-0.404663	
-0.405151	
-0.404724	
-0.405396	
-0.406128	
-0.406189	
-0.40564	
-0.40564	
-0.406616	
-0.406067	
-0.405579	
-0.404663	
-0.403625	
-0.403381	
-0.403259	
-0.403015	
-0.403503	
-0.40332	
-0.403076	
-0.403503	
-0.404114	
-0.403198	
-0.403625	
-0.40271	
-0.4021	
-0.402283	
-0.401917	
-0.402344	
-0.402039	
-0.401794	
-0.401489	
-0.401978	
-0.4021	
-0.401733	
-0.402161	
-0.401855	
-0.401123	
-0.401672	
-0.402039	
-0.402344	
-0.402283	
-0.402161	
-0.402405	
-0.403809	
-0.403442	
-0.403381	
-0.403809	
-0.403809	
-0.402527	
-0.403259	
-0.403381	
-0.403625	
-0.403809	
-0.403687	
-0.403809	
-0.404358	
-0.404968	
-0.404053	
-0.404541	
-0.403992	
-0.40271	
-0.403198	
-0.403442	
-0.403809	
-0.403809	
-0.404053	
-0.404602	
-0.40509	
-0.404419	
-0.403992	
-0.403564	
-0.404053	
-0.402649	
-0.402649	
-0.402588	
-0.40332	
-0.402832	
-0.402283	
-0.402161	
-0.402161	
-0.402222	
-0.401917	
-0.401001	
-0.401306	
-0.400635	
-0.401123	
-0.401062	
-0.402283	
-0.402161	
-0.402344	
-0.402344	
-0.402649	
-0.403137	
-0.402405	
-0.401123	
-0.400574	
-0.401367	
-0.400513	
-0.401062	
-0.401489	
-0.401428	
-0.401306	
-0.401306	
-0.401245	
-0.402039	
-0.400452	
-0.400085	
-0.39917	
-0.399353	
-0.399231	
-0.398865	
-0.399841	
-0.399963	
-0.399841	
-0.400208	
-0.400024	
-0.400208	
-0.399719	
-0.398499	
-0.399475	
-0.399963	
-0.398926	
-0.399353	
-0.400452	
-0.400818	
-0.400818	
-0.401917	
-0.402466	
-0.402222	
-0.4021	
-0.402283	
-0.402222	
-0.402649	
-0.402344	
-0.402466	
-0.403442	
-0.403809	
-0.404297	
-0.404602	
-0.405029	
-0.405029	
-0.404602	
-0.404297	
-0.40448	
-0.404541	
-0.403931	
-0.403625	
-0.404358	
-0.404419	
-0.404724	
-0.404846	
-0.404846	
-0.404541	
-0.403748	
-0.403809	
-0.402283	
-0.402283	
-0.400757	
-0.400757	
-0.400391	
-0.400208	
-0.399597	
-0.399719	
-0.399475	
-0.399597	
-0.39917	
-0.398865	
-0.398254	
-0.397888	
-0.397705	
-0.397766	
-0.397888	
-0.397888	
-0.398499	
-0.398804	
-0.398682	
-0.398865	
-0.39801	
-0.398438	
-0.397583	
-0.397827	
-0.397949	
-0.397705	
-0.398071	
-0.397583	
-0.398193	
-0.398376	
-0.399048	
-0.399048	
-0.39856	
-0.399414	
-0.398987	
-0.398743	
-0.398682	
-0.399414	
-0.399841	
-0.399963	
-0.39978	
-0.400818	
-0.400879	
-0.401855	
-0.400513	
-0.40155	
-0.40094	
-0.401306	
-0.401794	
-0.402161	
-0.40155	
-0.401489	
-0.401306	
-0.402039	
-0.40271	
-0.402649	
-0.401855	
-0.401855	
-0.401611	
-0.401794	
-0.401917	
-0.4021	
-0.401978	
-0.401611	
-0.4021	
-0.401123	
-0.401306	
-0.401733	
-0.39978	
-0.39978	
-0.400146	
-0.399841	
-0.399841	
-0.399597	
-0.399536	
-0.399475	
-0.400574	
-0.400269	
-0.400757	
-0.401123	
-0.400513	
-0.400635	
-0.400208	
-0.400208	
-0.400391	
-0.401062	
-0.401306	
-0.401306	
-0.402222	
-0.401855	
-0.401794	
-0.401733	
-0.400513	
-0.400635	
-0.400635	
-0.399719	
-0.401245	
-0.401245	
-0.400574	
-0.40033	
-0.401184	
-0.400696	
-0.401428	
-0.40155	
-0.400635	
-0.399841	
-0.399963	
-0.39917	
-0.399109	
-0.399536	
-0.399658	
-0.399292	
-0.40033	
-0.399292	
-0.399536	
-0.400024	
-0.399231	
-0.398071	
-0.399292	
-0.39856	
-0.398987	
-0.399902	
-0.399658	
-0.40033	
-0.401184	
-0.401001	
-0.401367	
-0.401917	
-0.401672	
-0.40094	
-0.401184	
-0.399963	
-0.400696	
-0.401001	
-0.401001	
-0.401001	
-0.40155	
-0.401489	
-0.40155	
-0.402466	
-0.402344	
-0.400574	
-0.40155	
-0.400452	
-0.401184	
-0.401428	
-0.401245	
-0.401123	
-0.401733	
-0.400452	
-0.400452	
-0.39978	
-0.399109	
-0.397766	
-0.396912	
-0.396301	
-0.396851	
-0.396301	
-0.396118	
-0.395508	
-0.396423	
-0.395508	
-0.395752	
-0.395691	
-0.395691	
-0.393616	
-0.39386	
-0.393372	
-0.394958	
-0.394714	
-0.39502	
-0.394531	
-0.396057	
-0.395264	
-0.395264	
-0.394897	
-0.395264	
-0.39447	
-0.394043	
-0.394165	
-0.395264	
-0.394653	
-0.395325	
-0.395386	
-0.396057	
-0.395874	
-0.396545	
-0.39679	
-0.396851	
-0.395447	
-0.39502	
-0.395081	
-0.397034	
-0.397644	
-0.397583	
-0.397583	
-0.398621	
-0.398438	
-0.398376	
-0.398376	
-0.398315	
-0.397156	
-0.397217	
-0.396973	
-0.398926	
-0.398682	
-0.398865	
-0.399292	
-0.400146	
-0.399292	
-0.399292	
-0.399719	
-0.39856	
-0.397522	
-0.3974	
-0.3974	
-0.39856	
-0.398315	
-0.398499	
-0.397949	
-0.398438	
-0.397888	
-0.397461	
-0.398071	
-0.396179	
-0.395874	
-0.395142	
-0.395752	
-0.396667	
-0.39624	
-0.396118	
-0.396301	
-0.396973	
-0.396851	
-0.396545	
-0.397217	
-0.395935	
-0.39624	
-0.394287	
-0.395508	
-0.395996	
-0.395325	
-0.39563	
-0.396057	
-0.397095	
-0.397949	
-0.397095	
-0.39801	
-0.396912	
-0.396973	
-0.396057	
-0.396851	
-0.397522	
-0.397705	
-0.397827	
-0.397888	
-0.398743	
-0.399109	
-0.398132	
-0.39917	
-0.397156	
-0.397522	
-0.396362	
-0.397217	
-0.397278	
-0.397339	
-0.397461	
-0.3974	
-0.398193	
-0.39856	
-0.398865	
-0.398376	
-0.397461	
-0.397644	
-0.3974	
-0.398193	
-0.398254	
-0.39856	
-0.398315	
-0.398438	
-0.399475	
-0.39917	
-0.399536	
-0.400391	
-0.398743	
-0.398682	
-0.398315	
-0.398987	
-0.398682	
-0.399353	
-0.399353	
-0.399475	
-0.400513	
-0.400635	
-0.400574	
-0.399719	
-0.399109	
-0.398804	
-0.397888	
-0.398804	
-0.398682	
-0.397827	
-0.398315	
-0.398132	
-0.398254	
-0.397827	
-0.39801	
-0.397278	
-0.395813	
-0.394714	
-0.394714	
-0.395569	
-0.394836	
-0.39502	
-0.394714	
-0.394287	
-0.394165	
-0.395264	
-0.395264	
-0.393066	
-0.393616	
-0.393372	
-0.392395	
-0.39386	
-0.394165	
-0.394287	
-0.394287	
-0.394836	
-0.394836	
-0.395325	
-0.396301	
-0.395874	
-0.39624	
-0.395752	
-0.397095	
-0.397766	
-0.398071	
-0.398743	
-0.399048	
-0.400146	
-0.399841	
-0.400452	
-0.401123	
-0.39978	
-0.400024	
-0.399719	
-0.398804	
-0.400574	
-0.400574	
-0.40094	
-0.400635	
-0.401123	
-0.400757	
-0.401245	
-0.401794	
-0.400024	
-0.400208	
-0.398926	
-0.399841	
-0.400635	
-0.401123	
-0.400879	
-0.400513	
-0.400696	
-0.399902	
-0.400818	
-0.401123	
-0.400024	
-0.399597	
-0.398071	
-0.397888	
-0.399475	
-0.39917	
-0.398926	
-0.398865	
-0.399048	
-0.398193	
-0.397888	
-0.398193	
-0.396301	
-0.396973	
-0.395691	
-0.396179	
-0.396667	
-0.39679	
-0.396301	
-0.396179	
-0.396362	
-0.396118	
-0.396729	
-0.397278	
-0.39624	
-0.396301	
-0.39502	
-0.394714	
-0.39679	
-0.396729	
-0.396851	
-0.397278	
-0.397705	
-0.3974	
-0.398071	
-0.398804	
-0.397278	
-0.398254	
-0.397095	
-0.396973	
-0.398132	
-0.398071	
-0.397522	
-0.398315	
-0.398804	
-0.397705	
-0.398132	
-0.398804	
-0.396484	
-0.3974	
-0.395691	
-0.394775	
-0.396729	
-0.397034	
-0.397034	
-0.396851	
-0.397156	
-0.397217	
-0.397278	
-0.39917	
-0.396179	
-0.396545	
-0.395691	
-0.395386	
-0.396851	
-0.397095	
-0.397583	
-0.3974	
-0.397522	
-0.397461	
-0.397766	
-0.398987	
-0.39679	
-0.397705	
-0.39679	
-0.396851	
-0.398804	
-0.398621	
-0.398743	
-0.398621	
-0.398804	
-0.39856	
-0.39917	
-0.401123	
-0.397339	
-0.398254	
-0.396729	
-0.397705	
-0.397644	
-0.397949	
-0.397339	
-0.397766	
-0.397705	
-0.397156	
-0.397095	
-0.398499	
-0.396423	
-0.396423	
-0.395569	
-0.396179	
-0.396729	
-0.396851	
-0.396606	
-0.397156	
-0.396973	
-0.396179	
-0.397278	
-0.397888	
-0.394775	
-0.395935	
-0.394836	
-0.395874	
-0.396667	
-0.39679	
-0.39679	
	
