E:\DOCUMENTS AND SETTINGS\JPOTAS\MEUS DOCUMENTOS\UFRJ\RSCI-BM 12 WK SERIES\070730-RSCI-BM-09\RSCI-BM-09-LEMG\070730-RSCI-BM-09-LEMG-0016.ACQ
0.025000 msec/sample
1 channel
Analog input
Volts
CH1	
2000	
-0.407532	
-0.407227	
-0.406616	
-0.408081	
-0.410095	
-0.408691	
-0.408325	
-0.408203	
-0.409485	
-0.4104	
-0.409546	
-0.409851	
-0.408813	
-0.408203	
-0.408264	
-0.409485	
-0.409424	
-0.409546	
-0.408936	
-0.407837	
-0.408752	
-0.409363	
-0.409058	
-0.409546	
-0.408691	
-0.40802	
-0.407166	
-0.408691	
-0.409607	
-0.407898	
-0.407959	
-0.407104	
-0.407776	
-0.407776	
-0.407166	
-0.407043	
-0.405884	
-0.405273	
-0.404724	
-0.406128	
-0.406128	
-0.405273	
-0.404907	
-0.403625	
-0.404175	
-0.404175	
-0.403381	
-0.402954	
-0.402405	
-0.402039	
-0.40094	
-0.402344	
-0.40271	
-0.4021	
-0.401917	
-0.401184	
-0.401794	
-0.403198	
-0.403564	
-0.40332	
-0.402954	
-0.402649	
-0.402527	
-0.40332	
-0.403564	
-0.403442	
-0.403137	
-0.401917	
-0.403381	
-0.40448	
-0.40448	
-0.403992	
-0.402954	
-0.402466	
-0.401917	
-0.403015	
-0.402954	
-0.40271	
-0.402222	
-0.401367	
-0.402283	
-0.403198	
-0.402832	
-0.402527	
-0.401672	
-0.401306	
-0.402161	
-0.402588	
-0.402649	
-0.402344	
-0.402161	
-0.400696	
-0.402283	
-0.403503	
-0.403564	
-0.402954	
-0.402527	
-0.402649	
-0.402283	
-0.403809	
-0.404236	
-0.404053	
-0.40387	
-0.402954	
-0.404785	
-0.405701	
-0.404419	
-0.404236	
-0.404053	
-0.40332	
-0.403503	
-0.404236	
-0.403748	
-0.40332	
-0.40332	
-0.401489	
-0.40332	
-0.404846	
-0.403809	
-0.403381	
-0.402954	
-0.403259	
-0.403564	
-0.404358	
-0.404419	
-0.404724	
-0.404541	
-0.403381	
-0.405762	
-0.406982	
-0.405945	
-0.40564	
-0.405457	
-0.405823	
-0.405029	
-0.406921	
-0.407227	
-0.40686	
-0.407104	
-0.405273	
-0.407532	
-0.409241	
-0.407654	
-0.407715	
-0.407471	
-0.407593	
-0.407227	
-0.408875	
-0.408569	
-0.408264	
-0.408203	
-0.406433	
-0.407837	
-0.408508	
-0.407776	
-0.407349	
-0.406494	
-0.407227	
-0.40625	
-0.407593	
-0.407349	
-0.40741	
-0.406677	
-0.405457	
-0.40741	
-0.407898	
-0.407288	
-0.406494	
-0.405945	
-0.406128	
-0.405701	
-0.406616	
-0.406372	
-0.40564	
-0.405334	
-0.403931	
-0.405334	
-0.405945	
-0.405884	
-0.404297	
-0.403076	
-0.404175	
-0.403503	
-0.40448	
-0.404297	
-0.403809	
-0.403015	
-0.401611	
-0.403259	
-0.403137	
-0.402527	
-0.401367	
-0.400574	
-0.401306	
-0.401001	
-0.401611	
-0.401733	
-0.396179	
-0.380188	
-0.376221	
-0.37854	
-0.379761	
-0.380005	
-0.386353	
-0.40094	
-0.404602	
-0.404724	
-0.405579	
-0.404297	
-0.403503	
-0.403442	
-0.403137	
-0.404297	
-0.404419	
-0.404175	
-0.403442	
-0.402588	
-0.403687	
-0.403503	
-0.404663	
-0.403259	
-0.403076	
-0.402588	
-0.402344	
-0.403137	
-0.403381	
-0.403687	
-0.402954	
-0.401428	
-0.402527	
-0.403076	
-0.404358	
-0.403809	
-0.403748	
-0.403625	
-0.40332	
-0.405457	
-0.405518	
-0.40564	
-0.404907	
-0.405212	
-0.405579	
-0.405701	
-0.406921	
-0.406555	
-0.406677	
-0.406616	
-0.407471	
-0.408203	
-0.408569	
-0.408813	
-0.407837	
-0.407715	
-0.407593	
-0.408203	
-0.409241	
-0.407043	
-0.407227	
-0.408081	
-0.408875	
-0.410706	
-0.411926	
-0.413635	
-0.416199	
-0.419983	
-0.423828	
-0.430359	
-0.435852	
-0.442017	
-0.448608	
-0.454407	
-0.463501	
-0.471008	
-0.477844	
-0.482239	
-0.486511	
-0.490723	
-0.494751	
-0.499023	
-0.499451	
-0.500488	
-0.500427	
-0.501404	
-0.50238	
-0.502441	
-0.501221	
-0.50116	
-0.501343	
-0.500122	
-0.501831	
-0.502991	
-0.501221	
-0.500427	
-0.499084	
-0.499451	
-0.498779	
-0.498474	
-0.496338	
-0.493835	
-0.492859	
-0.491394	
-0.491699	
-0.490234	
-0.488708	
-0.487427	
-0.485168	
-0.487061	
-0.486267	
-0.485901	
-0.483826	
-0.483215	
-0.482483	
-0.482117	
-0.48291	
-0.481445	
-0.480713	
-0.479736	
-0.478027	
-0.47937	
-0.478943	
-0.477112	
-0.474792	
-0.472961	
-0.469666	
-0.468262	
-0.467224	
-0.463074	
-0.460754	
-0.458069	
-0.455872	
-0.454224	
-0.452271	
-0.449951	
-0.44751	
-0.447449	
-0.446228	
-0.44696	
-0.44635	
-0.445496	
-0.44519	
-0.443665	
-0.445129	
-0.445496	
-0.444336	
-0.44281	
-0.442322	
-0.441772	
-0.441284	
-0.440491	
-0.438721	
-0.436584	
-0.434753	
-0.431152	
-0.431335	
-0.428162	
-0.423279	
-0.418213	
-0.413818	
-0.408386	
-0.403137	
-0.397705	
-0.390442	
-0.383972	
-0.376831	
-0.368286	
-0.362	
-0.354614	
-0.345947	
-0.33667	
-0.328674	
-0.320068	
-0.313232	
-0.306702	
-0.300781	
-0.294922	
-0.289917	
-0.28479	
-0.283691	
-0.281982	
-0.279541	
-0.278442	
-0.278259	
-0.278076	
-0.279907	
-0.282654	
-0.282776	
-0.284424	
-0.286682	
-0.289856	
-0.292542	
-0.295044	
-0.297424	
-0.300598	
-0.303833	
-0.306824	
-0.311768	
-0.314209	
-0.315002	
-0.30011	
-0.30249	
-0.306641	
-0.310242	
-0.313721	
-0.322388	
-0.343079	
-0.348083	
-0.353394	
-0.354553	
-0.35675	
-0.358154	
-0.361511	
-0.36377	
-0.364441	
-0.365784	
-0.367493	
-0.368591	
-0.369568	
-0.371704	
-0.371765	
-0.372314	
-0.373291	
-0.374817	
-0.375549	
-0.37616	
-0.376526	
-0.377441	
-0.377441	
-0.378479	
-0.380188	
-0.380676	
-0.380066	
-0.380432	
-0.380981	
-0.381348	
-0.382019	
-0.38147	
-0.380859	
-0.381287	
-0.381042	
-0.383301	
-0.383179	
-0.382629	
-0.382813	
-0.383484	
-0.384521	
-0.384521	
-0.384827	
-0.383972	
-0.383728	
-0.383911	
-0.383484	
-0.383911	
-0.382446	
-0.381653	
-0.381104	
-0.381042	
-0.380798	
-0.380127	
-0.3797	
-0.379456	
-0.379333	
-0.379639	
-0.381897	
-0.383667	
-0.386353	
-0.389709	
-0.39386	
-0.3974	
-0.403687	
-0.40918	
-0.41272	
-0.419922	
-0.42572	
-0.431152	
-0.435181	
-0.439514	
-0.443848	
-0.447693	
-0.450989	
-0.455505	
-0.458374	
-0.460083	
-0.46228	
-0.464478	
-0.466187	
-0.467041	
-0.467712	
-0.467651	
-0.467529	
-0.467468	
-0.467529	
-0.466736	
-0.466736	
-0.464111	
-0.463989	
-0.463257	
-0.462769	
-0.460938	
-0.45929	
-0.458435	
-0.457947	
-0.457275	
-0.457153	
-0.455627	
-0.454529	
-0.453369	
-0.45282	
-0.45105	
-0.450989	
-0.450745	
-0.448792	
-0.447327	
-0.447144	
-0.446655	
-0.444092	
-0.443237	
-0.440308	
-0.437378	
-0.436035	
-0.434448	
-0.431824	
-0.429016	
-0.426453	
-0.424255	
-0.422363	
-0.422546	
-0.420349	
-0.419739	
-0.41748	
-0.41864	
-0.419067	
-0.419922	
-0.419983	
-0.42041	
-0.420715	
-0.420959	
-0.422119	
-0.421082	
-0.420776	
-0.419983	
-0.419617	
-0.418457	
-0.416199	
-0.414673	
-0.411804	
-0.407104	
-0.402222	
-0.397827	
-0.392822	
-0.38623	
-0.380676	
-0.372925	
-0.365417	
-0.357849	
-0.350342	
-0.342712	
-0.334167	
-0.325989	
-0.318237	
-0.309875	
-0.303711	
-0.296204	
-0.290649	
-0.282471	
-0.278564	
-0.274109	
-0.271301	
-0.268738	
-0.266296	
-0.265015	
-0.26416	
-0.265625	
-0.265381	
-0.266479	
-0.267029	
-0.268188	
-0.269958	
-0.272888	
-0.274841	
-0.277893	
-0.279846	
-0.283936	
-0.286804	
-0.290833	
-0.295105	
-0.298828	
-0.30188	
-0.307556	
-0.312805	
-0.315918	
-0.320129	
-0.323792	
-0.327698	
-0.330261	
-0.333679	
-0.336914	
-0.339233	
-0.340149	
-0.343445	
-0.346497	
-0.347961	
-0.349487	
-0.350342	
-0.35199	
-0.353149	
-0.355347	
-0.355896	
-0.356628	
-0.356873	
-0.358643	
-0.360229	
-0.360901	
-0.362122	
-0.362793	
-0.363831	
-0.364685	
-0.367004	
-0.367371	
-0.368042	
-0.36853	
-0.370544	
-0.371887	
-0.372009	
-0.372803	
-0.373779	
-0.374023	
-0.374268	
-0.37616	
-0.376587	
-0.377014	
-0.377319	
-0.377869	
-0.378723	
-0.380554	
-0.380676	
-0.381104	
-0.381226	
-0.382263	
-0.382874	
-0.38324	
-0.382813	
-0.383423	
-0.38385	
-0.384216	
-0.385315	
-0.385437	
-0.385498	
-0.385559	
-0.38623	
-0.385559	
-0.386414	
-0.386475	
-0.38678	
-0.386169	
-0.386475	
-0.387878	
-0.38739	
-0.387634	
-0.387695	
-0.387207	
-0.387146	
-0.389526	
-0.389587	
-0.388245	
-0.388794	
-0.388367	
-0.389221	
-0.390442	
-0.389404	
-0.390015	
-0.389709	
-0.390747	
-0.391846	
-0.391541	
-0.391296	
-0.390564	
-0.391296	
-0.391357	
-0.392151	
-0.391174	
-0.390991	
-0.390747	
-0.390076	
-0.391296	
-0.390442	
-0.390137	
-0.389343	
-0.389771	
-0.389526	
-0.390442	
-0.389648	
-0.389343	
-0.388367	
-0.388916	
-0.389404	
-0.389465	
-0.389709	
-0.38916	
-0.388062	
-0.388367	
-0.388489	
-0.388489	
-0.388123	
-0.387207	
-0.388855	
-0.388062	
-0.388123	
-0.388306	
-0.387268	
-0.387146	
-0.38739	
-0.38739	
-0.386536	
-0.386169	
-0.385986	
-0.387024	
-0.386353	
-0.386963	
-0.386841	
-0.386536	
-0.385925	
-0.388062	
-0.387939	
-0.386841	
-0.386658	
-0.387451	
-0.388672	
-0.388306	
-0.388489	
-0.389465	
-0.389038	
-0.388184	
-0.389954	
-0.390381	
-0.389832	
-0.389465	
-0.390015	
-0.389404	
-0.390259	
-0.390198	
-0.390259	
-0.388611	
-0.388672	
-0.389526	
-0.389587	
-0.390686	
-0.388916	
-0.388733	
-0.388977	
-0.390442	
-0.390259	
-0.390015	
-0.390137	
-0.389648	
-0.390442	
-0.390381	
-0.39032	
-0.39032	
-0.389893	
-0.389832	
-0.39032	
-0.391357	
-0.391235	
-0.391846	
-0.391113	
-0.391541	
-0.392151	
-0.393555	
-0.393372	
-0.393188	
-0.392883	
-0.393005	
-0.394104	
-0.394287	
-0.394104	
-0.39325	
-0.393311	
-0.393127	
-0.391541	
-0.392761	
-0.392761	
-0.393005	
-0.392578	
-0.392029	
-0.394226	
-0.3927	
-0.39386	
-0.392517	
-0.392944	
-0.393066	
-0.394104	
-0.394653	
-0.394409	
-0.394775	
-0.394653	
-0.39624	
-0.395996	
-0.396179	
-0.396362	
-0.396423	
-0.396729	
-0.396179	
-0.397888	
-0.397095	
-0.397583	
-0.397705	
-0.397278	
-0.398315	
-0.398499	
-0.39978	
-0.397705	
-0.398743	
-0.398804	
-0.399231	
-0.399353	
-0.399414	
-0.398804	
-0.397461	
-0.39917	
-0.398987	
-0.399475	
-0.398132	
-0.397583	
-0.398804	
-0.398743	
-0.399902	
-0.398926	
-0.398926	
-0.398682	
-0.398804	
-0.39917	
-0.39917	
-0.398621	
-0.397461	
-0.398621	
-0.398193	
-0.399109	
-0.398987	
-0.397888	
-0.397583	
-0.397766	
-0.397949	
-0.397278	
-0.397522	
-0.39624	
-0.396545	
-0.396851	
-0.396912	
-0.397522	
-0.396545	
-0.396667	
-0.395691	
-0.397522	
-0.396301	
-0.396362	
-0.394653	
-0.394897	
-0.394287	
-0.394226	
-0.395447	
-0.394287	
-0.394287	
-0.393799	
-0.392944	
-0.393799	
-0.394226	
-0.393677	
-0.392944	
-0.393494	
-0.393127	
-0.394104	
-0.395203	
-0.393982	
-0.394043	
-0.393005	
-0.395142	
-0.393982	
-0.394958	
-0.39325	
-0.394348	
-0.394226	
-0.394287	
-0.395447	
-0.394409	
-0.394348	
-0.394165	
-0.394531	
-0.39447	
-0.394653	
-0.394409	
-0.393433	
-0.394775	
-0.394409	
-0.39447	
-0.395874	
-0.394653	
-0.394897	
-0.394958	
-0.395142	
-0.39502	
-0.395203	
-0.394836	
-0.395508	
-0.396362	
-0.395264	
-0.396912	
-0.397949	
-0.396484	
-0.396484	
-0.39624	
-0.398071	
-0.396729	
-0.396667	
-0.396973	
-0.397156	
-0.397339	
-0.396912	
-0.398682	
-0.397583	
-0.397461	
-0.397156	
-0.396973	
-0.396851	
-0.396667	
-0.396362	
-0.395996	
-0.397522	
-0.396851	
-0.397705	
-0.399353	
-0.398254	
-0.398254	
-0.398499	
-0.399292	
-0.39917	
-0.399475	
-0.398254	
-0.398376	
-0.399536	
-0.400024	
-0.400513	
-0.401245	
-0.400757	
-0.401001	
-0.400635	
-0.401611	
-0.401672	
-0.40094	
-0.400757	
-0.400635	
-0.400696	
-0.400085	
-0.4021	
-0.400146	
-0.40033	
-0.400635	
-0.401489	
-0.40033	
-0.400696	
-0.39978	
-0.39978	
-0.400024	
-0.399658	
-0.400146	
-0.400085	
-0.398682	
-0.398621	
-0.397766	
-0.398804	
-0.398438	
-0.397888	
-0.396667	
-0.397217	
-0.397095	
-0.395691	
-0.397461	
-0.396362	
-0.396545	
-0.396118	
-0.395813	
-0.396484	
-0.395996	
-0.396484	
-0.395691	
-0.396118	
-0.395874	
-0.395447	
-0.396545	
-0.395691	
-0.395691	
-0.394775	
-0.395081	
-0.395264	
-0.395081	
-0.393738	
-0.393616	
-0.394531	
-0.393738	
-0.394165	
-0.393982	
-0.393433	
-0.392639	
-0.392334	
-0.392517	
-0.392029	
-0.392029	
-0.390259	
-0.390686	
-0.391907	
-0.390198	
-0.391968	
-0.391541	
-0.391541	
-0.391296	
-0.392395	
-0.392395	
-0.391541	
-0.391785	
-0.391541	
-0.391602	
-0.391785	
-0.391968	
-0.392212	
-0.392578	
-0.392273	
-0.39209	
-0.392273	
-0.393188	
-0.392334	
-0.392273	
-0.392273	
-0.392639	
-0.393127	
-0.394287	
-0.39447	
-0.394531	
-0.394104	
-0.394653	
-0.395142	
-0.39563	
-0.395691	
-0.395508	
-0.395874	
-0.3974	
-0.397583	
-0.398743	
-0.398682	
-0.398621	
-0.398743	
-0.399597	
-0.399048	
-0.399109	
-0.39917	
-0.399414	
-0.398315	
-0.399231	
-0.398804	
-0.39978	
-0.400085	
-0.398621	
-0.397339	
-0.397888	
-0.398376	
-0.397705	
-0.39801	
-0.397461	
-0.396179	
-0.397278	
-0.397827	
-0.397827	
-0.397339	
-0.397217	
-0.397034	
-0.397095	
-0.39856	
-0.398071	
-0.397888	
-0.398315	
-0.397949	
-0.398499	
-0.399292	
-0.398865	
-0.398071	
-0.398438	
-0.39917	
-0.397644	
-0.399475	
-0.39917	
-0.398376	
-0.397949	
-0.398315	
-0.397766	
-0.398621	
-0.398743	
-0.397888	
-0.396912	
-0.397766	
-0.39801	
-0.397827	
-0.397339	
-0.39679	
-0.396118	
-0.397095	
-0.396118	
-0.397522	
-0.396912	
-0.39679	
-0.395447	
-0.396301	
-0.397339	
-0.397217	
-0.397034	
-0.3974	
-0.396118	
-0.396973	
-0.397766	
-0.398254	
-0.396912	
-0.396729	
-0.397705	
-0.39679	
-0.397034	
-0.396301	
-0.396973	
-0.396484	
-0.395874	
-0.395935	
-0.395752	
-0.395752	
-0.394348	
-0.394348	
-0.394592	
-0.394165	
-0.39447	
-0.393921	
-0.394531	
-0.392883	
-0.393311	
-0.393188	
-0.393921	
-0.392822	
-0.392761	
-0.392334	
-0.391479	
-0.3927	
-0.3927	
-0.391663	
-0.392334	
-0.391968	
-0.392395	
-0.392578	
-0.393005	
-0.392273	
-0.392761	
-0.393616	
-0.392639	
-0.393738	
-0.392883	
-0.393921	
-0.393127	
-0.392578	
-0.39325	
-0.39325	
-0.394104	
-0.393555	
-0.392944	
-0.394165	
-0.393921	
-0.395081	
-0.39386	
-0.395203	
-0.394165	
-0.394409	
-0.394897	
-0.395203	
-0.395569	
-0.395447	
-0.39447	
-0.395081	
-0.395508	
-0.396973	
-0.395142	
-0.395935	
-0.39624	
-0.396729	
-0.396667	
-0.397278	
-0.397888	
-0.398254	
-0.398865	
-0.397583	
-0.39917	
-0.399536	
-0.398132	
-0.398743	
-0.398254	
-0.399109	
-0.398804	
-0.399292	
-0.398987	
-0.398987	
-0.399658	
-0.398438	
-0.399109	
-0.39917	
-0.399963	
-0.39856	
-0.398254	
-0.398987	
-0.398438	
-0.398804	
-0.398193	
-0.397583	
-0.398499	
-0.398071	
-0.398438	
-0.398682	
-0.398315	
-0.397644	
-0.39679	
-0.398376	
-0.397888	
-0.398315	
-0.397705	
-0.398132	
-0.398071	
-0.397827	
-0.398254	
-0.397766	
-0.397583	
-0.397644	
-0.396606	
-0.3974	
-0.396912	
-0.397217	
-0.396057	
-0.396362	
-0.395813	
-0.39624	
-0.396667	
-0.396301	
-0.395508	
-0.395508	
-0.395569	
-0.396118	
-0.396423	
-0.395264	
-0.394958	
-0.395874	
-0.39447	
-0.395691	
-0.396362	
-0.396179	
-0.395691	
-0.395325	
-0.39624	
-0.396606	
-0.3974	
-0.395874	
-0.39563	
-0.395996	
-0.394836	
-0.39447	
-0.394775	
-0.394165	
-0.394165	
-0.39325	
-0.39325	
-0.394165	
-0.393738	
-0.392639	
-0.391785	
-0.392273	
-0.391724	
-0.391907	
-0.391113	
-0.391296	
-0.390869	
-0.390381	
-0.391479	
-0.391541	
-0.391846	
-0.391235	
-0.391296	
-0.391174	
-0.391846	
-0.392151	
-0.390747	
-0.391479	
-0.391724	
-0.391235	
-0.392395	
-0.392151	
-0.392578	
-0.392334	
-0.393555	
-0.393127	
-0.393738	
-0.393311	
-0.394165	
-0.393494	
-0.393616	
-0.393372	
-0.394836	
-0.394897	
-0.394165	
-0.394226	
-0.39563	
-0.395142	
-0.395264	
-0.395874	
-0.395691	
-0.395447	
-0.395874	
-0.395447	
-0.39679	
-0.397095	
-0.39624	
-0.396606	
-0.39679	
-0.396545	
-0.396606	
-0.396912	
-0.396606	
-0.396912	
-0.397034	
-0.397278	
-0.397339	
-0.398254	
-0.397949	
-0.397522	
-0.397705	
-0.397949	
-0.398804	
-0.398804	
-0.398682	
-0.398804	
-0.398376	
-0.399902	
-0.399597	
-0.399231	
-0.399597	
-0.399109	
-0.398682	
-0.400024	
-0.400574	
-0.399109	
-0.39978	
-0.399597	
-0.398315	
-0.399963	
-0.400024	
-0.399597	
-0.399109	
-0.39978	
-0.398376	
-0.399292	
-0.400513	
-0.398987	
-0.399353	
-0.398804	
-0.398499	
-0.400085	
-0.399048	
-0.39856	
-0.398132	
-0.398438	
-0.397461	
-0.397583	
-0.398132	
-0.396606	
-0.395874	
-0.395386	
-0.396301	
-0.396545	
-0.396301	
-0.394897	
-0.394531	
-0.39447	
-0.393982	
-0.393677	
-0.393005	
-0.393188	
-0.392517	
-0.391296	
-0.392944	
-0.392822	
-0.393372	
-0.392029	
-0.391052	
-0.391724	
-0.392639	
-0.39386	
-0.3927	
-0.393677	
-0.392944	
-0.392456	
-0.39386	
-0.394348	
-0.393494	
-0.393494	
-0.393005	
-0.392822	
-0.394287	
-0.395081	
-0.392761	
-0.393005	
-0.392822	
-0.393311	
-0.393921	
-0.39325	
-0.392822	
-0.3927	
-0.393372	
-0.391296	
-0.392639	
-0.393738	
-0.392456	
-0.392273	
-0.391968	
-0.392578	
-0.393738	
-0.393494	
-0.392517	
-0.392517	
-0.393066	
-0.3927	
-0.393311	
-0.392639	
-0.39325	
-0.392944	
-0.391174	
-0.393616	
-0.394836	
-0.393677	
-0.393799	
-0.394348	
-0.393555	
-0.394226	
-0.394775	
-0.393127	
-0.394104	
-0.394531	
-0.3927	
-0.394287	
-0.393921	
-0.393921	
-0.393555	
-0.393494	
-0.392212	
-0.393677	
-0.394897	
-0.393433	
-0.393494	
-0.393311	
-0.393738	
-0.394165	
-0.39447	
-0.393982	
-0.394897	
-0.394836	
-0.395142	
-0.395569	
-0.39624	
-0.396118	
-0.396057	
-0.395142	
-0.39624	
-0.39624	
-0.397095	
-0.39679	
-0.397034	
-0.396484	
-0.396973	
-0.3974	
-0.397095	
-0.397583	
-0.397705	
-0.39624	
-0.397583	
-0.399048	
-0.398926	
-0.397461	
-0.397583	
-0.396973	
-0.397461	
-0.397949	
-0.396484	
-0.397034	
-0.396362	
-0.396851	
-0.396423	
-0.397766	
-0.397034	
-0.396729	
-0.396729	
-0.395874	
-0.396606	
-0.398315	
-0.395325	
-0.396057	
-0.395325	
-0.395813	
-0.39563	
-0.395569	
-0.395325	
-0.395447	
-0.394714	
-0.393494	
-0.394714	
-0.395752	
-0.394104	
-0.393982	
-0.393311	
-0.393982	
-0.393616	
-0.394775	
-0.393433	
-0.393127	
-0.393127	
-0.392395	
-0.392517	
-0.391663	
-0.391357	
-0.39093	
-0.389648	
-0.390503	
-0.391113	
-0.391418	
-0.390503	
-0.390503	
-0.390076	
-0.39032	
-0.390747	
-0.389404	
-0.390259	
-0.389954	
-0.388245	
-0.391174	
-0.392029	
-0.391235	
-0.390625	
-0.390991	
-0.389648	
-0.390503	
-0.392029	
-0.389832	
-0.390564	
-0.390137	
-0.389587	
-0.391479	
-0.39209	
-0.390686	
-0.390625	
-0.391174	
-0.390076	
-0.39093	
-0.391846	
-0.39093	
-0.390869	
-0.390381	
-0.39093	
-0.391296	
-0.391479	
-0.391052	
-0.391418	
-0.391541	
-0.391602	
-0.392273	
-0.392822	
-0.39209	
-0.391968	
-0.391357	
-0.392456	
-0.392944	
-0.394653	
-0.393066	
-0.39325	
-0.393066	
-0.393799	
-0.394043	
-0.393738	
-0.393433	
-0.393005	
-0.392822	
-0.392883	
-0.393555	
-0.393555	
-0.3927	
-0.392578	
-0.391907	
-0.3927	
-0.393127	
-0.391724	
-0.392822	
-0.39325	
-0.392578	
-0.393494	
-0.394287	
-0.394226	
-0.394287	
-0.39447	
-0.392822	
-0.394714	
-0.395813	
-0.394348	
-0.395264	
-0.394836	
-0.395508	
-0.396118	
-0.3974	
-0.396057	
-0.396484	
-0.396362	
-0.395569	
-0.396912	
-0.396912	
-0.396118	
-0.395874	
-0.395569	
-0.395935	
-0.395996	
-0.396057	
-0.395325	
-0.395569	
-0.395935	
-0.394104	
-0.395447	
-0.394897	
-0.394653	
-0.394287	
-0.393921	
-0.393677	
-0.393982	
-0.394226	
-0.393311	
-0.392883	
-0.3927	
-0.3927	
-0.392639	
-0.391846	
-0.392151	
-0.390686	
-0.390686	
-0.391296	
-0.391846	
-0.391541	
-0.391052	
-0.390991	
-0.390137	
-0.391052	
-0.391296	
-0.389832	
-0.390259	
-0.390137	
-0.390686	
-0.390747	
-0.391357	
-0.390564	
-0.390076	
-0.389709	
-0.389526	
-0.389893	
-0.389404	
-0.387878	
-0.388123	
-0.387756	
-0.387329	
-0.387878	
-0.388367	
-0.387573	
-0.387146	
-0.386658	
-0.386353	
-0.385925	
-0.386047	
-0.385559	
-0.385071	
-0.385437	
-0.386292	
-0.38623	
-0.386353	
-0.386169	
-0.386169	
-0.386169	
-0.385193	
-0.386414	
-0.386169	
-0.385742	
-0.385437	
-0.385925	
-0.386292	
-0.385803	
-0.386536	
-0.386108	
-0.386475	
-0.386353	
-0.38623	
-0.38678	
-0.387085	
-0.387451	
-0.386963	
-0.387939	
-0.388245	
-0.38855	
-0.388855	
-0.389038	
-0.389099	
-0.388611	
-0.390564	
-0.390564	
-0.389343	
-0.390991	
-0.391296	
-0.391296	
-0.391846	
-0.393005	
-0.393372	
-0.392761	
-0.393005	
-0.392456	
-0.393555	
-0.39325	
-0.391846	
-0.392517	
-0.391602	
-0.391357	
-0.391296	
-0.392151	
-0.391663	
-0.391052	
-0.390625	
-0.390564	
-0.390808	
-0.391541	
-0.389648	
-0.390076	
-0.390442	
-0.390442	
-0.390381	
-0.391113	
-0.391174	
-0.390869	
-0.391235	
-0.388977	
-0.391907	
-0.391418	
-0.390625	
-0.391418	
-0.390503	
-0.391479	
-0.391296	
-0.3927	
-0.391541	
-0.391296	
-0.391357	
-0.39032	
-0.391541	
-0.390808	
-0.390747	
-0.391052	
-0.389771	
-0.390991	
-0.390686	
-0.391541	
-0.389893	
-0.389893	
-0.390686	
-0.390137	
-0.390198	
-0.389465	
-0.388977	
-0.389526	
-0.389038	
-0.389343	
-0.389526	
-0.390747	
-0.389771	
-0.389954	
-0.389771	
-0.390686	
-0.390442	
-0.389465	
-0.388733	
-0.389771	
-0.389832	
-0.389526	
-0.390137	
-0.390442	
-0.389465	
-0.389648	
-0.389648	
-0.389221	
-0.388672	
-0.386414	
-0.388	
-0.387085	
-0.387512	
-0.387085	
-0.387634	
-0.38678	
-0.386475	
-0.386292	
-0.385254	
-0.385986	
-0.385498	
-0.384216	
-0.385132	
-0.384644	
-0.385071	
-0.385132	
-0.386169	
-0.384338	
-0.384338	
-0.385254	
-0.384338	
-0.385193	
-0.384766	
-0.384766	
-0.385376	
-0.385132	
-0.385193	
-0.38562	
-0.386963	
-0.385742	
-0.385742	
-0.386536	
-0.385376	
-0.386841	
-0.385254	
-0.384399	
-0.385193	
-0.385986	
-0.385559	
-0.386414	
-0.387939	
-0.38678	
-0.386658	
-0.387329	
-0.386963	
-0.387634	
-0.386902	
-0.386169	
-0.387512	
-0.387817	
-0.387878	
-0.388245	
-0.389587	
-0.388489	
-0.38916	
-0.389465	
-0.388855	
-0.389893	
-0.388794	
-0.390564	
-0.389954	
-0.39093	
-0.391296	
-0.391541	
-0.392334	
-0.391663	
-0.39209	
-0.390564	
-0.391968	
-0.391602	
-0.390442	
-0.391052	
-0.390808	
-0.391479	
-0.391724	
-0.391968	
-0.39209	
-0.391052	
-0.391479	
-0.391113	
-0.391602	
-0.390869	
-0.39032	
-0.39093	
-0.389709	
-0.390564	
-0.390991	
-0.39209	
-0.390625	
-0.390808	
-0.391541	
-0.389832	
-0.391357	
-0.390076	
-0.390015	
-0.390442	
-0.390625	
-0.390381	
-0.390686	
-0.391113	
-0.390381	
-0.39093	
-0.391357	
-0.389771	
-0.390015	
-0.38916	
-0.389465	
-0.388672	
-0.389038	
-0.388367	
-0.388672	
-0.388611	
-0.388	
-0.388184	
-0.388428	
-0.387817	
-0.388	
-0.387512	
-0.388489	
-0.387268	
-0.388367	
-0.388	
-0.388794	
-0.388611	
-0.388	
-0.388489	
-0.387573	
-0.388672	
-0.388733	
-0.38739	
-0.388855	
-0.387817	
-0.388184	
-0.387695	
-0.388	
-0.388184	
-0.386841	
-0.387146	
-0.385498	
-0.387146	
-0.385681	
-0.383911	
-0.385254	
-0.384888	
-0.385132	
-0.384827	
-0.385193	
-0.384888	
-0.384705	
-0.385132	
-0.38324	
-0.384949	
-0.383606	
-0.382629	
-0.383484	
-0.383972	
-0.38446	
-0.384583	
-0.385803	
-0.38501	
-0.384766	
-0.385681	
-0.384155	
-0.385681	
-0.384766	
-0.384583	
-0.385376	
-0.385315	
-0.385559	
-0.385742	
-0.387329	
-0.386169	
-0.386658	
-0.387085	
-0.38562	
-0.387024	
-0.385742	
-0.387695	
-0.387146	
-0.388	
-0.387878	
-0.388733	
-0.389526	
-0.388489	
-0.389587	
-0.388855	
-0.388123	
-0.389221	
-0.388855	
-0.389099	
-0.388123	
-0.389343	
-0.389465	
-0.389709	
-0.390686	
-0.390198	
-0.391418	
-0.39032	
-0.390076	
-0.390076	
-0.389832	
-0.390625	
-0.390625	
-0.391235	
-0.391174	
	
