E:\DOCUMENTS AND SETTINGS\JPOTAS\MEUS DOCUMENTOS\UFRJ\RSCI-BM 12 WK SERIES\070730-RSCI-BM-09\RSCI-BM-09-LEMG\070730-RSCI-BM-09-LEMG-0007.ACQ
0.025000 msec/sample
1 channel
Analog input
Volts
CH1	
2000	
-0.40625	
-0.406128	
-0.406006	
-0.407349	
-0.405579	
-0.40564	
-0.405884	
-0.405212	
-0.405396	
-0.404968	
-0.405579	
-0.405396	
-0.405334	
-0.405273	
-0.406006	
-0.40625	
-0.405762	
-0.405823	
-0.406189	
-0.404175	
-0.40564	
-0.405212	
-0.405945	
-0.405762	
-0.40625	
-0.404602	
-0.40564	
-0.406616	
-0.40564	
-0.406006	
-0.406433	
-0.404236	
-0.405823	
-0.405762	
-0.405701	
-0.405212	
-0.404236	
-0.403503	
-0.404236	
-0.40448	
-0.403442	
-0.403381	
-0.403564	
-0.401794	
-0.401794	
-0.401917	
-0.401672	
-0.40155	
-0.401306	
-0.400269	
-0.401367	
-0.401978	
-0.401367	
-0.401917	
-0.403137	
-0.400146	
-0.4021	
-0.402283	
-0.402283	
-0.402405	
-0.402466	
-0.402039	
-0.40387	
-0.40387	
-0.404114	
-0.403992	
-0.405579	
-0.402893	
-0.40509	
-0.405273	
-0.405701	
-0.406189	
-0.406555	
-0.40625	
-0.407104	
-0.407776	
-0.409241	
-0.40918	
-0.411316	
-0.408997	
-0.409973	
-0.410461	
-0.4104	
-0.411255	
-0.411316	
-0.410706	
-0.411438	
-0.411865	
-0.41333	
-0.412476	
-0.414185	
-0.41217	
-0.412292	
-0.412231	
-0.412842	
-0.412354	
-0.411987	
-0.411499	
-0.411621	
-0.411377	
-0.411377	
-0.411133	
-0.411987	
-0.410034	
-0.40918	
-0.408691	
-0.406677	
-0.407898	
-0.407166	
-0.406494	
-0.406799	
-0.406311	
-0.40741	
-0.405884	
-0.406372	
-0.405457	
-0.404907	
-0.405273	
-0.403687	
-0.405151	
-0.404968	
-0.405273	
-0.405334	
-0.405579	
-0.405823	
-0.405334	
-0.405884	
-0.40509	
-0.404541	
-0.405151	
-0.404785	
-0.40509	
-0.405396	
-0.405457	
-0.404968	
-0.40625	
-0.407288	
-0.406677	
-0.406372	
-0.406067	
-0.406311	
-0.40625	
-0.405029	
-0.406433	
-0.406494	
-0.40625	
-0.405579	
-0.407043	
-0.407349	
-0.40741	
-0.40741	
-0.40741	
-0.406494	
-0.406799	
-0.405823	
-0.407715	
-0.407166	
-0.407471	
-0.407288	
-0.40741	
-0.408142	
-0.408569	
-0.407471	
-0.408325	
-0.406982	
-0.407288	
-0.40686	
-0.407715	
-0.407593	
-0.407715	
-0.406738	
-0.407043	
-0.40802	
-0.407715	
-0.406494	
-0.406433	
-0.405762	
-0.406006	
-0.405273	
-0.405518	
-0.404968	
-0.405273	
-0.404419	
-0.40448	
-0.40564	
-0.405579	
-0.405029	
-0.405396	
-0.404541	
-0.404175	
-0.403992	
-0.40387	
-0.404053	
-0.404419	
-0.404053	
-0.404663	
-0.404907	
-0.395325	
-0.383362	
-0.383118	
-0.382202	
-0.382813	
-0.38324	
-0.395813	
-0.405945	
-0.407349	
-0.406982	
-0.405884	
-0.407349	
-0.40741	
-0.406311	
-0.407715	
-0.406067	
-0.40625	
-0.406128	
-0.406067	
-0.406372	
-0.406494	
-0.406616	
-0.405823	
-0.407104	
-0.407837	
-0.407043	
-0.407593	
-0.406982	
-0.407349	
-0.407593	
-0.407349	
-0.409302	
-0.39856	
-0.388611	
-0.387573	
-0.389404	
-0.390198	
-0.389648	
-0.403198	
-0.411926	
-0.413147	
-0.412903	
-0.412659	
-0.413086	
-0.41272	
-0.412354	
-0.412354	
-0.413086	
-0.413269	
-0.412231	
-0.412231	
-0.411865	
-0.411865	
-0.411377	
-0.40979	
-0.41095	
-0.410217	
-0.409607	
-0.408142	
-0.408752	
-0.408386	
-0.407227	
-0.40741	
-0.407471	
-0.40802	
-0.409241	
-0.410889	
-0.4151	
-0.41864	
-0.423157	
-0.428345	
-0.434204	
-0.440186	
-0.445435	
-0.451416	
-0.457153	
-0.461914	
-0.464722	
-0.465515	
-0.46521	
-0.463989	
-0.461365	
-0.4599	
-0.455811	
-0.451538	
-0.447998	
-0.446899	
-0.442688	
-0.441589	
-0.440552	
-0.44104	
-0.440186	
-0.440979	
-0.442322	
-0.444885	
-0.446472	
-0.44812	
-0.450195	
-0.453247	
-0.453308	
-0.457031	
-0.458862	
-0.461731	
-0.46228	
-0.463196	
-0.463623	
-0.464111	
-0.463989	
-0.462952	
-0.46283	
-0.463501	
-0.461792	
-0.46167	
-0.460632	
-0.46106	
-0.459717	
-0.458923	
-0.458374	
-0.458008	
-0.457214	
-0.455078	
-0.454163	
-0.453491	
-0.451294	
-0.449646	
-0.448486	
-0.44873	
-0.447327	
-0.446167	
-0.444397	
-0.442566	
-0.441284	
-0.43866	
-0.436035	
-0.435059	
-0.432922	
-0.431458	
-0.430603	
-0.43158	
-0.430725	
-0.430298	
-0.43042	
-0.43103	
-0.431335	
-0.431458	
-0.432129	
-0.432495	
-0.433228	
-0.433289	
-0.43335	
-0.433838	
-0.432922	
-0.432129	
-0.431335	
-0.430542	
-0.428955	
-0.426514	
-0.42395	
-0.421448	
-0.41748	
-0.414246	
-0.408752	
-0.405579	
-0.399536	
-0.39386	
-0.387573	
-0.382019	
-0.374817	
-0.366577	
-0.359131	
-0.352417	
-0.343567	
-0.337158	
-0.329285	
-0.322632	
-0.315002	
-0.308044	
-0.301514	
-0.296021	
-0.290344	
-0.284302	
-0.28064	
-0.277039	
-0.27356	
-0.27179	
-0.269958	
-0.271057	
-0.270996	
-0.271729	
-0.273987	
-0.277771	
-0.280945	
-0.284912	
-0.291199	
-0.294434	
-0.299622	
-0.303894	
-0.309814	
-0.313782	
-0.318237	
-0.322998	
-0.327576	
-0.332397	
-0.335144	
-0.340637	
-0.343506	
-0.346863	
-0.350159	
-0.354736	
-0.356628	
-0.358948	
-0.361084	
-0.363281	
-0.364014	
-0.36499	
-0.365967	
-0.366516	
-0.366516	
-0.367981	
-0.368103	
-0.368958	
-0.369202	
-0.369324	
-0.369019	
-0.369751	
-0.369934	
-0.369995	
-0.370422	
-0.36908	
-0.36969	
-0.3703	
-0.370911	
-0.370544	
-0.371033	
-0.371033	
-0.37207	
-0.372253	
-0.371826	
-0.372925	
-0.372742	
-0.372864	
-0.373169	
-0.373169	
-0.374207	
-0.374512	
-0.373901	
-0.372864	
-0.374146	
-0.374634	
-0.373474	
-0.373657	
-0.372314	
-0.371643	
-0.370544	
-0.371582	
-0.370056	
-0.369385	
-0.367981	
-0.367737	
-0.366272	
-0.364563	
-0.362793	
-0.360718	
-0.359009	
-0.356323	
-0.352417	
-0.351868	
-0.349243	
-0.346436	
-0.343689	
-0.342773	
-0.339355	
-0.337158	
-0.336121	
-0.332153	
-0.331482	
-0.329895	
-0.329651	
-0.328918	
-0.328613	
-0.329529	
-0.3302	
-0.331299	
-0.332458	
-0.335022	
-0.335815	
-0.337769	
-0.340698	
-0.342957	
-0.345947	
-0.347778	
-0.349487	
-0.351257	
-0.354065	
-0.355835	
-0.356873	
-0.358215	
-0.359619	
-0.361267	
-0.361511	
-0.363342	
-0.365417	
-0.366516	
-0.367676	
-0.367981	
-0.370483	
-0.370728	
-0.37262	
-0.372131	
-0.373291	
-0.373718	
-0.374817	
-0.376404	
-0.376953	
-0.377625	
-0.377991	
-0.379761	
-0.380066	
-0.380249	
-0.380554	
-0.381409	
-0.380737	
-0.381531	
-0.382629	
-0.382385	
-0.382446	
-0.382935	
-0.383667	
-0.383667	
-0.384521	
-0.384155	
-0.383057	
-0.382813	
-0.38385	
-0.384033	
-0.38385	
-0.383606	
-0.383972	
-0.383362	
-0.385193	
-0.385132	
-0.383667	
-0.384033	
-0.383362	
-0.382996	
-0.38324	
-0.383667	
-0.382874	
-0.383362	
-0.383057	
-0.382935	
-0.384216	
-0.383301	
-0.382874	
-0.382568	
-0.381287	
-0.382935	
-0.382507	
-0.382385	
-0.382446	
-0.382263	
-0.381226	
-0.382141	
-0.38208	
-0.380981	
-0.380432	
-0.379883	
-0.378235	
-0.38031	
-0.380554	
-0.378784	
-0.380249	
-0.379944	
-0.380249	
-0.381897	
-0.381897	
-0.380676	
-0.381104	
-0.381836	
-0.382019	
-0.382507	
-0.383118	
-0.382629	
-0.383911	
-0.384216	
-0.385681	
-0.386719	
-0.38623	
-0.386475	
-0.386292	
-0.387634	
-0.388489	
-0.39032	
-0.389954	
-0.391296	
-0.391846	
-0.393616	
-0.394348	
-0.395447	
-0.394165	
-0.394348	
-0.394897	
-0.395142	
-0.39563	
-0.395386	
-0.395752	
-0.39624	
-0.395691	
-0.398193	
-0.397705	
-0.396973	
-0.397156	
-0.396912	
-0.396484	
-0.397644	
-0.398132	
-0.396423	
-0.3974	
-0.397217	
-0.39801	
-0.398376	
-0.397522	
-0.397217	
-0.397217	
-0.397095	
-0.397522	
-0.3974	
-0.396851	
-0.397034	
-0.397156	
-0.396118	
-0.398254	
-0.397095	
-0.396179	
-0.395752	
-0.395325	
-0.396057	
-0.396301	
-0.395874	
-0.394592	
-0.395569	
-0.394287	
-0.395813	
-0.395691	
-0.394775	
-0.394592	
-0.394409	
-0.393616	
-0.39563	
-0.395874	
-0.394592	
-0.395813	
-0.396179	
-0.395691	
-0.396057	
-0.395447	
-0.395935	
-0.395935	
-0.396545	
-0.396973	
-0.396301	
-0.395691	
-0.396851	
-0.398438	
-0.397888	
-0.399109	
-0.398254	
-0.397949	
-0.397888	
-0.398315	
-0.398499	
-0.398621	
-0.398743	
-0.39801	
-0.397949	
-0.397583	
-0.398499	
-0.398254	
-0.398071	
-0.397705	
-0.396606	
-0.398621	
-0.398438	
-0.398926	
-0.39801	
-0.398438	
-0.398132	
-0.398132	
-0.399963	
-0.398804	
-0.398254	
-0.397827	
-0.399414	
-0.397949	
-0.399048	
-0.399536	
-0.399292	
-0.399719	
-0.399597	
-0.40094	
-0.40094	
-0.400574	
-0.399902	
-0.400208	
-0.399597	
-0.399536	
-0.399475	
-0.399048	
-0.398682	
-0.398071	
-0.397278	
-0.398499	
-0.397888	
-0.397278	
-0.396667	
-0.397827	
-0.396423	
-0.396851	
-0.397583	
-0.397278	
-0.397705	
-0.397644	
-0.397705	
-0.399048	
-0.398254	
-0.397461	
-0.3974	
-0.398132	
-0.398376	
-0.398987	
-0.39801	
-0.399658	
-0.399719	
-0.400146	
-0.400391	
-0.401611	
-0.40155	
-0.400635	
-0.401184	
-0.402466	
-0.403198	
-0.403748	
-0.403625	
-0.404053	
-0.404907	
-0.405823	
-0.406494	
-0.406616	
-0.405945	
-0.406494	
-0.407532	
-0.40625	
-0.408203	
-0.408203	
-0.408691	
-0.409241	
-0.40741	
-0.408569	
-0.409668	
-0.408936	
-0.409546	
-0.410095	
-0.4104	
-0.410339	
-0.410706	
-0.409607	
-0.408691	
-0.410339	
-0.410828	
-0.408813	
-0.40863	
-0.407715	
-0.408386	
-0.407776	
-0.406494	
-0.406372	
-0.406372	
-0.406128	
-0.404175	
-0.404114	
-0.40332	
-0.403931	
-0.404358	
-0.40332	
-0.40332	
-0.404358	
-0.403381	
-0.404297	
-0.402893	
-0.40448	
-0.404541	
-0.403809	
-0.403931	
-0.402161	
-0.40448	
-0.403809	
-0.40509	
-0.404114	
-0.404175	
-0.404663	
-0.403931	
-0.404236	
-0.404236	
-0.404846	
-0.405762	
-0.40509	
-0.404358	
-0.405029	
-0.405396	
-0.404602	
-0.40564	
-0.405334	
-0.404785	
-0.406311	
-0.406067	
-0.405884	
-0.405701	
-0.406372	
-0.405823	
-0.405334	
-0.406616	
-0.405823	
-0.406372	
-0.405701	
-0.406555	
-0.406311	
-0.405884	
-0.40686	
-0.40625	
-0.406433	
-0.406738	
-0.406677	
-0.406799	
-0.407532	
-0.40802	
-0.40741	
-0.407288	
-0.407593	
-0.40741	
-0.40802	
-0.407043	
-0.406616	
-0.40625	
-0.406799	
-0.405212	
-0.405151	
-0.40625	
-0.405151	
-0.405457	
-0.404419	
-0.405334	
-0.404724	
-0.403809	
-0.404419	
-0.403503	
-0.405029	
-0.403076	
-0.404846	
-0.404175	
-0.40387	
-0.403931	
-0.403198	
-0.403992	
-0.403931	
-0.403931	
-0.404175	
-0.402893	
-0.403564	
-0.403809	
-0.404846	
-0.403015	
-0.40387	
-0.40448	
-0.404602	
-0.405579	
-0.403931	
-0.403809	
-0.403687	
-0.404297	
-0.402893	
-0.40509	
-0.40564	
-0.404114	
-0.404968	
-0.404846	
-0.404785	
-0.404968	
-0.405151	
-0.405518	
-0.40448	
-0.405579	
-0.405518	
-0.405884	
-0.405396	
-0.406738	
-0.407532	
-0.406433	
-0.408752	
-0.408508	
-0.408508	
-0.409058	
-0.408997	
-0.410889	
-0.410461	
-0.410034	
-0.409668	
-0.4104	
-0.410889	
-0.409668	
-0.410828	
-0.409851	
-0.409912	
-0.409729	
-0.409851	
-0.408936	
-0.409912	
-0.40979	
-0.407959	
-0.409119	
-0.409119	
-0.409058	
-0.408936	
-0.407898	
-0.40686	
-0.407104	
-0.407288	
-0.405518	
-0.40564	
-0.405579	
-0.40448	
-0.404114	
-0.404114	
-0.404236	
-0.404175	
-0.403381	
-0.403503	
-0.403015	
-0.403687	
-0.40332	
-0.403503	
-0.40332	
-0.402954	
-0.403564	
-0.402588	
-0.403503	
-0.403076	
-0.403259	
-0.403198	
-0.402222	
-0.403442	
-0.402405	
-0.403015	
-0.401978	
-0.403198	
-0.403687	
-0.40271	
-0.40448	
-0.404114	
-0.404785	
-0.404358	
-0.404663	
-0.403076	
-0.40448	
-0.404236	
-0.405579	
-0.405273	
-0.405762	
-0.40448	
-0.40686	
-0.40509	
-0.406372	
-0.406433	
-0.407043	
-0.406372	
-0.406189	
-0.406677	
-0.406738	
-0.406982	
-0.406433	
-0.405457	
-0.407104	
-0.40741	
-0.40686	
-0.406799	
-0.407043	
-0.407104	
-0.40625	
-0.406006	
-0.406921	
-0.407043	
-0.405457	
-0.404846	
-0.406189	
-0.405762	
-0.405029	
-0.40448	
-0.403503	
-0.404297	
-0.404297	
-0.404053	
-0.404541	
-0.404663	
-0.403564	
-0.40387	
-0.404541	
-0.404785	
-0.404358	
-0.403992	
-0.403503	
-0.404663	
-0.404724	
-0.404724	
-0.404907	
-0.404785	
-0.404846	
-0.404358	
-0.404785	
-0.404663	
-0.404907	
-0.403992	
-0.404541	
-0.404968	
-0.404663	
-0.405396	
-0.404968	
-0.404724	
-0.403992	
-0.405151	
-0.404175	
-0.404236	
-0.403931	
-0.404175	
-0.404236	
-0.40448	
-0.404297	
-0.404053	
-0.405029	
-0.404419	
-0.404541	
-0.404907	
-0.406311	
-0.405945	
-0.406067	
-0.406921	
-0.407104	
-0.407227	
-0.407288	
-0.408203	
-0.408875	
-0.408142	
-0.408081	
-0.408997	
-0.40918	
-0.408386	
-0.408447	
-0.40918	
-0.408508	
-0.408203	
-0.408203	
-0.408813	
-0.407837	
-0.407349	
-0.406921	
-0.406616	
-0.407166	
-0.406677	
-0.405884	
-0.406128	
-0.405334	
-0.40509	
-0.404724	
-0.405518	
-0.404907	
-0.403992	
-0.403625	
-0.403137	
-0.403198	
-0.402344	
-0.401428	
-0.400696	
-0.400757	
-0.400208	
-0.399536	
-0.399658	
-0.399292	
-0.398865	
-0.398254	
-0.397522	
-0.397888	
-0.397522	
-0.397522	
-0.397217	
-0.397034	
-0.397339	
-0.396362	
-0.397522	
-0.397461	
-0.398254	
-0.397339	
-0.397705	
-0.397583	
-0.397888	
-0.398315	
-0.397278	
-0.398071	
-0.398804	
-0.398682	
-0.400208	
-0.400757	
-0.401733	
-0.40094	
-0.402161	
-0.402283	
-0.401001	
-0.403076	
-0.401855	
-0.40332	
-0.402771	
-0.402588	
-0.403687	
-0.403992	
-0.403381	
-0.402649	
-0.402771	
-0.403748	
-0.403259	
-0.40448	
-0.403809	
-0.403381	
-0.403259	
-0.403198	
-0.403442	
-0.403503	
-0.403381	
-0.402344	
-0.403198	
-0.403137	
-0.403015	
-0.403198	
-0.403381	
-0.403015	
-0.403076	
-0.402344	
-0.403381	
-0.402832	
-0.404114	
-0.401672	
-0.403687	
-0.401917	
-0.402222	
-0.402283	
-0.401978	
-0.401367	
-0.401489	
-0.402405	
-0.402466	
-0.401489	
-0.401733	
-0.400879	
-0.40155	
-0.401184	
-0.400818	
-0.401306	
-0.400818	
-0.40094	
-0.401062	
-0.402283	
-0.402039	
-0.401184	
-0.401855	
-0.400024	
-0.401733	
-0.401306	
-0.401306	
-0.401978	
-0.40155	
-0.402283	
-0.4021	
-0.403137	
-0.403076	
-0.403259	
-0.403625	
-0.40271	
-0.403076	
-0.402893	
-0.403137	
-0.403076	
-0.403137	
-0.403076	
-0.402893	
-0.404175	
-0.40387	
-0.403992	
-0.403748	
-0.402283	
-0.404114	
-0.403381	
-0.404236	
-0.403137	
-0.404175	
-0.403564	
-0.403015	
-0.404602	
-0.403076	
-0.403442	
-0.403503	
-0.402649	
-0.403015	
-0.403259	
-0.403442	
-0.40271	
-0.403137	
-0.403442	
-0.402649	
-0.40387	
-0.403137	
-0.402954	
-0.402466	
-0.4021	
-0.40271	
-0.401428	
-0.402405	
-0.401428	
-0.402161	
-0.401611	
-0.40094	
-0.403137	
-0.401245	
-0.401245	
-0.400024	
-0.400269	
-0.398926	
-0.397278	
-0.397156	
-0.397278	
-0.397034	
-0.3974	
-0.396057	
-0.398438	
-0.396423	
-0.397339	
-0.396606	
-0.396912	
-0.396973	
-0.396423	
-0.397034	
-0.396423	
-0.396667	
-0.396912	
-0.39624	
-0.398987	
-0.398254	
-0.39801	
-0.398193	
-0.398926	
-0.398499	
-0.398865	
-0.399902	
-0.399719	
-0.400269	
-0.400635	
-0.401001	
-0.403503	
-0.402283	
-0.403381	
-0.402588	
-0.403748	
-0.40271	
-0.402832	
-0.402649	
-0.402527	
-0.402771	
-0.402771	
-0.402771	
-0.404602	
-0.403625	
-0.40387	
-0.402649	
-0.403564	
-0.402832	
-0.403137	
-0.403748	
-0.403198	
-0.403137	
-0.40271	
-0.403076	
-0.403625	
-0.40271	
-0.403137	
-0.402588	
-0.403137	
-0.402527	
-0.402832	
-0.402405	
-0.401794	
-0.401672	
-0.401428	
-0.401672	
-0.402161	
-0.400635	
-0.400269	
-0.400024	
-0.400879	
-0.399292	
-0.400146	
-0.40033	
-0.399536	
-0.399475	
-0.398743	
-0.399719	
-0.399841	
-0.399292	
-0.398682	
-0.398438	
-0.399048	
-0.398438	
-0.39917	
-0.398865	
-0.399536	
-0.399658	
-0.399048	
-0.400024	
-0.400879	
-0.400024	
-0.39978	
-0.399292	
-0.401123	
-0.399719	
-0.400818	
-0.400513	
-0.400879	
-0.400879	
-0.400208	
-0.401672	
-0.401794	
-0.401611	
-0.400818	
-0.399292	
-0.400635	
-0.399536	
-0.401062	
-0.399292	
-0.400146	
-0.400146	
-0.399841	
-0.400452	
-0.400574	
-0.400208	
-0.399902	
-0.398743	
-0.399719	
-0.398926	
-0.400024	
-0.398987	
-0.399963	
-0.400391	
-0.399231	
-0.400696	
-0.400757	
-0.400269	
-0.399658	
-0.399963	
-0.399963	
-0.398865	
-0.400696	
-0.398804	
-0.400024	
-0.400085	
-0.400085	
-0.40033	
-0.400574	
-0.399719	
-0.398926	
-0.397827	
-0.398254	
-0.397217	
-0.397949	
-0.395996	
-0.3974	
-0.396301	
-0.396057	
-0.39679	
-0.396545	
-0.396545	
-0.395447	
-0.395142	
-0.394897	
-0.395386	
-0.396118	
-0.39447	
-0.395264	
-0.395691	
-0.396362	
-0.396484	
-0.396912	
-0.397217	
-0.396423	
-0.395874	
-0.39679	
-0.396912	
-0.39801	
-0.396545	
-0.398071	
-0.397888	
-0.398071	
-0.399963	
-0.399658	
-0.400574	
-0.39978	
-0.400024	
-0.400818	
-0.401123	
-0.402344	
-0.401367	
-0.402954	
-0.403259	
-0.403625	
-0.404724	
-0.405518	
-0.40509	
-0.40448	
-0.405212	
-0.404602	
-0.40509	
-0.405701	
-0.404297	
-0.405396	
-0.405762	
-0.405823	
-0.406921	
-0.405945	
-0.406189	
-0.40509	
-0.404663	
-0.404907	
-0.404968	
-0.404419	
-0.402893	
-0.403809	
-0.403625	
-0.403442	
-0.403503	
-0.402222	
-0.401855	
-0.400513	
-0.400574	
-0.399231	
-0.399048	
-0.39917	
-0.398926	
-0.398743	
-0.39856	
-0.39917	
-0.399475	
-0.398254	
-0.398865	
-0.39801	
-0.397583	
-0.397583	
-0.398193	
-0.398071	
-0.397949	
-0.39801	
-0.397522	
-0.398071	
-0.398743	
-0.398499	
-0.398804	
-0.397644	
-0.398743	
-0.398315	
-0.398621	
-0.399292	
-0.399353	
-0.398804	
-0.398804	
-0.39856	
-0.399414	
-0.399109	
-0.399048	
-0.398987	
-0.399414	
-0.398621	
-0.399475	
-0.399231	
-0.399109	
-0.398926	
-0.39856	
-0.399597	
-0.399597	
-0.400085	
-0.399658	
-0.398926	
-0.399475	
-0.398865	
-0.399475	
-0.400146	
-0.399475	
-0.399597	
-0.399597	
-0.400391	
-0.400208	
-0.400146	
-0.39978	
-0.399292	
-0.399658	
-0.398315	
-0.399353	
-0.399475	
-0.398804	
-0.398315	
-0.3974	
-0.398071	
-0.398499	
-0.398132	
-0.3974	
-0.396606	
-0.397644	
-0.395996	
-0.396362	
-0.396362	
-0.396973	
-0.396362	
-0.395447	
-0.396484	
-0.3974	
-0.396912	
-0.395935	
-0.395569	
-0.395325	
-0.395386	
-0.395935	
-0.395447	
-0.39624	
-0.395874	
-0.395325	
-0.396423	
-0.396362	
-0.396912	
-0.39624	
-0.395813	
-0.395691	
-0.396057	
-0.396484	
-0.395203	
-0.395874	
-0.395996	
-0.395386	
-0.396362	
-0.39679	
-0.397034	
-0.39624	
-0.395996	
-0.396301	
-0.396118	
-0.396851	
-0.396484	
-0.397217	
-0.397522	
-0.397217	
-0.397827	
-0.398621	
-0.399536	
-0.398926	
-0.398865	
-0.399414	
-0.40033	
-0.400879	
-0.400391	
-0.401123	
-0.401062	
-0.400452	
-0.401489	
-0.402405	
-0.402588	
-0.401245	
-0.401733	
-0.401245	
-0.401306	
-0.401367	
-0.400696	
-0.401245	
-0.400513	
-0.400269	
-0.400146	
-0.400696	
-0.40094	
-0.399902	
-0.398926	
-0.398499	
-0.398071	
-0.398499	
-0.396362	
-0.396301	
-0.396362	
-0.395142	
-0.395508	
-0.39563	
-0.396484	
-0.394958	
-0.394653	
-0.394165	
-0.394531	
-0.394409	
-0.393494	
-0.393982	
-0.394348	
-0.393433	
-0.394043	
-0.39447	
-0.395325	
-0.393921	
-0.393982	
-0.393311	
-0.394043	
-0.394104	
-0.393372	
-0.394104	
-0.393494	
-0.393311	
-0.394897	
-0.395386	
-0.396301	
-0.395203	
-0.39502	
-0.39502	
-0.395325	
-0.395752	
-0.394165	
-0.395386	
-0.395081	
-0.395447	
-0.39624	
-0.396118	
-0.397583	
-0.396729	
-0.395691	
-0.396423	
-0.396729	
-0.397949	
-0.396179	
-0.397339	
-0.396912	
-0.396179	
-0.397705	
-0.397705	
-0.398743	
-0.397095	
-0.397278	
-0.396545	
-0.397339	
-0.397949	
-0.396423	
-0.396973	
-0.397095	
-0.395691	
-0.396667	
-0.396545	
-0.397644	
-0.395691	
-0.395081	
-0.39502	
-0.395142	
-0.395447	
-0.394043	
-0.394836	
-0.394592	
-0.394775	
-0.395081	
-0.394775	
-0.395752	
-0.394348	
-0.39447	
-0.394714	
-0.394836	
-0.39563	
-0.395081	
-0.395569	
-0.395203	
-0.394592	
-0.395935	
-0.395935	
-0.397095	
-0.395081	
-0.395325	
-0.394775	
-0.394897	
-0.395386	
-0.394165	
-0.395691	
-0.394775	
-0.395081	
-0.395935	
-0.394714	
-0.396606	
-0.394836	
-0.395264	
-0.394409	
-0.394836	
-0.395569	
-0.39386	
-0.394592	
-0.394958	
-0.394348	
-0.395447	
-0.395691	
-0.397461	
-0.396179	
-0.396729	
-0.396667	
-0.397156	
-0.398132	
-0.396912	
-0.398132	
-0.398254	
-0.398621	
-0.399841	
-0.399658	
-0.400391	
-0.398865	
-0.400146	
-0.399048	
-0.399048	
-0.39978	
-0.399048	
-0.39856	
-0.398315	
-0.398254	
-0.398865	
-0.398315	
-0.39917	
-0.397156	
-0.397705	
-0.396484	
-0.395935	
-0.397339	
-0.395874	
-0.395752	
-0.395081	
-0.395264	
-0.395569	
-0.394348	
-0.395508	
-0.393433	
-0.39386	
-0.392517	
-0.391846	
-0.391907	
-0.390991	
-0.39032	
-0.389832	
-0.389832	
-0.389954	
-0.389282	
-0.390503	
-0.388916	
-0.389282	
-0.388062	
-0.388184	
-0.388367	
-0.388489	
-0.388367	
-0.387817	
-0.388611	
-0.389465	
-0.388611	
-0.389954	
-0.388611	
-0.390259	
-0.388977	
-0.388672	
-0.39032	
-0.389893	
-0.390686	
-0.391113	
-0.392639	
-0.392944	
-0.393005	
-0.394775	
-0.393921	
-0.393677	
-0.393555	
-0.394348	
-0.395142	
-0.394165	
-0.394531	
-0.394775	
-0.395142	
-0.395142	
-0.394958	
-0.396362	
-0.395081	
-0.395203	
-0.394897	
-0.394104	
-0.395386	
-0.395081	
-0.395691	
-0.394836	
-0.394897	
-0.394958	
-0.394836	
-0.395935	
-0.394775	
-0.39502	
-0.39447	
-0.393738	
-0.395325	
-0.394653	
-0.394226	
-0.394165	
-0.394287	
-0.395752	
-0.394775	
-0.395203	
-0.394165	
-0.394531	
-0.393616	
-0.392883	
-0.39325	
-0.393555	
-0.393433	
-0.392944	
-0.393921	
-0.393494	
-0.393677	
-0.394409	
-0.393311	
-0.392944	
-0.392883	
-0.392578	
-0.393127	
-0.393188	
-0.393372	
-0.392273	
-0.393433	
-0.394409	
-0.393738	
-0.393982	
-0.393433	
-0.394409	
-0.393616	
-0.393311	
-0.39447	
-0.394775	
-0.394775	
-0.395264	
-0.39563	
-0.395447	
-0.395264	
-0.396362	
-0.395996	
-0.395447	
-0.395813	
-0.394409	
-0.395325	
-0.395264	
-0.395813	
-0.396362	
-0.396179	
-0.397034	
-0.396484	
-0.396912	
-0.396667	
-0.39624	
-0.396484	
-0.395996	
-0.396484	
-0.396545	
-0.396118	
-0.396545	
-0.396484	
-0.396729	
-0.396179	
-0.396729	
-0.397583	
-0.396057	
-0.396362	
-0.394836	
-0.395874	
-0.395386	
-0.395386	
-0.395752	
-0.395874	
-0.395996	
-0.395569	
-0.396179	
-0.396301	
-0.39447	
-0.395264	
-0.39386	
-0.394592	
-0.394348	
-0.394226	
-0.394104	
-0.39386	
-0.393799	
-0.393311	
-0.393555	
-0.392212	
-0.391052	
-0.390808	
-0.390198	
-0.390381	
-0.390259	
-0.389221	
-0.390198	
-0.39032	
-0.390808	
-0.390503	
-0.390991	
-0.391052	
-0.389832	
-0.390686	
-0.389343	
-0.390625	
-0.390442	
-0.390564	
-0.391296	
-0.391663	
-0.392334	
-0.392334	
-0.393494	
-0.393494	
-0.393127	
-0.393738	
-0.394226	
-0.395447	
-0.394958	
-0.395142	
-0.396362	
-0.396851	
-0.397583	
-0.397034	
-0.397949	
-0.397217	
-0.396729	
-0.397339	
-0.396912	
-0.397461	
-0.39624	
-0.396484	
-0.397583	
-0.397705	
-0.397705	
-0.397705	
-0.398438	
-0.398376	
-0.396851	
-0.397705	
-0.39679	
-0.3974	
-0.39624	
-0.39624	
-0.396912	
-0.397156	
-0.397949	
-0.397644	
-0.397766	
-0.39679	
-0.396729	
-0.397156	
-0.395935	
-0.396423	
-0.395752	
-0.394165	
-0.395264	
-0.394897	
-0.395142	
-0.394775	
-0.395569	
-0.395386	
-0.393738	
-0.394775	
-0.393921	
-0.394043	
-0.393921	
-0.393555	
-0.394592	
-0.394287	
-0.394592	
-0.39447	
-0.39502	
-0.394409	
-0.394836	
-0.396057	
-0.394531	
-0.394775	
-0.39447	
-0.394714	
-0.395386	
-0.395203	
-0.39624	
-0.39624	
-0.396912	
-0.396912	
-0.39563	
-0.397339	
-0.396057	
-0.396851	
-0.39624	
-0.396851	
-0.39679	
	
