E:\DOCUMENTS AND SETTINGS\JPOTAS\MEUS DOCUMENTOS\UFRJ\RSCI-BM 12 WK SERIES\070730-RSCI-BM-09\RSCI-BM-09-LEMG\070730-RSCI-BM-09-LEMG-0012.ACQ
0.025000 msec/sample
1 channel
Analog input
Volts
CH1	
2000	
-0.404358	
-0.404175	
-0.403625	
-0.403137	
-0.404846	
-0.403687	
-0.403442	
-0.403259	
-0.403442	
-0.403625	
-0.403076	
-0.403931	
-0.403748	
-0.4021	
-0.403198	
-0.403381	
-0.403381	
-0.403503	
-0.403198	
-0.403442	
-0.403381	
-0.404846	
-0.404236	
-0.405212	
-0.404846	
-0.404236	
-0.405212	
-0.406128	
-0.404663	
-0.406433	
-0.405334	
-0.405701	
-0.406677	
-0.407471	
-0.407104	
-0.407715	
-0.40863	
-0.408508	
-0.408508	
-0.40863	
-0.408386	
-0.407898	
-0.40918	
-0.408325	
-0.408875	
-0.408203	
-0.409241	
-0.408691	
-0.408447	
-0.408386	
-0.409119	
-0.40863	
-0.408264	
-0.408264	
-0.409302	
-0.408081	
-0.408691	
-0.408813	
-0.409424	
-0.408447	
-0.407898	
-0.407898	
-0.407715	
-0.407654	
-0.408081	
-0.40686	
-0.406616	
-0.406921	
-0.407043	
-0.406921	
-0.405945	
-0.406372	
-0.406189	
-0.40625	
-0.40448	
-0.406189	
-0.405273	
-0.403992	
-0.40448	
-0.404663	
-0.403442	
-0.403992	
-0.404114	
-0.404114	
-0.403931	
-0.403809	
-0.40332	
-0.403931	
-0.403992	
-0.402893	
-0.403442	
-0.403442	
-0.402405	
-0.403503	
-0.403992	
-0.403442	
-0.403503	
-0.403809	
-0.404053	
-0.403931	
-0.404968	
-0.404663	
-0.404968	
-0.404846	
-0.405579	
-0.405273	
-0.405518	
-0.406006	
-0.405396	
-0.405823	
-0.406433	
-0.405762	
-0.405823	
-0.406982	
-0.404968	
-0.405762	
-0.405884	
-0.405273	
-0.405701	
-0.406555	
-0.405579	
-0.406311	
-0.406555	
-0.405273	
-0.406128	
-0.406433	
-0.405151	
-0.405457	
-0.404907	
-0.40448	
-0.404236	
-0.405151	
-0.403992	
-0.404114	
-0.403931	
-0.404053	
-0.404175	
-0.404053	
-0.404114	
-0.404907	
-0.404419	
-0.404419	
-0.404175	
-0.404663	
-0.404907	
-0.404358	
-0.404114	
-0.404724	
-0.404785	
-0.405029	
-0.405273	
-0.405457	
-0.405823	
-0.405823	
-0.406372	
-0.40564	
-0.407288	
-0.406616	
-0.406921	
-0.406799	
-0.407349	
-0.407349	
-0.408325	
-0.407166	
-0.408203	
-0.407166	
-0.407959	
-0.406982	
-0.407715	
-0.40686	
-0.406921	
-0.406799	
-0.406921	
-0.406982	
-0.407837	
-0.407043	
-0.406006	
-0.407104	
-0.406311	
-0.407043	
-0.407532	
-0.407043	
-0.40625	
-0.40741	
-0.406372	
-0.408447	
-0.407837	
-0.407776	
-0.40741	
-0.408264	
-0.406372	
-0.407715	
-0.407349	
-0.406372	
-0.406677	
-0.406738	
-0.406189	
-0.398743	
-0.383179	
-0.382324	
-0.381714	
-0.381409	
-0.382935	
-0.393494	
-0.406677	
-0.408508	
-0.40802	
-0.406372	
-0.406738	
-0.407104	
-0.407104	
-0.406799	
-0.405518	
-0.405579	
-0.406128	
-0.40564	
-0.40564	
-0.406189	
-0.405212	
-0.405518	
-0.405945	
-0.406555	
-0.407349	
-0.406677	
-0.406006	
-0.406433	
-0.405151	
-0.405945	
-0.406677	
-0.406128	
-0.406006	
-0.404663	
-0.405579	
-0.404785	
-0.406128	
-0.405762	
-0.405273	
-0.405396	
-0.404541	
-0.405273	
-0.40625	
-0.406311	
-0.405945	
-0.405273	
-0.404724	
-0.405334	
-0.406372	
-0.406372	
-0.406738	
-0.40564	
-0.405151	
-0.405212	
-0.406555	
-0.405212	
-0.40564	
-0.405029	
-0.404663	
-0.404907	
-0.405518	
-0.406738	
-0.407532	
-0.407776	
-0.409119	
-0.411926	
-0.41626	
-0.420837	
-0.425171	
-0.430176	
-0.435608	
-0.442078	
-0.450378	
-0.459595	
-0.466736	
-0.473206	
-0.478516	
-0.483215	
-0.488281	
-0.48291	
-0.469604	
-0.468933	
-0.469604	
-0.470032	
-0.470825	
-0.481506	
-0.494324	
-0.496033	
-0.495056	
-0.494446	
-0.49646	
-0.497131	
-0.496826	
-0.497559	
-0.496033	
-0.498291	
-0.499084	
-0.499939	
-0.49939	
-0.499451	
-0.498596	
-0.497314	
-0.497681	
-0.496948	
-0.495483	
-0.494934	
-0.493408	
-0.49408	
-0.493958	
-0.494751	
-0.493591	
-0.492798	
-0.492249	
-0.491089	
-0.491577	
-0.490784	
-0.489136	
-0.488342	
-0.486267	
-0.487488	
-0.486633	
-0.486877	
-0.48468	
-0.483276	
-0.481689	
-0.478882	
-0.478333	
-0.475525	
-0.47229	
-0.469543	
-0.466187	
-0.465149	
-0.462585	
-0.462219	
-0.459412	
-0.457825	
-0.455933	
-0.455261	
-0.455383	
-0.454163	
-0.453491	
-0.452698	
-0.451721	
-0.452942	
-0.452698	
-0.453857	
-0.452087	
-0.451965	
-0.450989	
-0.450195	
-0.452515	
-0.451965	
-0.451355	
-0.449951	
-0.449158	
-0.448608	
-0.448181	
-0.447571	
-0.444214	
-0.441345	
-0.438293	
-0.435059	
-0.433655	
-0.430542	
-0.427734	
-0.423401	
-0.418396	
-0.416138	
-0.411621	
-0.406738	
-0.401001	
-0.394775	
-0.387817	
-0.380432	
-0.375732	
-0.371155	
-0.365784	
-0.360901	
-0.355835	
-0.352478	
-0.348572	
-0.34613	
-0.344299	
-0.340942	
-0.338989	
-0.337402	
-0.337463	
-0.338623	
-0.338623	
-0.340881	
-0.342468	
-0.346252	
-0.349121	
-0.352478	
-0.356628	
-0.359131	
-0.362793	
-0.365845	
-0.36969	
-0.372498	
-0.374878	
-0.377686	
-0.379761	
-0.381714	
-0.383545	
-0.38623	
-0.386963	
-0.388672	
-0.389709	
-0.390381	
-0.392822	
-0.393433	
-0.393677	
-0.394043	
-0.393738	
-0.394653	
-0.394836	
-0.395508	
-0.394897	
-0.395325	
-0.395447	
-0.394592	
-0.39679	
-0.397217	
-0.397888	
-0.398132	
-0.398315	
-0.399109	
-0.399475	
-0.400391	
-0.398071	
-0.396545	
-0.394836	
-0.394165	
-0.393066	
-0.392029	
-0.390381	
-0.39032	
-0.388123	
-0.388977	
-0.389343	
-0.38916	
-0.390076	
-0.390442	
-0.390869	
-0.391296	
-0.392395	
-0.391907	
-0.391296	
-0.391541	
-0.38916	
-0.388733	
-0.386963	
-0.384277	
-0.381531	
-0.377502	
-0.373108	
-0.369202	
-0.364563	
-0.358337	
-0.351807	
-0.34613	
-0.339294	
-0.334351	
-0.328552	
-0.323547	
-0.318237	
-0.313171	
-0.308838	
-0.304077	
-0.301636	
-0.296997	
-0.292908	
-0.292053	
-0.290405	
-0.289673	
-0.289246	
-0.287598	
-0.287842	
-0.287537	
-0.288574	
-0.288391	
-0.288818	
-0.287903	
-0.288452	
-0.289124	
-0.289429	
-0.290344	
-0.291504	
-0.290833	
-0.292358	
-0.29364	
-0.295044	
-0.296936	
-0.29834	
-0.300415	
-0.302368	
-0.30542	
-0.307922	
-0.311035	
-0.313477	
-0.316162	
-0.319458	
-0.322205	
-0.325562	
-0.328552	
-0.331665	
-0.334656	
-0.337097	
-0.340271	
-0.343384	
-0.34552	
-0.346191	
-0.350037	
-0.350525	
-0.352478	
-0.354614	
-0.35553	
-0.357117	
-0.358154	
-0.35907	
-0.360352	
-0.361572	
-0.361938	
-0.363159	
-0.363342	
-0.363953	
-0.365173	
-0.367188	
-0.36731	
-0.368469	
-0.369019	
-0.370361	
-0.370972	
-0.371948	
-0.372375	
-0.372986	
-0.37262	
-0.374084	
-0.37439	
-0.375916	
-0.376282	
-0.377197	
-0.377625	
-0.378784	
-0.3797	
-0.379944	
-0.38031	
-0.380249	
-0.380615	
-0.380554	
-0.381287	
-0.381531	
-0.381592	
-0.381104	
-0.380859	
-0.38147	
-0.382141	
-0.381165	
-0.380554	
-0.379822	
-0.38092	
-0.380493	
-0.38147	
-0.381897	
-0.381287	
-0.381897	
-0.381836	
-0.382874	
-0.383484	
-0.383179	
-0.382507	
-0.381714	
-0.382935	
-0.383362	
-0.383179	
-0.384094	
-0.384033	
-0.384094	
-0.383545	
-0.384521	
-0.385193	
-0.385864	
-0.385193	
-0.383728	
-0.385742	
-0.386597	
-0.387207	
-0.387695	
-0.387634	
-0.387329	
-0.387817	
-0.389832	
-0.38855	
-0.387878	
-0.38739	
-0.387878	
-0.388306	
-0.387817	
-0.388733	
-0.38916	
-0.388855	
-0.388855	
-0.390015	
-0.390747	
-0.38916	
-0.388794	
-0.388672	
-0.389099	
-0.388977	
-0.38855	
-0.389099	
-0.388489	
-0.388855	
-0.388916	
-0.389893	
-0.388489	
-0.387756	
-0.387756	
-0.388184	
-0.388184	
-0.388245	
-0.388733	
-0.388611	
-0.388184	
-0.388245	
-0.38916	
-0.388306	
-0.387756	
-0.387024	
-0.387085	
-0.387634	
-0.387634	
-0.387939	
-0.387695	
-0.387756	
-0.38739	
-0.388672	
-0.388672	
-0.387634	
-0.387451	
-0.387817	
-0.388367	
-0.388245	
-0.388306	
-0.388855	
-0.388672	
-0.389404	
-0.390137	
-0.390625	
-0.390076	
-0.390381	
-0.390381	
-0.389832	
-0.391663	
-0.391357	
-0.392334	
-0.391113	
-0.392822	
-0.393372	
-0.39209	
-0.393005	
-0.3927	
-0.392822	
-0.391174	
-0.393127	
-0.393372	
-0.393555	
-0.394043	
-0.39325	
-0.393982	
-0.39325	
-0.394165	
-0.393127	
-0.392822	
-0.3927	
-0.389343	
-0.392761	
-0.392822	
-0.393188	
-0.393921	
-0.392944	
-0.39386	
-0.393921	
-0.394592	
-0.392944	
-0.393677	
-0.393616	
-0.392273	
-0.395081	
-0.394775	
-0.395325	
-0.395752	
-0.395813	
-0.396179	
-0.395447	
-0.397278	
-0.39624	
-0.396545	
-0.395691	
-0.396362	
-0.398254	
-0.39856	
-0.398987	
-0.399414	
-0.40033	
-0.399841	
-0.399719	
-0.400635	
-0.399963	
-0.400024	
-0.399475	
-0.399475	
-0.400879	
-0.401184	
-0.401245	
-0.401001	
-0.400818	
-0.400635	
-0.401428	
-0.401611	
-0.400635	
-0.400452	
-0.400574	
-0.400146	
-0.40094	
-0.400879	
-0.401489	
-0.40094	
-0.400574	
-0.400513	
-0.400208	
-0.399841	
-0.399597	
-0.398315	
-0.399597	
-0.39856	
-0.399963	
-0.399841	
-0.400513	
-0.399719	
-0.399048	
-0.399231	
-0.398743	
-0.39978	
-0.398315	
-0.397522	
-0.397766	
-0.397827	
-0.398193	
-0.39801	
-0.398682	
-0.397217	
-0.397217	
-0.397339	
-0.397644	
-0.397461	
-0.396118	
-0.396973	
-0.395935	
-0.396729	
-0.397034	
-0.397766	
-0.397827	
-0.397217	
-0.3974	
-0.396851	
-0.397827	
-0.398438	
-0.3974	
-0.398315	
-0.3974	
-0.398804	
-0.39917	
-0.399719	
-0.398926	
-0.399292	
-0.400024	
-0.399231	
-0.399902	
-0.399414	
-0.400269	
-0.399475	
-0.397766	
-0.39978	
-0.400269	
-0.400635	
-0.400269	
-0.399658	
-0.400085	
-0.400391	
-0.400574	
-0.398987	
-0.399902	
-0.39978	
-0.398193	
-0.399902	
-0.399902	
-0.39917	
-0.398621	
-0.399109	
-0.398376	
-0.398254	
-0.398987	
-0.398682	
-0.39856	
-0.397888	
-0.396729	
-0.39801	
-0.399414	
-0.398743	
-0.398743	
-0.399414	
-0.398071	
-0.398926	
-0.398987	
-0.399841	
-0.398926	
-0.399414	
-0.398438	
-0.399841	
-0.400269	
-0.400085	
-0.400757	
-0.400635	
-0.400452	
-0.401184	
-0.40094	
-0.401855	
-0.401428	
-0.401855	
-0.400818	
-0.400635	
-0.402466	
-0.401672	
-0.401978	
-0.400879	
-0.400452	
-0.401062	
-0.40094	
-0.401733	
-0.401123	
-0.401428	
-0.400452	
-0.400696	
-0.4021	
-0.401428	
-0.401611	
-0.40033	
-0.400818	
-0.400879	
-0.4021	
-0.402405	
-0.402588	
-0.401855	
-0.40155	
-0.4021	
-0.402832	
-0.402222	
-0.402771	
-0.401001	
-0.401733	
-0.401306	
-0.401978	
-0.401611	
-0.401245	
-0.400574	
-0.399658	
-0.401001	
-0.401306	
-0.400574	
-0.400452	
-0.399353	
-0.399475	
-0.399353	
-0.399536	
-0.399292	
-0.399963	
-0.398804	
-0.398315	
-0.399475	
-0.399902	
-0.398865	
-0.398315	
-0.39801	
-0.398621	
-0.397461	
-0.399719	
-0.399902	
-0.400391	
-0.39978	
-0.399231	
-0.40094	
-0.400269	
-0.400208	
-0.399841	
-0.399048	
-0.399658	
-0.398926	
-0.400024	
-0.399536	
-0.400757	
-0.399109	
-0.399231	
-0.400574	
-0.399963	
-0.399841	
-0.399597	
-0.399353	
-0.39917	
-0.398865	
-0.399902	
-0.399353	
-0.39978	
-0.399231	
-0.397827	
-0.399292	
-0.396912	
-0.398254	
-0.397095	
-0.396179	
-0.396912	
-0.396545	
-0.397461	
-0.396606	
-0.396912	
-0.397034	
-0.395996	
-0.397705	
-0.39679	
-0.397461	
-0.396118	
-0.396606	
-0.396606	
-0.396912	
-0.398071	
-0.397461	
-0.397522	
-0.397705	
-0.397461	
-0.398926	
-0.39856	
-0.399536	
-0.398376	
-0.398743	
-0.39978	
-0.399414	
-0.400574	
-0.40033	
-0.400574	
-0.401794	
-0.40033	
-0.401672	
-0.401001	
-0.401733	
-0.400085	
-0.400208	
-0.401611	
-0.4021	
-0.402466	
-0.402039	
-0.402527	
-0.403076	
-0.402588	
-0.40271	
-0.402771	
-0.402771	
-0.402283	
-0.403198	
-0.403442	
-0.403625	
-0.403992	
-0.404114	
-0.40387	
-0.404236	
-0.404236	
-0.405151	
-0.403564	
-0.403259	
-0.402466	
-0.402649	
-0.403015	
-0.402832	
-0.402649	
-0.402039	
-0.401306	
-0.401001	
-0.401794	
-0.401489	
-0.400391	
-0.401062	
-0.399658	
-0.399719	
-0.399536	
-0.399475	
-0.399292	
-0.39978	
-0.398987	
-0.399475	
-0.400635	
-0.400635	
-0.39978	
-0.399963	
-0.398804	
-0.399048	
-0.399353	
-0.399536	
-0.399841	
-0.401001	
-0.400269	
-0.400146	
-0.401123	
-0.401855	
-0.400635	
-0.401306	
-0.39917	
-0.399597	
-0.399902	
-0.39978	
-0.399963	
-0.400879	
-0.399719	
-0.399719	
-0.399475	
-0.401123	
-0.399048	
-0.399231	
-0.397644	
-0.3974	
-0.397583	
-0.397339	
-0.397827	
-0.398071	
-0.397278	
-0.397217	
-0.397156	
-0.396973	
-0.396606	
-0.395752	
-0.395081	
-0.393555	
-0.394287	
-0.394714	
-0.394348	
-0.394958	
-0.394348	
-0.394043	
-0.394226	
-0.394653	
-0.394714	
-0.394653	
-0.39447	
-0.391724	
-0.394165	
-0.394592	
-0.394775	
-0.395081	
-0.394226	
-0.394714	
-0.39447	
-0.394836	
-0.395325	
-0.395142	
-0.395508	
-0.393494	
-0.395386	
-0.395874	
-0.396301	
-0.396545	
-0.396667	
-0.396484	
-0.396423	
-0.397095	
-0.398865	
-0.396912	
-0.396729	
-0.395813	
-0.396484	
-0.397705	
-0.397888	
-0.398193	
-0.399231	
-0.398315	
-0.398315	
-0.398987	
-0.400024	
-0.398804	
-0.398804	
-0.397705	
-0.397888	
-0.39978	
-0.399536	
-0.399902	
-0.400452	
-0.400269	
-0.400452	
-0.401001	
-0.401672	
-0.400024	
-0.399902	
-0.398132	
-0.398315	
-0.398987	
-0.398254	
-0.398865	
-0.398438	
-0.397766	
-0.397278	
-0.397522	
-0.398254	
-0.397949	
-0.397522	
-0.395569	
-0.397095	
-0.397522	
-0.396973	
-0.396851	
-0.396973	
-0.396912	
-0.396667	
-0.397278	
-0.398621	
-0.398071	
-0.397034	
-0.396973	
-0.395874	
-0.397156	
-0.397339	
-0.397461	
-0.397949	
-0.398865	
-0.398743	
-0.398499	
-0.39978	
-0.398499	
-0.398438	
-0.398071	
-0.397949	
-0.398071	
-0.399109	
-0.399048	
-0.399231	
-0.399292	
-0.398254	
-0.39856	
-0.399719	
-0.398315	
-0.398315	
-0.39801	
-0.397339	
-0.397827	
-0.398376	
-0.398132	
-0.397888	
-0.398438	
-0.3974	
-0.397339	
-0.398071	
-0.396118	
-0.396423	
-0.395447	
-0.394653	
-0.395386	
-0.395569	
-0.395508	
-0.395508	
-0.395447	
-0.394836	
-0.394958	
-0.396362	
-0.394531	
-0.396301	
-0.39502	
-0.394043	
-0.395508	
-0.394409	
-0.39502	
-0.395447	
-0.395752	
-0.395386	
-0.395569	
-0.395996	
-0.394409	
-0.395264	
-0.394592	
-0.393677	
-0.394958	
-0.394348	
-0.394653	
-0.394775	
-0.394897	
-0.395203	
-0.395081	
-0.396118	
-0.395935	
-0.394958	
-0.395447	
-0.393555	
-0.395508	
-0.395386	
-0.395996	
-0.396362	
-0.396484	
-0.397278	
-0.397095	
-0.397766	
-0.397949	
-0.397339	
-0.397583	
-0.396118	
-0.396973	
-0.397888	
-0.39679	
-0.398315	
-0.398926	
-0.399353	
-0.39856	
-0.399536	
-0.398743	
-0.398315	
-0.398376	
-0.395874	
-0.396423	
-0.397095	
-0.397156	
-0.397339	
-0.397095	
-0.397278	
-0.396851	
-0.397217	
-0.396729	
-0.395874	
-0.396912	
-0.395386	
-0.396667	
-0.396729	
-0.396606	
-0.397156	
-0.397278	
-0.397217	
-0.396973	
-0.397827	
-0.397034	
-0.3974	
-0.396912	
-0.395996	
-0.397217	
-0.397583	
-0.397705	
-0.3974	
-0.398926	
-0.39917	
-0.399841	
-0.399536	
-0.399109	
-0.399658	
-0.399475	
-0.398621	
-0.399658	
-0.399048	
-0.399719	
-0.399109	
-0.399841	
-0.399963	
-0.400757	
-0.400146	
-0.399536	
-0.399414	
-0.398438	
-0.397827	
-0.39978	
-0.39801	
-0.398804	
-0.39856	
-0.398132	
-0.397766	
-0.397705	
-0.3974	
-0.39679	
-0.396484	
-0.395325	
-0.394653	
-0.396423	
-0.395142	
-0.395386	
-0.395569	
-0.394653	
-0.395142	
-0.395142	
-0.395569	
-0.394653	
-0.394104	
-0.394653	
-0.392578	
-0.394043	
-0.393799	
-0.393188	
-0.393616	
-0.392883	
-0.392761	
-0.392883	
-0.39386	
-0.392944	
-0.392395	
-0.392517	
-0.39093	
-0.392395	
-0.392639	
-0.39209	
-0.392273	
-0.3927	
-0.391785	
-0.392944	
-0.393433	
-0.393799	
-0.393433	
-0.393799	
-0.392334	
-0.394592	
-0.395081	
-0.39386	
-0.394897	
-0.394958	
-0.394836	
-0.395752	
-0.396667	
-0.396301	
-0.395935	
-0.396484	
-0.394531	
-0.396362	
-0.396179	
-0.39624	
-0.396484	
-0.396484	
-0.396179	
-0.396484	
-0.396912	
-0.398071	
-0.39624	
-0.395874	
-0.395325	
-0.39563	
-0.395142	
-0.39563	
-0.394653	
-0.395081	
-0.394653	
-0.394775	
-0.395569	
-0.396362	
-0.395081	
-0.395569	
-0.395142	
-0.393982	
-0.395264	
-0.395569	
-0.395386	
-0.396423	
-0.396606	
-0.396179	
-0.397217	
-0.397827	
-0.397156	
-0.396973	
-0.396545	
-0.396973	
-0.397705	
-0.39856	
-0.398804	
-0.399231	
-0.399719	
-0.399902	
-0.400391	
-0.401306	
-0.40094	
-0.400024	
-0.399658	
-0.400452	
-0.400635	
-0.400696	
-0.400879	
-0.40033	
-0.400146	
-0.400452	
-0.399536	
-0.400452	
-0.400696	
-0.40033	
-0.400024	
-0.399597	
-0.399231	
-0.400635	
-0.400452	
-0.400757	
-0.399963	
-0.399597	
-0.399109	
-0.40033	
-0.399109	
-0.398926	
-0.398438	
-0.397644	
-0.398254	
-0.398254	
-0.398132	
-0.397034	
-0.397888	
-0.397705	
-0.397156	
-0.397461	
-0.397278	
-0.397705	
-0.39624	
-0.395996	
-0.396179	
-0.395813	
-0.395752	
-0.395142	
-0.395996	
-0.395386	
-0.395264	
-0.395874	
-0.39502	
-0.395325	
-0.394592	
-0.39386	
-0.395203	
-0.39325	
-0.394592	
-0.394775	
-0.39502	
-0.394714	
-0.395325	
-0.396301	
-0.394836	
-0.39563	
-0.39563	
-0.395508	
-0.397583	
-0.395813	
-0.395996	
-0.396301	
-0.395752	
-0.397217	
-0.396362	
-0.397339	
-0.397156	
-0.396362	
-0.397156	
-0.395813	
-0.397766	
-0.396912	
-0.396973	
-0.396851	
-0.396057	
-0.397339	
-0.397583	
-0.397705	
-0.397644	
-0.39679	
-0.397278	
-0.395935	
-0.396973	
-0.396545	
-0.39624	
-0.395569	
-0.39502	
-0.395142	
-0.395874	
-0.395264	
-0.396912	
-0.395203	
-0.395508	
-0.394592	
-0.395691	
-0.395569	
-0.394287	
-0.395569	
-0.394775	
-0.395203	
-0.396057	
-0.396057	
-0.396606	
-0.395874	
-0.39563	
-0.395691	
-0.395386	
-0.397278	
-0.395813	
-0.397034	
-0.396912	
-0.397644	
-0.397827	
-0.398621	
-0.398376	
-0.398132	
-0.397949	
-0.397644	
-0.397522	
-0.398804	
-0.397888	
-0.397949	
-0.397766	
-0.397949	
-0.398254	
-0.398499	
-0.398132	
-0.398071	
-0.397461	
-0.397644	
-0.3974	
-0.398071	
-0.397522	
-0.396912	
-0.397705	
-0.3974	
-0.397522	
-0.397949	
-0.399231	
-0.398438	
-0.397888	
-0.397827	
-0.3974	
-0.398804	
-0.397766	
-0.397522	
-0.397705	
-0.397583	
-0.3974	
-0.397034	
-0.397888	
-0.39801	
-0.396851	
-0.396057	
-0.395813	
-0.396301	
-0.395386	
-0.39502	
-0.394592	
-0.393982	
-0.39447	
-0.394775	
-0.39563	
-0.395813	
-0.394775	
-0.394226	
-0.394531	
-0.393494	
-0.393921	
-0.393616	
-0.393616	
-0.392822	
-0.394104	
-0.394714	
-0.395325	
-0.395203	
-0.395081	
-0.395325	
-0.394653	
-0.393616	
-0.395691	
-0.394897	
-0.394836	
-0.394165	
-0.395142	
-0.39502	
-0.39502	
-0.39502	
-0.395325	
-0.394165	
-0.393005	
-0.394226	
-0.395081	
-0.393799	
-0.393982	
-0.394104	
-0.393799	
-0.393677	
-0.394226	
-0.39447	
-0.395203	
-0.393555	
-0.3927	
-0.393127	
-0.392517	
-0.391479	
-0.391602	
-0.391052	
-0.390808	
-0.390869	
-0.39093	
-0.390991	
-0.391846	
-0.390991	
-0.390076	
-0.391418	
-0.391235	
-0.391174	
-0.390869	
-0.390198	
-0.39032	
-0.391174	
-0.391296	
-0.392212	
-0.391541	
-0.392273	
-0.391663	
-0.392151	
-0.391785	
-0.392578	
-0.393066	
-0.392761	
-0.393311	
-0.393921	
-0.394165	
-0.39502	
-0.394531	
-0.394531	
-0.394836	
-0.395325	
-0.394897	
-0.395325	
-0.39502	
-0.395325	
-0.395447	
-0.395142	
-0.396057	
-0.396606	
-0.396057	
-0.396851	
-0.396545	
-0.396667	
-0.397217	
-0.396667	
-0.395752	
-0.396851	
-0.396362	
-0.396179	
-0.3974	
-0.398071	
-0.397339	
-0.397278	
-0.397278	
-0.39801	
-0.3974	
-0.39679	
-0.396301	
-0.395752	
-0.394714	
-0.395447	
-0.394592	
-0.394897	
-0.394348	
-0.394409	
-0.393127	
-0.393372	
-0.393372	
-0.393005	
-0.393616	
-0.391663	
-0.392517	
-0.392822	
-0.391968	
-0.392578	
-0.3927	
-0.393433	
-0.392395	
-0.391357	
-0.393188	
-0.3927	
-0.3927	
-0.392151	
-0.392334	
-0.392456	
-0.39209	
-0.393188	
-0.393127	
-0.393066	
-0.39325	
-0.392212	
-0.393616	
-0.392761	
-0.393494	
-0.393311	
-0.392212	
-0.391907	
-0.392883	
-0.392761	
-0.392029	
-0.391846	
-0.391357	
-0.391541	
-0.390991	
-0.391357	
-0.391235	
-0.391785	
-0.390259	
-0.389954	
-0.389893	
-0.389893	
-0.389832	
-0.389648	
-0.389526	
-0.388428	
-0.387939	
-0.387756	
-0.388489	
-0.387573	
-0.386963	
-0.385803	
-0.386536	
-0.385986	
-0.387817	
-0.387024	
-0.387085	
-0.386292	
-0.386475	
-0.386719	
-0.387573	
-0.386658	
-0.386963	
-0.386597	
-0.386536	
-0.385864	
-0.387573	
-0.386963	
-0.387756	
-0.386414	
-0.387329	
-0.387939	
-0.388977	
-0.388428	
-0.388245	
-0.387817	
-0.386414	
-0.388	
-0.388611	
-0.388184	
-0.389282	
-0.38855	
-0.387756	
-0.388794	
-0.388672	
-0.390137	
-0.390686	
-0.389404	
-0.389038	
-0.389832	
-0.39093	
-0.390442	
-0.390686	
-0.390259	
-0.390503	
-0.39093	
-0.390015	
-0.392395	
-0.391357	
-0.391174	
-0.391174	
-0.390625	
-0.391602	
-0.391724	
-0.392212	
-0.391968	
-0.390686	
-0.391663	
-0.391113	
-0.391785	
-0.39093	
-0.390198	
-0.389587	
-0.388672	
-0.389709	
-0.389465	
-0.389465	
-0.388916	
-0.388489	
-0.38855	
-0.387939	
-0.388733	
-0.389587	
-0.388916	
-0.388489	
-0.388306	
-0.387878	
-0.388489	
-0.389038	
-0.389099	
-0.387634	
-0.388306	
-0.388428	
-0.38916	
-0.390076	
-0.389282	
-0.388428	
-0.388367	
-0.388794	
-0.388855	
-0.389099	
-0.390015	
-0.388428	
-0.390076	
-0.389282	
-0.388367	
-0.389832	
-0.390747	
-0.390015	
-0.390259	
-0.389282	
-0.388916	
-0.389709	
-0.389709	
-0.389221	
-0.389343	
-0.388672	
-0.388062	
-0.389099	
-0.390381	
-0.389771	
-0.388916	
-0.38855	
-0.387817	
-0.388	
-0.387756	
-0.387512	
-0.387207	
-0.387207	
-0.386414	
-0.386841	
-0.387146	
-0.387878	
-0.387024	
-0.386414	
-0.385437	
-0.385986	
-0.386414	
-0.386902	
-0.386536	
-0.386536	
-0.386292	
-0.387085	
-0.387024	
-0.387817	
-0.386414	
-0.386841	
-0.387207	
-0.384583	
-0.386719	
-0.386902	
-0.386353	
-0.386597	
-0.386108	
-0.386414	
-0.386047	
-0.387024	
-0.387512	
-0.38623	
-0.38678	
-0.385742	
-0.386597	
-0.387146	
-0.385986	
-0.386475	
-0.386902	
-0.38739	
-0.387512	
-0.388306	
-0.389526	
-0.387878	
-0.38855	
-0.387146	
-0.388184	
-0.389343	
-0.388	
-0.389282	
-0.389099	
-0.388611	
-0.389893	
-0.390259	
-0.39093	
-0.390869	
-0.390442	
-0.390015	
-0.389343	
-0.391113	
-0.38916	
-0.389587	
-0.389343	
-0.388245	
-0.388855	
-0.389038	
-0.390076	
-0.388855	
-0.388916	
-0.388306	
-0.388306	
-0.388306	
-0.388062	
-0.388794	
-0.388855	
-0.388123	
-0.389038	
-0.389038	
-0.389832	
-0.389893	
-0.390137	
-0.388916	
-0.388	
-0.388977	
-0.387268	
-0.388977	
-0.388977	
-0.388855	
-0.389709	
-0.389709	
-0.390869	
-0.391541	
-0.391541	
-0.391235	
-0.390686	
-0.391113	
-0.391052	
-0.391846	
-0.391846	
-0.391724	
-0.391541	
-0.391541	
-0.391907	
-0.3927	
-0.392212	
-0.392456	
-0.391357	
-0.390442	
-0.390808	
-0.390686	
-0.391357	
-0.391174	
-0.390686	
-0.391174	
-0.390564	
-0.390808	
-0.391113	
-0.389832	
-0.389587	
-0.38855	
-0.388245	
-0.388733	
-0.388489	
-0.387939	
-0.387573	
-0.387878	
-0.387878	
-0.387878	
-0.389343	
-0.387573	
-0.388489	
-0.386536	
-0.386292	
-0.386475	
-0.386353	
-0.386292	
-0.385864	
-0.386047	
-0.386292	
-0.386169	
-0.387207	
-0.385193	
-0.38562	
-0.385498	
-0.382507	
-0.385193	
-0.384827	
-0.385193	
-0.385193	
-0.385498	
-0.38501	
-0.385498	
-0.386414	
-0.386047	
-0.385864	
-0.386536	
-0.384338	
-0.387573	
-0.386963	
-0.387573	
-0.387451	
-0.388062	
-0.388184	
-0.388611	
-0.389343	
-0.390686	
-0.389343	
-0.389465	
-0.388245	
-0.390747	
-0.389771	
-0.388794	
-0.389709	
-0.389893	
-0.389587	
-0.390076	
	
