E:\DOCUMENTS AND SETTINGS\JPOTAS\MEUS DOCUMENTOS\UFRJ\RSCI-BM 12 WK SERIES\070730-RSCI-BM-09\RSCI-BM-09-LEMG\070730-RSCI-BM-09-LEMG-0013.ACQ
0.025000 msec/sample
1 channel
Analog input
Volts
CH1	
2000	
-0.400452	
-0.400757	
-0.401123	
-0.400513	
-0.399658	
-0.399597	
-0.399719	
-0.397461	
-0.399048	
-0.399353	
-0.398987	
-0.398865	
-0.398987	
-0.399658	
-0.40033	
-0.400208	
-0.400269	
-0.399841	
-0.399719	
-0.399353	
-0.399963	
-0.400696	
-0.400513	
-0.400879	
-0.40094	
-0.401306	
-0.402222	
-0.402161	
-0.401672	
-0.401672	
-0.401855	
-0.40094	
-0.402466	
-0.402405	
-0.403076	
-0.403687	
-0.404663	
-0.404724	
-0.405334	
-0.40625	
-0.406738	
-0.405945	
-0.405823	
-0.406128	
-0.406799	
-0.407288	
-0.407288	
-0.407654	
-0.407776	
-0.408081	
-0.409241	
-0.409363	
-0.409546	
-0.409241	
-0.408936	
-0.408813	
-0.409424	
-0.408752	
-0.409302	
-0.409546	
-0.409607	
-0.409851	
-0.410217	
-0.410278	
-0.409973	
-0.409363	
-0.408081	
-0.408875	
-0.408081	
-0.40863	
-0.407959	
-0.408203	
-0.407593	
-0.407532	
-0.408142	
-0.408569	
-0.40863	
-0.408142	
-0.406982	
-0.406433	
-0.407654	
-0.406799	
-0.407349	
-0.40741	
-0.406921	
-0.407166	
-0.408081	
-0.40802	
-0.407654	
-0.40741	
-0.406006	
-0.406006	
-0.407227	
-0.407776	
-0.407593	
-0.407104	
-0.407349	
-0.407104	
-0.407776	
-0.407471	
-0.408569	
-0.407715	
-0.407166	
-0.406738	
-0.408081	
-0.407837	
-0.408264	
-0.407837	
-0.407043	
-0.407715	
-0.408447	
-0.408569	
-0.40802	
-0.407593	
-0.40564	
-0.406128	
-0.406067	
-0.406189	
-0.406128	
-0.405823	
-0.405273	
-0.405457	
-0.40564	
-0.405945	
-0.406067	
-0.405396	
-0.403809	
-0.403503	
-0.404297	
-0.404541	
-0.404114	
-0.403992	
-0.40387	
-0.404358	
-0.404602	
-0.404602	
-0.40448	
-0.404907	
-0.402771	
-0.403198	
-0.403015	
-0.404297	
-0.403687	
-0.404236	
-0.404419	
-0.404358	
-0.404785	
-0.404602	
-0.405151	
-0.404785	
-0.403259	
-0.402771	
-0.404175	
-0.404053	
-0.403809	
-0.403931	
-0.403992	
-0.404663	
-0.404846	
-0.405396	
-0.405701	
-0.405701	
-0.404175	
-0.404175	
-0.405212	
-0.407166	
-0.406433	
-0.406433	
-0.406555	
-0.407227	
-0.407349	
-0.407532	
-0.408325	
-0.408203	
-0.407715	
-0.408264	
-0.409058	
-0.41095	
-0.409851	
-0.409668	
-0.409912	
-0.410767	
-0.410522	
-0.411194	
-0.411743	
-0.411194	
-0.410645	
-0.409119	
-0.410217	
-0.411987	
-0.411438	
-0.411133	
-0.410889	
-0.411072	
-0.411621	
-0.411865	
-0.411682	
-0.403076	
-0.388794	
-0.386902	
-0.387146	
-0.389465	
-0.38916	
-0.400085	
-0.412415	
-0.414001	
-0.414124	
-0.414673	
-0.414307	
-0.413025	
-0.411926	
-0.410645	
-0.411987	
-0.413025	
-0.411743	
-0.411499	
-0.411255	
-0.41095	
-0.411316	
-0.412048	
-0.411133	
-0.410217	
-0.409546	
-0.408081	
-0.40863	
-0.410461	
-0.408936	
-0.408569	
-0.408325	
-0.408325	
-0.408447	
-0.409729	
-0.409302	
-0.408569	
-0.407898	
-0.406433	
-0.408142	
-0.408447	
-0.407776	
-0.407715	
-0.407227	
-0.407104	
-0.408142	
-0.409729	
-0.409302	
-0.408325	
-0.408813	
-0.407532	
-0.409485	
-0.409973	
-0.409729	
-0.409851	
-0.40918	
-0.409546	
-0.409668	
-0.410828	
-0.410522	
-0.409546	
-0.408997	
-0.407654	
-0.410828	
-0.41156	
-0.413391	
-0.416016	
-0.419006	
-0.423828	
-0.428711	
-0.43573	
-0.440063	
-0.446716	
-0.452026	
-0.459656	
-0.468201	
-0.474426	
-0.479431	
-0.483765	
-0.487244	
-0.490662	
-0.493958	
-0.496521	
-0.4953	
-0.495605	
-0.493591	
-0.496155	
-0.496155	
-0.495789	
-0.495789	
-0.495239	
-0.496277	
-0.496765	
-0.498901	
-0.499023	
-0.497559	
-0.497009	
-0.4953	
-0.497925	
-0.496887	
-0.487671	
-0.472839	
-0.46936	
-0.469666	
-0.469299	
-0.47052	
-0.47821	
-0.489624	
-0.49054	
-0.48877	
-0.490295	
-0.489502	
-0.489319	
-0.489075	
-0.487732	
-0.487427	
-0.487732	
-0.489685	
-0.487183	
-0.486328	
-0.484985	
-0.484131	
-0.484985	
-0.483459	
-0.481445	
-0.480225	
-0.478821	
-0.476807	
-0.474792	
-0.473572	
-0.469421	
-0.466675	
-0.46283	
-0.46283	
-0.461731	
-0.459778	
-0.458923	
-0.457886	
-0.457703	
-0.45752	
-0.458679	
-0.458679	
-0.457764	
-0.458069	
-0.455994	
-0.45874	
-0.458313	
-0.45813	
-0.458069	
-0.457764	
-0.457336	
-0.45697	
-0.457336	
-0.454346	
-0.452087	
-0.44989	
-0.44519	
-0.445435	
-0.440796	
-0.436646	
-0.432007	
-0.426086	
-0.420471	
-0.414856	
-0.410339	
-0.402466	
-0.394958	
-0.387939	
-0.378601	
-0.375488	
-0.367981	
-0.36084	
-0.354126	
-0.348206	
-0.343323	
-0.338501	
-0.335327	
-0.331238	
-0.329224	
-0.328003	
-0.32428	
-0.326965	
-0.327637	
-0.328857	
-0.330017	
-0.332336	
-0.335022	
-0.337769	
-0.341797	
-0.343872	
-0.347412	
-0.349976	
-0.354004	
-0.358154	
-0.361694	
-0.365051	
-0.367737	
-0.37146	
-0.375183	
-0.3797	
-0.381897	
-0.385315	
-0.388	
-0.391968	
-0.396729	
-0.399719	
-0.403687	
-0.406067	
-0.40979	
-0.412537	
-0.414917	
-0.418579	
-0.418091	
-0.419189	
-0.419189	
-0.42157	
-0.420837	
-0.420349	
-0.419678	
-0.418823	
-0.418457	
-0.417786	
-0.417603	
-0.417297	
-0.414612	
-0.413269	
-0.410767	
-0.412292	
-0.410278	
-0.409363	
-0.408447	
-0.406982	
-0.405823	
-0.405151	
-0.406189	
-0.40448	
-0.402283	
-0.401062	
-0.399048	
-0.399414	
-0.397705	
-0.395996	
-0.395264	
-0.39447	
-0.393982	
-0.393433	
-0.394714	
-0.392883	
-0.392334	
-0.392029	
-0.392517	
-0.394226	
-0.394043	
-0.393982	
-0.393555	
-0.394348	
-0.393494	
-0.392883	
-0.391235	
-0.388062	
-0.384705	
-0.380127	
-0.376892	
-0.373413	
-0.36792	
-0.362122	
-0.354675	
-0.349792	
-0.342712	
-0.337646	
-0.330017	
-0.323669	
-0.316833	
-0.311646	
-0.30835	
-0.304077	
-0.300476	
-0.297119	
-0.294861	
-0.292603	
-0.291199	
-0.2901	
-0.288757	
-0.286865	
-0.284607	
-0.285034	
-0.285461	
-0.285339	
-0.285645	
-0.285461	
-0.287354	
-0.288513	
-0.290161	
-0.290649	
-0.291626	
-0.291931	
-0.29425	
-0.296997	
-0.29834	
-0.300537	
-0.302185	
-0.304199	
-0.307312	
-0.309692	
-0.312195	
-0.314636	
-0.316223	
-0.319824	
-0.324158	
-0.326904	
-0.329346	
-0.331604	
-0.334167	
-0.336792	
-0.338745	
-0.340881	
-0.342163	
-0.34259	
-0.344543	
-0.348267	
-0.34906	
-0.350098	
-0.35144	
-0.353027	
-0.354553	
-0.35553	
-0.356079	
-0.356201	
-0.357788	
-0.35791	
-0.359802	
-0.360474	
-0.361084	
-0.36145	
-0.362122	
-0.363464	
-0.364014	
-0.364746	
-0.364929	
-0.365234	
-0.365173	
-0.365967	
-0.368591	
-0.36792	
-0.368347	
-0.368835	
-0.369812	
-0.369873	
-0.371277	
-0.370789	
-0.371216	
-0.371277	
-0.371765	
-0.371887	
-0.373047	
-0.373352	
-0.37384	
-0.374268	
-0.374756	
-0.375854	
-0.376892	
-0.377197	
-0.377136	
-0.377014	
-0.377991	
-0.378906	
-0.379272	
-0.379211	
-0.379395	
-0.379944	
-0.380981	
-0.382019	
-0.381165	
-0.381958	
-0.382202	
-0.381409	
-0.381958	
-0.382996	
-0.382935	
-0.382568	
-0.382202	
-0.382874	
-0.382935	
-0.382813	
-0.382935	
-0.382996	
-0.382446	
-0.382629	
-0.382751	
-0.383545	
-0.383484	
-0.384033	
-0.383911	
-0.384583	
-0.385437	
-0.384888	
-0.385254	
-0.384949	
-0.385498	
-0.385254	
-0.38623	
-0.386475	
-0.386658	
-0.38678	
-0.387207	
-0.388062	
-0.387085	
-0.388184	
-0.387512	
-0.387634	
-0.387451	
-0.387329	
-0.387634	
-0.387512	
-0.387512	
-0.387695	
-0.387878	
-0.386169	
-0.387878	
-0.38623	
-0.385681	
-0.387085	
-0.386902	
-0.386597	
-0.386719	
-0.387878	
-0.387207	
-0.38678	
-0.386963	
-0.387512	
-0.387207	
-0.386536	
-0.388	
-0.387268	
-0.388367	
-0.388	
-0.388489	
-0.389832	
-0.389404	
-0.389893	
-0.390381	
-0.390259	
-0.389221	
-0.39093	
-0.390381	
-0.390808	
-0.391113	
-0.392029	
-0.392639	
-0.391968	
-0.391113	
-0.391479	
-0.391418	
-0.391113	
-0.391418	
-0.391174	
-0.391724	
-0.391785	
-0.392395	
-0.391418	
-0.391663	
-0.391235	
-0.390442	
-0.390991	
-0.390625	
-0.390625	
-0.389954	
-0.390686	
-0.390564	
-0.390686	
-0.39093	
-0.390503	
-0.389587	
-0.388977	
-0.389465	
-0.388733	
-0.388367	
-0.388306	
-0.388306	
-0.388672	
-0.388428	
-0.389221	
-0.389465	
-0.389221	
-0.38855	
-0.387878	
-0.388611	
-0.388916	
-0.389282	
-0.389282	
-0.389771	
-0.389893	
-0.390137	
-0.39093	
-0.391418	
-0.390747	
-0.389954	
-0.391602	
-0.391113	
-0.391357	
-0.391418	
-0.391418	
-0.391724	
-0.392883	
-0.393005	
-0.393616	
-0.394104	
-0.393921	
-0.394226	
-0.394348	
-0.395935	
-0.39624	
-0.395874	
-0.396667	
-0.397095	
-0.397339	
-0.398438	
-0.397827	
-0.397888	
-0.397095	
-0.398743	
-0.399109	
-0.399841	
-0.400757	
-0.399963	
-0.399963	
-0.400146	
-0.401611	
-0.402344	
-0.40033	
-0.400085	
-0.400208	
-0.400513	
-0.400757	
-0.400513	
-0.399109	
-0.40033	
-0.400024	
-0.398865	
-0.400208	
-0.400024	
-0.399414	
-0.398743	
-0.399597	
-0.399292	
-0.399902	
-0.399658	
-0.399597	
-0.39917	
-0.399353	
-0.400391	
-0.400452	
-0.399475	
-0.399292	
-0.398804	
-0.398987	
-0.398926	
-0.399597	
-0.39917	
-0.399048	
-0.39917	
-0.399048	
-0.400757	
-0.39917	
-0.39917	
-0.397705	
-0.400269	
-0.399536	
-0.399536	
-0.399231	
-0.399658	
-0.399841	
-0.398926	
-0.401245	
-0.400391	
-0.400146	
-0.39978	
-0.398254	
-0.399902	
-0.400024	
-0.400146	
-0.39978	
-0.39978	
-0.400146	
-0.399536	
-0.400757	
-0.398926	
-0.398193	
-0.397766	
-0.397827	
-0.397522	
-0.397644	
-0.397034	
-0.397949	
-0.397461	
-0.397461	
-0.397949	
-0.397278	
-0.396606	
-0.395203	
-0.395508	
-0.396545	
-0.397217	
-0.397156	
-0.395508	
-0.396606	
-0.396912	
-0.397034	
-0.397278	
-0.39679	
-0.396729	
-0.396545	
-0.397339	
-0.397156	
-0.3974	
-0.397339	
-0.397217	
-0.397278	
-0.396912	
-0.397827	
-0.398315	
-0.396912	
-0.395569	
-0.396423	
-0.3974	
-0.396973	
-0.39679	
-0.397034	
-0.397522	
-0.397461	
-0.397522	
-0.398621	
-0.399048	
-0.398499	
-0.397339	
-0.397644	
-0.399353	
-0.399658	
-0.400269	
-0.39856	
-0.399963	
-0.400391	
-0.401184	
-0.402954	
-0.401794	
-0.401855	
-0.402222	
-0.403076	
-0.403198	
-0.403259	
-0.404175	
-0.403687	
-0.403503	
-0.403503	
-0.403748	
-0.404297	
-0.403625	
-0.402466	
-0.403015	
-0.404419	
-0.404419	
-0.40387	
-0.403259	
-0.404419	
-0.404297	
-0.403687	
-0.404358	
-0.404236	
-0.403992	
-0.403564	
-0.402283	
-0.404419	
-0.404236	
-0.404053	
-0.403015	
-0.403931	
-0.403687	
-0.404114	
-0.405212	
-0.403687	
-0.403259	
-0.403198	
-0.403015	
-0.403198	
-0.403503	
-0.40271	
-0.402649	
-0.40271	
-0.40332	
-0.402832	
-0.403442	
-0.4021	
-0.401123	
-0.40094	
-0.401978	
-0.401306	
-0.401489	
-0.401184	
-0.40094	
-0.400696	
-0.400696	
-0.401733	
-0.401245	
-0.400696	
-0.400513	
-0.399353	
-0.400513	
-0.400452	
-0.400574	
-0.400085	
-0.399658	
-0.400024	
-0.400085	
-0.400879	
-0.400085	
-0.400085	
-0.399963	
-0.39978	
-0.400146	
-0.399719	
-0.399414	
-0.399719	
-0.400085	
-0.399597	
-0.399902	
-0.401306	
-0.399292	
-0.398193	
-0.400146	
-0.398926	
-0.399353	
-0.398804	
-0.39917	
-0.398499	
-0.398499	
-0.398743	
-0.39917	
-0.399536	
-0.398499	
-0.397461	
-0.39856	
-0.39801	
-0.398132	
-0.398376	
-0.399048	
-0.398438	
-0.398621	
-0.399658	
-0.399841	
-0.399719	
-0.399414	
-0.399536	
-0.398743	
-0.400024	
-0.400452	
-0.400085	
-0.40033	
-0.400574	
-0.400513	
-0.401245	
-0.402161	
-0.401428	
-0.401184	
-0.401733	
-0.400513	
-0.401123	
-0.40155	
-0.401855	
-0.400879	
-0.401001	
-0.400818	
-0.401245	
-0.402161	
-0.399536	
-0.399048	
-0.399658	
-0.398987	
-0.399231	
-0.398926	
-0.399597	
-0.398987	
-0.39917	
-0.399536	
-0.399353	
-0.400757	
-0.39978	
-0.399353	
-0.399231	
-0.400208	
-0.399475	
-0.399048	
-0.399841	
-0.399597	
-0.400391	
-0.400024	
-0.401062	
-0.401306	
-0.400696	
-0.401367	
-0.399963	
-0.401245	
-0.40155	
-0.401123	
-0.401978	
-0.402832	
-0.403442	
-0.40271	
-0.403748	
-0.403748	
-0.403503	
-0.40448	
-0.401855	
-0.40387	
-0.403259	
-0.40387	
-0.403259	
-0.403198	
-0.403503	
-0.403748	
-0.403992	
-0.402893	
-0.402649	
-0.402771	
-0.400696	
-0.402344	
-0.402161	
-0.402649	
-0.401428	
-0.401855	
-0.401611	
-0.401245	
-0.4021	
-0.400757	
-0.400024	
-0.401123	
-0.399658	
-0.399841	
-0.398926	
-0.400146	
-0.398804	
-0.398315	
-0.398193	
-0.397583	
-0.398132	
-0.396729	
-0.397583	
-0.395325	
-0.395386	
-0.395142	
-0.395569	
-0.394775	
-0.39447	
-0.393921	
-0.393799	
-0.394104	
-0.394592	
-0.393311	
-0.393677	
-0.391968	
-0.392883	
-0.392761	
-0.393005	
-0.392822	
-0.393066	
-0.393372	
-0.3927	
-0.394226	
-0.394043	
-0.392456	
-0.39386	
-0.39325	
-0.393982	
-0.393738	
-0.395142	
-0.393799	
-0.394409	
-0.394592	
-0.394409	
-0.395081	
-0.394653	
-0.393982	
-0.393677	
-0.394043	
-0.394348	
-0.393494	
-0.394958	
-0.394409	
-0.394836	
-0.395264	
-0.394836	
-0.395203	
-0.39447	
-0.394836	
-0.393494	
-0.394104	
-0.394958	
-0.394531	
-0.396057	
-0.394958	
-0.395203	
-0.395386	
-0.395935	
-0.395325	
-0.394897	
-0.395386	
-0.393311	
-0.3927	
-0.393555	
-0.394165	
-0.394226	
-0.394348	
-0.394592	
-0.393433	
-0.394897	
-0.394836	
-0.394653	
-0.394958	
-0.395203	
-0.394531	
-0.395447	
-0.396179	
-0.396912	
-0.397034	
-0.396851	
-0.395752	
-0.397339	
-0.397644	
-0.396606	
-0.396545	
-0.396973	
-0.396973	
-0.396545	
-0.398804	
-0.397949	
-0.398071	
-0.398804	
-0.39801	
-0.397644	
-0.398071	
-0.39856	
-0.3974	
-0.39801	
-0.397705	
-0.398193	
-0.398865	
-0.397705	
-0.397888	
-0.397949	
-0.397888	
-0.397766	
-0.398438	
-0.398743	
-0.397644	
-0.397339	
-0.397644	
-0.398254	
-0.398743	
-0.397827	
-0.397766	
-0.39801	
-0.398132	
-0.397522	
-0.396667	
-0.397461	
-0.396545	
-0.396362	
-0.395386	
-0.396362	
-0.395935	
-0.395752	
-0.395203	
-0.394531	
-0.395691	
-0.39502	
-0.395203	
-0.394592	
-0.394104	
-0.392883	
-0.393127	
-0.394043	
-0.392822	
-0.392273	
-0.39209	
-0.391846	
-0.391663	
-0.391846	
-0.391235	
-0.390991	
-0.391113	
-0.389587	
-0.389648	
-0.39093	
-0.390076	
-0.389954	
-0.39093	
-0.390808	
-0.390137	
-0.390564	
-0.390076	
-0.390137	
-0.389954	
-0.389221	
-0.390198	
-0.391113	
-0.390503	
-0.390747	
-0.391418	
-0.391235	
-0.390747	
-0.391113	
-0.390991	
-0.390503	
-0.390564	
-0.390808	
-0.391296	
-0.390869	
-0.391113	
-0.391479	
-0.390808	
-0.392151	
-0.391663	
-0.391418	
-0.392273	
-0.39209	
-0.391541	
-0.392334	
-0.393555	
-0.392883	
-0.3927	
-0.392944	
-0.393555	
-0.394226	
-0.393494	
-0.393433	
-0.394226	
-0.394043	
-0.392822	
-0.39447	
-0.395386	
-0.394531	
-0.395142	
-0.394958	
-0.395264	
-0.395447	
-0.395813	
-0.394653	
-0.393738	
-0.394348	
-0.39386	
-0.393372	
-0.394592	
-0.39386	
-0.394348	
-0.394287	
-0.394592	
-0.394104	
-0.394348	
-0.394409	
-0.393616	
-0.394043	
-0.393799	
-0.394287	
-0.394653	
-0.394897	
-0.395081	
-0.39563	
-0.396179	
-0.395264	
-0.396179	
-0.395935	
-0.395813	
-0.39563	
-0.395325	
-0.395569	
-0.395874	
-0.395813	
-0.395935	
-0.394958	
-0.396118	
-0.394836	
-0.395203	
-0.395386	
-0.39447	
-0.394531	
-0.394104	
-0.394836	
-0.393921	
-0.393677	
-0.393127	
-0.393127	
-0.394165	
-0.393494	
-0.393188	
-0.392822	
-0.392395	
-0.391968	
-0.392456	
-0.393005	
-0.392883	
-0.392822	
-0.392822	
-0.392883	
-0.393066	
-0.392944	
-0.393738	
-0.393738	
-0.393616	
-0.393616	
-0.393982	
-0.394592	
-0.39447	
-0.39447	
-0.394958	
-0.394653	
-0.394897	
-0.394409	
-0.393921	
-0.394592	
-0.393921	
-0.393433	
-0.393616	
-0.393982	
-0.393555	
-0.393372	
-0.393799	
-0.393494	
-0.392761	
-0.392883	
-0.392456	
-0.391174	
-0.391602	
-0.391663	
-0.39093	
-0.391846	
-0.391418	
-0.391663	
-0.390564	
-0.391174	
-0.390259	
-0.389282	
-0.390686	
-0.388794	
-0.389404	
-0.38855	
-0.388733	
-0.388916	
-0.389282	
-0.389648	
-0.388916	
-0.389465	
-0.389343	
-0.389282	
-0.389709	
-0.388672	
-0.389526	
-0.38855	
-0.390686	
-0.389832	
-0.389771	
-0.390747	
-0.390564	
-0.390991	
-0.390625	
-0.391357	
-0.391541	
-0.389648	
-0.391235	
-0.390869	
-0.392029	
-0.39209	
-0.392761	
-0.393677	
-0.393677	
-0.394226	
-0.394226	
-0.395325	
-0.395447	
-0.395081	
-0.395386	
-0.395508	
-0.396729	
-0.396484	
-0.396484	
-0.397217	
-0.396851	
-0.398254	
-0.397766	
-0.398865	
-0.398499	
-0.397888	
-0.398682	
-0.398804	
-0.398743	
-0.39856	
-0.399231	
-0.39856	
-0.399048	
-0.399719	
-0.398499	
-0.39978	
-0.399536	
-0.398376	
-0.398438	
-0.39917	
-0.398499	
-0.397705	
-0.3974	
-0.396973	
-0.397705	
-0.398071	
-0.396057	
-0.398193	
-0.397522	
-0.3974	
-0.396912	
-0.397278	
-0.397095	
-0.396729	
-0.397278	
-0.396667	
-0.396423	
-0.397339	
-0.396606	
-0.396545	
-0.396973	
-0.396729	
-0.395081	
-0.396484	
-0.39624	
-0.396667	
-0.396912	
-0.396484	
-0.396606	
-0.396362	
-0.3974	
-0.39679	
-0.395325	
-0.39679	
-0.396606	
-0.397278	
-0.396912	
-0.396912	
-0.397583	
-0.396973	
-0.397034	
-0.396118	
-0.397095	
-0.396667	
-0.395874	
-0.395935	
-0.395935	
-0.395752	
-0.395569	
-0.395264	
-0.393982	
-0.394348	
-0.394531	
-0.393677	
-0.394836	
-0.393677	
-0.393494	
-0.393677	
-0.393921	
-0.392334	
-0.393127	
-0.393372	
-0.392029	
-0.3927	
-0.393494	
-0.391846	
-0.393677	
-0.392761	
-0.392395	
-0.392395	
-0.392395	
-0.39093	
-0.392395	
-0.393372	
-0.391846	
-0.392639	
-0.393982	
-0.394165	
-0.393616	
-0.393127	
-0.392822	
-0.393005	
-0.393433	
-0.391479	
-0.392639	
-0.393127	
-0.391968	
-0.392944	
-0.393066	
-0.393188	
-0.393188	
-0.393738	
-0.393494	
-0.393555	
-0.394165	
-0.394287	
-0.394531	
-0.394897	
-0.394592	
-0.394897	
-0.395325	
-0.395264	
-0.394897	
-0.395874	
-0.395874	
-0.395508	
-0.396729	
-0.397217	
-0.3974	
-0.397827	
-0.398315	
-0.398804	
-0.398438	
-0.399292	
-0.399231	
-0.398315	
-0.398193	
-0.398499	
-0.399719	
-0.399231	
-0.39917	
-0.399292	
-0.399353	
-0.399597	
-0.398438	
-0.399536	
-0.399109	
-0.399231	
-0.398804	
-0.399048	
-0.399231	
-0.399292	
-0.399353	
-0.398315	
-0.398804	
-0.399109	
-0.397522	
-0.399292	
-0.398315	
-0.397766	
-0.39856	
-0.398926	
-0.398315	
-0.398315	
-0.398071	
-0.397766	
-0.397888	
-0.397949	
-0.396606	
-0.397949	
-0.397461	
-0.395996	
-0.39679	
-0.396484	
-0.395569	
-0.396179	
-0.396912	
-0.395508	
-0.396118	
-0.396606	
-0.395752	
-0.396179	
-0.395325	
-0.394958	
-0.395447	
-0.395508	
-0.394714	
-0.395203	
-0.395569	
-0.394287	
-0.394226	
-0.394104	
-0.394226	
-0.394653	
-0.394653	
-0.39386	
-0.393982	
-0.393738	
-0.39386	
-0.394592	
-0.394714	
-0.39325	
-0.394165	
-0.39447	
-0.39447	
-0.39447	
-0.394226	
-0.393921	
-0.393066	
-0.393677	
-0.393066	
-0.393433	
-0.393494	
-0.391724	
-0.392883	
-0.392334	
-0.392639	
-0.392456	
-0.392029	
-0.392212	
-0.391846	
-0.39209	
-0.39209	
-0.391846	
-0.391418	
-0.391357	
-0.391724	
-0.391479	
-0.391907	
-0.39209	
-0.392273	
-0.392517	
-0.391785	
-0.393494	
-0.393372	
-0.393311	
-0.393799	
-0.393738	
-0.394531	
-0.393433	
-0.394775	
-0.394226	
-0.394714	
-0.394409	
-0.394104	
-0.395386	
-0.394531	
-0.394714	
-0.394897	
-0.394592	
-0.394958	
-0.393311	
-0.394348	
-0.39386	
-0.393188	
-0.393616	
-0.392029	
-0.392456	
-0.392273	
-0.39325	
-0.391968	
-0.392029	
-0.392639	
-0.391174	
-0.391907	
-0.39209	
-0.392273	
-0.392029	
-0.391479	
-0.391724	
-0.392517	
-0.392212	
-0.392212	
-0.392944	
-0.393494	
-0.391785	
-0.39386	
-0.393982	
-0.393311	
-0.393555	
-0.393005	
-0.393494	
-0.394287	
-0.394958	
-0.393433	
-0.395142	
-0.395691	
-0.395203	
-0.396484	
-0.396118	
-0.396118	
-0.395996	
-0.395691	
-0.395447	
-0.397156	
-0.396973	
-0.394958	
-0.396606	
-0.396667	
-0.395691	
-0.396057	
-0.396179	
-0.395508	
-0.395447	
-0.395081	
-0.394653	
-0.395386	
-0.395691	
-0.394653	
-0.394531	
-0.394531	
-0.394043	
-0.394714	
-0.393982	
-0.393799	
-0.393677	
-0.39325	
-0.392212	
-0.393555	
-0.392822	
-0.392029	
-0.391785	
-0.391174	
-0.390808	
-0.390747	
-0.390442	
-0.389465	
-0.389221	
-0.388	
-0.387756	
-0.388611	
-0.387634	
-0.387695	
-0.38739	
-0.386169	
-0.38678	
-0.387024	
-0.386108	
-0.385742	
-0.385498	
-0.38446	
-0.384155	
-0.385742	
-0.384949	
-0.384949	
-0.385925	
-0.383911	
-0.385498	
-0.385925	
-0.385437	
-0.385559	
-0.385376	
-0.384583	
-0.385559	
-0.386658	
-0.385986	
-0.386719	
-0.387329	
-0.385315	
-0.386292	
-0.387024	
-0.385986	
-0.386536	
-0.386841	
-0.385498	
-0.386536	
-0.38739	
-0.385559	
-0.386658	
-0.387268	
-0.386902	
-0.386902	
-0.387268	
-0.388062	
-0.387024	
-0.387512	
-0.385986	
-0.38739	
-0.387817	
-0.386597	
-0.387451	
-0.387695	
-0.386963	
-0.386963	
-0.387939	
-0.38739	
-0.387146	
-0.387146	
-0.385803	
-0.386353	
-0.386719	
-0.38562	
-0.386047	
-0.386292	
-0.386292	
-0.38678	
-0.387329	
-0.387207	
-0.386475	
-0.387634	
-0.385986	
-0.387756	
-0.388367	
-0.388306	
-0.388733	
-0.38916	
-0.388428	
-0.388733	
-0.389648	
-0.389404	
-0.388977	
-0.389343	
-0.388855	
-0.389404	
-0.390381	
-0.389648	
-0.389709	
-0.390808	
-0.389954	
-0.389771	
-0.390076	
-0.390076	
-0.390137	
-0.390991	
-0.388672	
-0.390381	
-0.390625	
-0.390137	
-0.389954	
-0.390198	
-0.389221	
-0.389771	
-0.390747	
-0.389343	
-0.389709	
-0.390625	
-0.389526	
-0.389893	
-0.390686	
-0.390381	
-0.390076	
-0.390381	
-0.389893	
-0.389893	
-0.390381	
-0.389648	
-0.389465	
-0.388672	
-0.388	
-0.388489	
-0.387695	
-0.388245	
-0.388	
-0.38739	
-0.387573	
-0.387634	
-0.387756	
-0.387573	
-0.387573	
-0.386536	
-0.385986	
-0.386047	
-0.385315	
-0.385254	
-0.384644	
-0.384399	
-0.384338	
-0.38446	
-0.384277	
-0.384521	
-0.384583	
-0.383484	
-0.382629	
-0.382874	
-0.383118	
-0.383362	
-0.38324	
-0.382202	
-0.382935	
-0.383606	
-0.382751	
-0.383179	
-0.383362	
-0.382446	
-0.382324	
-0.382996	
-0.383057	
-0.383362	
-0.383911	
-0.382263	
-0.383301	
-0.384033	
-0.382935	
-0.383667	
-0.38385	
-0.382263	
-0.383057	
-0.383606	
-0.384094	
-0.384155	
-0.384888	
-0.38446	
-0.385071	
-0.384888	
-0.384949	
-0.385376	
-0.385376	
-0.384277	
-0.384827	
-0.385498	
-0.38562	
-0.385925	
-0.386963	
-0.385925	
-0.386536	
-0.387573	
-0.386902	
-0.387146	
-0.386719	
-0.387268	
-0.386841	
-0.387634	
-0.388672	
-0.388184	
-0.388855	
-0.388245	
-0.388794	
-0.388977	
-0.388489	
-0.389038	
-0.387817	
-0.387878	
-0.386475	
-0.388	
-0.387268	
-0.387817	
-0.387329	
-0.387939	
-0.388062	
-0.38739	
-0.388	
-0.388733	
-0.387695	
-0.388184	
-0.387268	
-0.388977	
-0.388733	
-0.388733	
-0.38855	
-0.388733	
-0.389038	
-0.388489	
-0.390015	
-0.389771	
-0.388672	
-0.389404	
-0.388916	
-0.389832	
-0.390076	
-0.390198	
-0.38916	
-0.389648	
-0.389587	
-0.389648	
-0.389404	
-0.388672	
-0.387695	
-0.388672	
-0.386597	
-0.388	
-0.387878	
-0.388428	
-0.386169	
-0.387329	
-0.387939	
-0.386902	
-0.387634	
-0.386658	
-0.38623	
-0.386841	
-0.386719	
-0.387268	
-0.387268	
-0.387939	
-0.387512	
-0.387512	
-0.388	
-0.388245	
-0.389282	
-0.388428	
-0.387634	
-0.388306	
-0.388428	
-0.388794	
-0.389038	
-0.389587	
-0.389099	
-0.388672	
-0.389954	
-0.388916	
-0.390381	
-0.388672	
-0.388184	
-0.388672	
-0.389099	
-0.388672	
-0.388489	
-0.388184	
-0.387512	
-0.388	
-0.387817	
-0.387573	
-0.389038	
-0.387146	
-0.386047	
-0.386902	
-0.387085	
-0.387024	
-0.386597	
	
