E:\DOCUMENTS AND SETTINGS\JPOTAS\MEUS DOCUMENTOS\UFRJ\RSCI-BM 12 WK SERIES\070730-RSCI-BM-09\RSCI-BM-09-LEMG\070730-RSCI-BM-09-LEMG-0000.ACQ
0.025000 msec/sample
1 channel
Analog input
Volts
CH1	
2000	
-0.407837	
-0.407959	
-0.407837	
-0.407227	
-0.406677	
-0.407837	
-0.408264	
-0.407227	
-0.40741	
-0.407776	
-0.407227	
-0.407104	
-0.407349	
-0.405762	
-0.40741	
-0.40741	
-0.407166	
-0.407532	
-0.408813	
-0.40741	
-0.407837	
-0.407654	
-0.407166	
-0.407715	
-0.408325	
-0.407471	
-0.407593	
-0.408203	
-0.40802	
-0.407776	
-0.408691	
-0.40863	
-0.408264	
-0.408142	
-0.407898	
-0.40802	
-0.407654	
-0.406921	
-0.407349	
-0.406555	
-0.405945	
-0.405823	
-0.40625	
-0.40564	
-0.404663	
-0.404358	
-0.404114	
-0.40332	
-0.403198	
-0.402771	
-0.40271	
-0.402832	
-0.403137	
-0.40332	
-0.404236	
-0.404907	
-0.404114	
-0.404358	
-0.404358	
-0.403931	
-0.404602	
-0.404358	
-0.403931	
-0.404663	
-0.404907	
-0.40509	
-0.404968	
-0.406555	
-0.405823	
-0.406067	
-0.406128	
-0.406006	
-0.406067	
-0.40625	
-0.40564	
-0.40625	
-0.40625	
-0.406372	
-0.405518	
-0.407166	
-0.406677	
-0.40625	
-0.406616	
-0.406677	
-0.406982	
-0.406738	
-0.406738	
-0.405945	
-0.407227	
-0.407227	
-0.40625	
-0.407227	
-0.40802	
-0.407349	
-0.407288	
-0.406982	
-0.407166	
-0.407776	
-0.407043	
-0.406982	
-0.407593	
-0.407288	
-0.407043	
-0.40686	
-0.407349	
-0.406494	
-0.406006	
-0.406738	
-0.405334	
-0.406372	
-0.405823	
-0.406494	
-0.406738	
-0.406311	
-0.404907	
-0.404358	
-0.405701	
-0.405029	
-0.405273	
-0.405823	
-0.405945	
-0.406067	
-0.406006	
-0.405518	
-0.405945	
-0.406677	
-0.406799	
-0.406006	
-0.407776	
-0.407715	
-0.407288	
-0.406921	
-0.407043	
-0.406982	
-0.406921	
-0.406067	
-0.407715	
-0.407349	
-0.407104	
-0.406982	
-0.407471	
-0.407959	
-0.406921	
-0.407471	
-0.407898	
-0.407166	
-0.406677	
-0.406555	
-0.406921	
-0.406799	
-0.40625	
-0.40625	
-0.406555	
-0.406677	
-0.405457	
-0.405579	
-0.405762	
-0.404785	
-0.40509	
-0.40509	
-0.404541	
-0.405518	
-0.405701	
-0.405701	
-0.40564	
-0.407288	
-0.406494	
-0.406372	
-0.406738	
-0.406372	
-0.406311	
-0.406433	
-0.405334	
-0.406555	
-0.406616	
-0.406311	
-0.405579	
-0.406799	
-0.407166	
-0.405945	
-0.406372	
-0.406067	
-0.405029	
-0.405396	
-0.404602	
-0.405762	
-0.404724	
-0.404846	
-0.404114	
-0.405396	
-0.404785	
-0.404175	
-0.403809	
-0.404541	
-0.403015	
-0.403076	
-0.402527	
-0.40332	
-0.401123	
-0.400818	
-0.400879	
-0.401733	
-0.401001	
-0.402161	
-0.403442	
-0.403625	
-0.403748	
-0.403931	
-0.403687	
-0.40332	
-0.404114	
-0.403687	
-0.402527	
-0.402283	
-0.402222	
-0.402405	
-0.401367	
-0.401489	
-0.40094	
-0.400452	
-0.40094	
-0.400818	
-0.401428	
-0.401855	
-0.402649	
-0.402344	
-0.403442	
-0.404297	
-0.404358	
-0.404724	
-0.405273	
-0.404053	
-0.405212	
-0.404785	
-0.405579	
-0.405579	
-0.405945	
-0.405518	
-0.406372	
-0.406372	
-0.406311	
-0.405762	
-0.407166	
-0.405823	
-0.405945	
-0.405518	
-0.406372	
-0.405762	
-0.405457	
-0.404846	
-0.405884	
-0.405457	
-0.405823	
-0.40448	
-0.405823	
-0.404114	
-0.404175	
-0.404358	
-0.404724	
-0.404236	
-0.403809	
-0.404114	
-0.404541	
-0.404541	
-0.405029	
-0.403992	
-0.404663	
-0.403625	
-0.402588	
-0.403381	
-0.402771	
-0.403442	
-0.403442	
-0.40332	
-0.402405	
-0.402649	
-0.402405	
-0.402344	
-0.400635	
-0.40271	
-0.400452	
-0.399841	
-0.399841	
-0.399963	
-0.399902	
-0.400452	
-0.39978	
-0.400452	
-0.400146	
-0.400818	
-0.399414	
-0.401794	
-0.400757	
-0.401672	
-0.401794	
-0.401611	
-0.402527	
-0.402283	
-0.402527	
-0.402893	
-0.402466	
-0.402893	
-0.402161	
-0.402771	
-0.402771	
-0.401306	
-0.402039	
-0.401978	
-0.402161	
-0.401794	
-0.402222	
-0.402771	
-0.402405	
-0.402893	
-0.402283	
-0.402344	
-0.40271	
-0.4021	
-0.401978	
-0.402161	
-0.400818	
-0.401733	
-0.401245	
-0.402283	
-0.401367	
-0.401733	
-0.402161	
-0.401428	
-0.401855	
-0.401489	
-0.401611	
-0.402039	
-0.40155	
-0.401855	
-0.402283	
-0.402039	
-0.40271	
-0.402771	
-0.403198	
-0.401978	
-0.403992	
-0.403503	
-0.401428	
-0.402527	
-0.402893	
-0.402649	
-0.402588	
-0.402222	
-0.402893	
-0.402283	
-0.40271	
-0.401917	
-0.403259	
-0.403442	
-0.402344	
-0.402649	
-0.401489	
-0.401184	
-0.402344	
-0.402344	
-0.401917	
-0.402039	
-0.402283	
-0.402344	
-0.402222	
-0.402893	
-0.402161	
-0.402344	
-0.402832	
-0.4021	
-0.402832	
-0.403564	
-0.404114	
-0.403931	
-0.40448	
-0.40564	
-0.405029	
-0.405945	
-0.406555	
-0.406189	
-0.406799	
-0.40686	
-0.406921	
-0.40686	
-0.407227	
-0.406677	
-0.406738	
-0.406738	
-0.405334	
-0.406738	
-0.406433	
-0.405518	
-0.405457	
-0.404724	
-0.405396	
-0.404968	
-0.404663	
-0.404785	
-0.404663	
-0.405029	
-0.403809	
-0.404419	
-0.404541	
-0.40271	
-0.403564	
-0.403748	
-0.402954	
-0.40387	
-0.403503	
-0.404175	
-0.403503	
-0.403931	
-0.403137	
-0.403564	
-0.40387	
-0.401794	
-0.403137	
-0.403687	
-0.402466	
-0.402893	
-0.403259	
-0.403992	
-0.403381	
-0.403198	
-0.402771	
-0.401672	
-0.403687	
-0.402893	
-0.402527	
-0.402283	
-0.402161	
-0.402771	
-0.403137	
-0.403137	
-0.403809	
-0.402954	
-0.40332	
-0.402893	
-0.40448	
-0.405029	
-0.404602	
-0.404724	
-0.404053	
-0.404236	
-0.404541	
-0.404968	
-0.405762	
-0.40564	
-0.406311	
-0.405518	
-0.40564	
-0.406311	
-0.405212	
-0.405212	
-0.405212	
-0.403503	
-0.404114	
-0.403625	
-0.403992	
-0.403625	
-0.403931	
-0.403259	
-0.402954	
-0.403931	
-0.402771	
-0.402771	
-0.403503	
-0.402588	
-0.403137	
-0.403076	
-0.402588	
-0.403076	
-0.403015	
-0.403015	
-0.401917	
-0.403198	
-0.402893	
-0.402832	
-0.403137	
-0.402161	
-0.40271	
-0.403564	
-0.403625	
-0.404114	
-0.403687	
-0.404785	
-0.404602	
-0.404785	
-0.40448	
-0.404663	
-0.40509	
-0.405029	
-0.403687	
-0.404541	
-0.404297	
-0.405457	
-0.40448	
-0.405029	
-0.403748	
-0.404236	
-0.404724	
-0.404541	
-0.403992	
-0.40448	
-0.403809	
-0.403809	
-0.403687	
-0.40332	
-0.404236	
-0.404724	
-0.403992	
-0.402954	
-0.404968	
-0.403931	
-0.40448	
-0.404175	
-0.403931	
-0.405151	
-0.404846	
-0.404785	
-0.40564	
-0.40625	
-0.405579	
-0.40564	
-0.406799	
-0.406555	
-0.406799	
-0.406799	
-0.406433	
-0.407227	
-0.407227	
-0.407776	
-0.408508	
-0.407715	
-0.408325	
-0.407837	
-0.407959	
-0.407776	
-0.407349	
-0.407654	
-0.406982	
-0.406067	
-0.406677	
-0.407104	
-0.406738	
-0.407471	
-0.409058	
-0.408447	
-0.407898	
-0.408569	
-0.408936	
-0.409119	
-0.408691	
-0.408203	
-0.409119	
-0.408752	
-0.40802	
-0.408203	
-0.408203	
-0.406799	
-0.406128	
-0.406555	
-0.405334	
-0.40564	
-0.405151	
-0.405945	
-0.405029	
-0.404968	
-0.404602	
-0.405212	
-0.404419	
-0.404602	
-0.40387	
-0.404663	
-0.404541	
-0.403931	
-0.403748	
-0.404602	
-0.403992	
-0.404175	
-0.404419	
-0.404785	
-0.405579	
-0.406189	
-0.405212	
-0.404175	
-0.405396	
-0.40564	
-0.405579	
-0.404785	
-0.405029	
-0.405823	
-0.405823	
-0.405396	
-0.406311	
-0.406799	
-0.405762	
-0.405762	
-0.406372	
-0.405945	
-0.405945	
-0.405518	
-0.406128	
-0.406982	
-0.407227	
-0.407532	
-0.408325	
-0.40863	
-0.408264	
-0.408264	
-0.409302	
-0.408325	
-0.409485	
-0.409912	
-0.410339	
-0.4104	
-0.411011	
-0.411011	
-0.411865	
-0.411316	
-0.411682	
-0.411255	
-0.412354	
-0.410217	
-0.409607	
-0.409119	
-0.409424	
-0.408875	
-0.408813	
-0.407776	
-0.407532	
-0.408447	
-0.408081	
-0.407715	
-0.407104	
-0.408081	
-0.407532	
-0.407898	
-0.406982	
-0.408203	
-0.408447	
-0.407898	
-0.40741	
-0.408142	
-0.40863	
-0.408142	
-0.407898	
-0.408386	
-0.407898	
-0.407837	
-0.407837	
-0.407898	
-0.408264	
-0.408386	
-0.40802	
-0.409485	
-0.409546	
-0.408752	
-0.408569	
-0.409607	
-0.408081	
-0.408997	
-0.408997	
-0.40863	
-0.409058	
-0.408997	
-0.408142	
-0.407593	
-0.408203	
-0.407898	
-0.407776	
-0.407654	
-0.406921	
-0.407471	
-0.407288	
-0.406799	
-0.407227	
-0.407654	
-0.407837	
-0.407288	
-0.408203	
-0.407715	
-0.407471	
-0.407959	
-0.407715	
-0.407654	
-0.407532	
-0.406494	
-0.408752	
-0.40802	
-0.40802	
-0.408203	
-0.408936	
-0.408875	
-0.408203	
-0.408508	
-0.408752	
-0.408569	
-0.40802	
-0.40741	
-0.408569	
-0.408081	
-0.407837	
-0.407349	
-0.406616	
-0.407776	
-0.406372	
-0.406067	
-0.406067	
-0.404419	
-0.404907	
-0.404297	
-0.403442	
-0.403748	
-0.403381	
-0.402954	
-0.402222	
-0.40332	
-0.403381	
-0.403442	
-0.404053	
-0.403564	
-0.404358	
-0.403931	
-0.40387	
-0.404907	
-0.404968	
-0.404602	
-0.404602	
-0.406128	
-0.406006	
-0.405029	
-0.405945	
-0.40509	
-0.405701	
-0.405884	
-0.405396	
-0.406555	
-0.40625	
-0.40625	
-0.406189	
-0.406738	
-0.407288	
-0.406799	
-0.406921	
-0.405945	
-0.405762	
-0.406555	
-0.405701	
-0.407471	
-0.406921	
-0.406738	
-0.406921	
-0.407227	
-0.407837	
-0.407043	
-0.407532	
-0.407288	
-0.406189	
-0.40686	
-0.405884	
-0.406677	
-0.407166	
-0.40741	
-0.407166	
-0.406738	
-0.40802	
-0.407593	
-0.407043	
-0.406799	
-0.406555	
-0.406494	
-0.404907	
-0.406372	
-0.406433	
-0.406494	
-0.406067	
-0.405518	
-0.40741	
-0.40686	
-0.405823	
-0.405762	
-0.405334	
-0.404785	
-0.404907	
-0.405273	
-0.406738	
-0.406555	
-0.406555	
-0.406433	
-0.407166	
-0.407227	
-0.406921	
-0.407532	
-0.406311	
-0.406677	
-0.407043	
-0.407104	
-0.40686	
-0.407043	
-0.407288	
-0.406982	
-0.406006	
-0.407898	
-0.407043	
-0.408264	
-0.406799	
-0.406311	
-0.407227	
-0.407471	
-0.40741	
-0.406982	
-0.407043	
-0.406921	
-0.406738	
-0.407959	
-0.407349	
-0.40741	
-0.406128	
-0.406616	
-0.405945	
-0.405273	
-0.405457	
-0.406128	
-0.405518	
-0.405212	
-0.405396	
-0.406555	
-0.406799	
-0.40625	
-0.406128	
-0.406006	
-0.405334	
-0.40509	
-0.406494	
-0.406494	
-0.406311	
-0.406494	
-0.406311	
-0.406311	
-0.406555	
-0.406555	
-0.406433	
-0.405334	
-0.405457	
-0.405762	
-0.406189	
-0.405457	
-0.405884	
-0.405701	
-0.405823	
-0.405457	
-0.405579	
-0.405273	
-0.405701	
-0.404419	
-0.404541	
-0.404053	
-0.403748	
-0.403809	
-0.404419	
-0.403564	
-0.403198	
-0.403015	
-0.404297	
-0.403259	
-0.402954	
-0.402832	
-0.402832	
-0.402466	
-0.401978	
-0.40332	
-0.402771	
-0.403442	
-0.403259	
-0.402771	
-0.403564	
-0.404175	
-0.403198	
-0.401978	
-0.40094	
-0.401733	
-0.400879	
-0.401062	
-0.401428	
-0.400696	
-0.400391	
-0.400879	
-0.400085	
-0.401855	
-0.401978	
-0.403198	
-0.402039	
-0.403137	
-0.403931	
-0.403931	
-0.404419	
-0.404907	
-0.404785	
-0.405029	
-0.404724	
-0.405884	
-0.40564	
-0.405823	
-0.405579	
-0.40564	
-0.406189	
-0.404907	
-0.405884	
-0.406372	
-0.406189	
-0.406128	
-0.405457	
-0.406372	
-0.406372	
-0.405273	
-0.405151	
-0.405212	
-0.404846	
-0.404419	
-0.404724	
-0.40448	
-0.404602	
-0.404724	
-0.40448	
-0.404907	
-0.405151	
-0.404419	
-0.404968	
-0.403015	
-0.403442	
-0.404114	
-0.404114	
-0.404724	
-0.404785	
-0.404236	
-0.40332	
-0.403137	
-0.403503	
-0.403198	
-0.403381	
-0.402222	
-0.402039	
-0.402161	
-0.400818	
-0.402039	
-0.401245	
-0.400208	
-0.399902	
-0.399353	
-0.400574	
-0.400879	
-0.400513	
-0.400208	
-0.400452	
-0.400269	
-0.399902	
-0.400513	
-0.400085	
-0.401001	
-0.401428	
-0.401672	
-0.403015	
-0.403259	
-0.402649	
-0.402954	
-0.402222	
-0.401978	
-0.402283	
-0.402588	
-0.4021	
-0.4021	
-0.402527	
-0.401794	
-0.403198	
-0.402832	
-0.402771	
-0.40271	
-0.401123	
-0.402588	
-0.402893	
-0.402405	
-0.403076	
-0.40155	
-0.402466	
-0.402161	
-0.402527	
-0.402344	
-0.402466	
-0.401794	
-0.400452	
-0.401733	
-0.401367	
-0.400269	
-0.402039	
-0.400513	
-0.401062	
-0.401733	
-0.402344	
-0.402344	
-0.403381	
-0.402771	
-0.402466	
-0.40271	
-0.403564	
-0.402893	
-0.403564	
-0.402954	
-0.403076	
-0.40271	
-0.402893	
-0.403442	
-0.402893	
-0.402588	
-0.403503	
-0.403198	
-0.402344	
-0.402283	
-0.403076	
-0.402466	
-0.401489	
-0.402588	
-0.401611	
-0.402954	
-0.402527	
-0.402527	
-0.402832	
-0.401245	
-0.401794	
-0.402222	
-0.401062	
-0.402466	
-0.401917	
-0.402283	
-0.401978	
-0.403198	
-0.403137	
-0.40387	
-0.403809	
-0.403198	
-0.404175	
-0.404846	
-0.404663	
-0.40625	
-0.405212	
-0.406006	
-0.406128	
-0.406738	
-0.407837	
-0.40802	
-0.406799	
-0.407593	
-0.406982	
-0.406982	
-0.406189	
-0.406494	
-0.405762	
-0.405762	
-0.405334	
-0.404785	
-0.406494	
-0.405884	
-0.40509	
-0.405212	
-0.404724	
-0.403992	
-0.404785	
-0.403809	
-0.404419	
-0.402771	
-0.403687	
-0.403503	
-0.404175	
-0.403992	
-0.403381	
-0.403503	
-0.402954	
-0.403809	
-0.403259	
-0.40332	
-0.404236	
-0.402466	
-0.403198	
-0.40271	
-0.403748	
-0.403625	
-0.403625	
-0.403687	
-0.404114	
-0.402954	
-0.40332	
-0.402771	
-0.403137	
-0.402466	
-0.402954	
-0.403015	
-0.402161	
-0.403442	
-0.403564	
-0.403076	
-0.403198	
-0.403198	
-0.404297	
-0.403687	
-0.403442	
-0.404419	
-0.404358	
-0.40448	
-0.404541	
-0.405273	
-0.405518	
-0.404968	
-0.405579	
-0.404907	
-0.405701	
-0.405762	
-0.405334	
-0.405884	
-0.404663	
-0.405457	
-0.405579	
-0.404907	
-0.404419	
-0.403809	
-0.403931	
-0.403442	
-0.402344	
-0.403564	
-0.403625	
-0.403992	
-0.402832	
-0.403076	
-0.403442	
-0.403625	
-0.404297	
-0.403076	
-0.403015	
-0.403015	
-0.402405	
-0.403809	
-0.403137	
-0.402832	
-0.403015	
-0.403137	
-0.403137	
-0.402161	
-0.404358	
-0.404114	
-0.403076	
-0.403137	
-0.403687	
-0.404297	
-0.404724	
-0.404785	
-0.40448	
-0.40332	
-0.405151	
-0.404358	
-0.40564	
-0.405701	
-0.404785	
-0.404663	
-0.40387	
-0.404358	
-0.404297	
-0.404114	
-0.403564	
-0.403503	
-0.404114	
-0.403625	
-0.404053	
-0.404724	
-0.404114	
-0.403931	
-0.40387	
-0.403198	
-0.404602	
-0.404175	
-0.404053	
-0.403809	
-0.404419	
-0.404236	
-0.404297	
-0.405884	
-0.405396	
-0.404663	
-0.405334	
-0.405823	
-0.406189	
-0.405579	
-0.406311	
-0.406128	
-0.406494	
-0.406494	
-0.40625	
-0.407349	
-0.408203	
-0.407532	
-0.407532	
-0.40741	
-0.408264	
-0.40802	
-0.40741	
-0.407898	
-0.407654	
-0.407227	
-0.407104	
-0.407227	
-0.407837	
-0.406799	
-0.407104	
-0.408142	
-0.407227	
-0.408081	
-0.408508	
-0.409119	
-0.408081	
-0.409058	
-0.40918	
-0.408997	
-0.410217	
-0.409058	
-0.408752	
-0.408875	
-0.407227	
-0.407715	
-0.406982	
-0.405334	
-0.405579	
-0.405579	
-0.405273	
-0.404053	
-0.405273	
-0.40509	
-0.40448	
-0.404663	
-0.404114	
-0.404724	
-0.404236	
-0.404053	
-0.404114	
-0.404053	
-0.403931	
-0.403748	
-0.404907	
-0.405945	
-0.404297	
-0.404724	
-0.405151	
-0.405151	
-0.404358	
-0.404541	
-0.405701	
-0.405518	
-0.405396	
-0.405396	
-0.405945	
-0.406738	
-0.406067	
-0.405884	
-0.406616	
-0.40387	
-0.405701	
-0.40564	
-0.406006	
-0.405701	
-0.406006	
-0.406494	
-0.405457	
-0.406921	
-0.407593	
-0.407104	
-0.408203	
-0.407349	
-0.407715	
-0.407654	
-0.408264	
-0.407898	
-0.409241	
-0.410156	
-0.409973	
-0.410706	
-0.411621	
-0.410889	
-0.411499	
-0.410706	
-0.411255	
-0.411072	
-0.410339	
-0.411194	
-0.410156	
-0.409546	
-0.408936	
-0.409241	
-0.409851	
-0.408264	
-0.408142	
-0.408081	
-0.407715	
-0.407471	
-0.407471	
-0.408264	
-0.407898	
-0.407837	
-0.40802	
-0.406982	
-0.409058	
-0.40802	
-0.407776	
-0.408081	
-0.408203	
-0.407715	
-0.407471	
-0.407715	
-0.407654	
-0.407776	
-0.407532	
-0.407227	
-0.408752	
-0.409119	
-0.408081	
-0.408813	
-0.408142	
-0.40863	
-0.408752	
-0.407654	
-0.408447	
-0.408875	
-0.409119	
-0.408691	
-0.408875	
-0.408997	
-0.408325	
-0.408447	
-0.406677	
-0.406921	
-0.407654	
-0.406311	
-0.407471	
-0.407349	
-0.407349	
-0.406982	
-0.40625	
-0.407593	
-0.407532	
-0.407349	
-0.407471	
-0.407898	
-0.407471	
-0.407104	
-0.40741	
-0.407471	
-0.407532	
-0.40741	
-0.407349	
-0.408325	
-0.408813	
-0.408081	
-0.408569	
-0.408325	
-0.407898	
-0.40802	
-0.408325	
-0.407593	
-0.408386	
-0.408142	
-0.408203	
-0.409058	
-0.40863	
-0.407593	
-0.407715	
-0.406128	
-0.405518	
-0.406128	
-0.405518	
-0.406067	
-0.405334	
-0.404785	
-0.404297	
-0.404236	
-0.403625	
-0.402954	
-0.403137	
-0.402161	
-0.402771	
-0.402832	
-0.402954	
-0.404114	
-0.403992	
-0.403992	
-0.404297	
-0.403503	
-0.405457	
-0.404968	
-0.404907	
-0.404602	
-0.405396	
-0.404907	
-0.404541	
-0.405212	
-0.404785	
-0.405945	
-0.40564	
-0.404907	
-0.407288	
-0.407043	
-0.406128	
-0.406738	
-0.405579	
-0.406555	
-0.40625	
-0.406616	
-0.406677	
-0.407043	
-0.406982	
-0.406677	
-0.406555	
-0.407349	
-0.40686	
-0.408203	
-0.406677	
-0.406433	
-0.406616	
-0.406677	
-0.407593	
-0.407471	
-0.407593	
-0.407227	
-0.407349	
-0.408325	
-0.407837	
-0.408142	
-0.407043	
-0.407166	
-0.407104	
-0.406067	
-0.406982	
-0.404968	
-0.406128	
-0.406006	
-0.405457	
-0.407104	
-0.407166	
-0.406433	
-0.406006	
-0.405334	
-0.405701	
-0.404663	
-0.405396	
-0.404846	
-0.404846	
-0.405701	
-0.405151	
-0.406616	
-0.40686	
-0.406799	
-0.406738	
-0.406311	
-0.405945	
-0.406616	
-0.407654	
-0.407898	
-0.407104	
-0.407227	
-0.407166	
-0.407288	
-0.408386	
-0.407349	
-0.407959	
-0.406738	
-0.407166	
-0.406799	
-0.407227	
-0.407593	
-0.406799	
-0.407532	
-0.407654	
-0.407043	
-0.407959	
-0.408203	
-0.407532	
-0.407288	
-0.405762	
-0.406616	
-0.405212	
-0.406433	
-0.406067	
-0.405884	
-0.405518	
-0.405457	
-0.405701	
-0.407043	
-0.405823	
-0.406128	
-0.405701	
-0.406128	
-0.405823	
-0.406189	
-0.40686	
-0.406799	
-0.406006	
-0.406189	
-0.406799	
-0.407715	
-0.406677	
-0.406921	
-0.40625	
-0.406067	
-0.406128	
-0.406006	
-0.406616	
-0.405151	
-0.406494	
-0.406067	
-0.405273	
-0.406799	
-0.406616	
-0.406128	
-0.405029	
-0.40387	
-0.405396	
-0.404724	
-0.404541	
-0.404297	
-0.404236	
-0.404053	
-0.404175	
-0.404236	
-0.404419	
-0.403687	
-0.402954	
-0.402283	
-0.403198	
-0.402161	
-0.402649	
-0.403015	
-0.402527	
-0.403076	
-0.402832	
-0.403442	
-0.404175	
-0.403442	
-0.403931	
-0.402954	
-0.401917	
-0.402283	
-0.401978	
-0.402283	
-0.40033	
-0.400879	
-0.40094	
-0.40033	
-0.401855	
-0.401001	
-0.401672	
-0.401184	
-0.40094	
-0.40271	
-0.402405	
-0.403625	
-0.403992	
-0.404724	
-0.404297	
-0.404297	
-0.405579	
-0.405518	
-0.404846	
-0.405212	
-0.404602	
-0.406067	
-0.404724	
-0.406189	
-0.406494	
-0.40564	
-0.406189	
-0.406128	
-0.406616	
-0.407349	
-0.406128	
-0.406372	
-0.404907	
-0.405273	
-0.404968	
-0.404968	
-0.405518	
-0.403809	
-0.404846	
-0.404541	
-0.404785	
-0.406128	
-0.404968	
-0.405457	
-0.404175	
-0.403931	
-0.404785	
-0.404175	
-0.404724	
-0.40387	
-0.404297	
-0.403992	
-0.403442	
-0.405151	
-0.403687	
-0.404297	
-0.403076	
-0.401672	
-0.403442	
-0.402649	
-0.40332	
-0.401917	
-0.401428	
-0.401428	
-0.400391	
-0.401428	
-0.400085	
-0.40033	
-0.400024	
-0.398621	
-0.400757	
-0.399963	
-0.400208	
-0.400208	
-0.399719	
-0.400574	
-0.400879	
-0.401062	
-0.40271	
-0.401917	
-0.402222	
-0.401978	
-0.40271	
-0.40332	
-0.402588	
-0.402893	
-0.402283	
-0.402588	
-0.402344	
-0.402649	
-0.403992	
-0.4021	
-0.403137	
-0.402222	
-0.401367	
-0.403076	
-0.402283	
-0.403198	
-0.402283	
-0.401978	
-0.402344	
-0.402344	
-0.403259	
-0.401855	
-0.40332	
-0.402039	
-0.400818	
-0.401672	
-0.401306	
-0.402283	
-0.401489	
-0.400391	
-0.401062	
-0.400452	
-0.402161	
-0.402161	
-0.402161	
-0.401733	
-0.401123	
-0.402771	
-0.401672	
-0.402893	
-0.403198	
-0.403076	
-0.40271	
-0.402588	
-0.403137	
-0.403992	
-0.403076	
-0.402649	
-0.4021	
-0.402405	
-0.403503	
-0.402771	
-0.403381	
-0.402466	
-0.402222	
-0.402527	
-0.402527	
-0.40387	
-0.402588	
-0.403015	
-0.402039	
-0.401062	
-0.402405	
-0.402588	
-0.402954	
-0.401917	
-0.401184	
-0.402222	
-0.4021	
-0.403625	
-0.402466	
-0.403015	
-0.402527	
-0.402039	
-0.403564	
-0.402588	
-0.40448	
-0.404175	
-0.404236	
-0.404907	
-0.405029	
-0.406372	
-0.405823	
-0.407166	
-0.406799	
-0.405396	
-0.407227	
-0.407349	
-0.407166	
-0.406494	
-0.405945	
-0.405823	
-0.405334	
-0.405701	
-0.406433	
-0.405457	
-0.405579	
-0.404907	
-0.405396	
-0.405762	
-0.40509	
-0.405579	
-0.404602	
-0.404175	
-0.403931	
-0.404236	
-0.405701	
-0.403809	
-0.404602	
-0.403259	
-0.403259	
-0.403687	
-0.403564	
-0.40448	
-0.403442	
-0.402527	
-0.403137	
-0.402649	
-0.404419	
-0.40332	
-0.40387	
-0.403381	
-0.402039	
-0.403748	
-0.402344	
-0.403442	
-0.402832	
-0.403076	
-0.402954	
-0.401672	
-0.403564	
-0.40271	
-0.402954	
-0.402954	
-0.401245	
-0.402954	
-0.403381	
-0.403442	
-0.403809	
-0.403015	
-0.402832	
-0.40332	
-0.40448	
-0.404968	
-0.404602	
-0.404785	
-0.403931	
-0.404907	
-0.405518	
-0.405212	
-0.405884	
-0.40564	
-0.404785	
-0.405762	
-0.405823	
-0.40625	
-0.405212	
-0.405334	
-0.403198	
-0.403442	
-0.404175	
-0.404236	
-0.403992	
-0.40332	
-0.402832	
-0.40332	
-0.402405	
-0.403931	
-0.403137	
-0.403564	
-0.402832	
-0.401917	
-0.402954	
-0.403137	
-0.403503	
-0.402832	
-0.402466	
-0.402466	
-0.4021	
-0.403931	
-0.402771	
-0.403137	
-0.403259	
-0.402466	
-0.403076	
-0.403137	
-0.403625	
-0.403381	
-0.403564	
-0.403015	
-0.404053	
-0.405273	
-0.40509	
-0.40509	
-0.406189	
-0.404114	
-0.404724	
-0.404541	
-0.404663	
-0.404907	
-0.404175	
-0.40387	
-0.403564	
-0.404602	
-0.404602	
-0.40387	
-0.404053	
-0.403381	
-0.403687	
-0.403687	
-0.403625	
-0.404541	
-0.404053	
-0.403625	
-0.403809	
-0.40448	
-0.405518	
-0.404541	
-0.404358	
-0.40448	
-0.403992	
-0.404785	
-0.405334	
-0.405945	
-0.40564	
-0.405457	
-0.404785	
-0.405151	
-0.407227	
-0.406555	
-0.407043	
-0.408081	
-0.405457	
-0.407104	
-0.407654	
-0.407532	
-0.407349	
-0.407837	
-0.406738	
-0.406494	
-0.407837	
-0.40802	
-0.406982	
-0.407471	
-0.406555	
-0.406921	
-0.407227	
-0.40686	
-0.408325	
-0.407959	
-0.407837	
-0.408875	
-0.409119	
-0.410522	
-0.409485	
-0.409912	
-0.408997	
-0.409302	
-0.408997	
-0.408936	
-0.408997	
-0.407959	
-0.407104	
-0.406555	
-0.405701	
-0.406921	
-0.405396	
-0.405151	
-0.405029	
-0.402893	
-0.404663	
-0.405029	
-0.404236	
-0.403992	
-0.403748	
-0.403809	
-0.402832	
-0.404114	
-0.404419	
-0.404175	
-0.405212	
-0.403687	
-0.404297	
-0.404663	
-0.404663	
-0.405212	
-0.404846	
-0.403625	
-0.404724	
-0.405762	
-0.406982	
-0.405334	
-0.405823	
-0.405396	
-0.405884	
-0.406372	
-0.404907	
-0.40686	
-0.405701	
-0.40509	
-0.40564	
-0.405945	
-0.407166	
-0.406311	
-0.406311	
-0.406311	
-0.405334	
-0.407227	
-0.407104	
-0.40802	
-0.408142	
-0.407654	
-0.408081	
-0.407349	
-0.409668	
-0.410278	
-0.410278	
-0.410828	
-0.408936	
-0.410828	
-0.411072	
-0.41095	
-0.411072	
-0.410828	
-0.410645	
-0.410339	
-0.411499	
-0.410889	
-0.409424	
-0.409729	
-0.407959	
-0.40863	
-0.408447	
-0.407898	
-0.408447	
-0.407837	
-0.407532	
-0.407166	
-0.408325	
-0.409302	
-0.407898	
-0.408264	
-0.407532	
-0.40802	
-0.408386	
-0.407227	
-0.408081	
-0.407593	
-0.406921	
-0.40741	
-0.407349	
-0.409241	
-0.407898	
-0.407715	
-0.408386	
-0.407043	
-0.408569	
-0.408081	
-0.40863	
-0.408386	
-0.40741	
-0.40802	
-0.407593	
-0.409851	
-0.409363	
-0.408936	
-0.408997	
-0.407532	
-0.408325	
-0.408386	
	
