E:\DOCUMENTS AND SETTINGS\JPOTAS\MEUS DOCUMENTOS\UFRJ\RSCI-BM 12 WK SERIES\070730-RSCI-BM-09\RSCI-BM-09-LEMG\070730-RSCI-BM-09-LEMG-0017.ACQ
0.025000 msec/sample
1 channel
Analog input
Volts
CH1	
2000	
-0.404724	
-0.403503	
-0.404785	
-0.404724	
-0.404968	
-0.40625	
-0.406311	
-0.406189	
-0.406006	
-0.407104	
-0.407776	
-0.408386	
-0.407227	
-0.407104	
-0.407837	
-0.408081	
-0.408813	
-0.409058	
-0.40863	
-0.407959	
-0.408142	
-0.407837	
-0.409058	
-0.409546	
-0.409058	
-0.407959	
-0.408752	
-0.408752	
-0.410339	
-0.410156	
-0.409302	
-0.40863	
-0.408997	
-0.40863	
-0.40863	
-0.408936	
-0.408081	
-0.407898	
-0.407532	
-0.407898	
-0.407837	
-0.408142	
-0.407043	
-0.406189	
-0.406616	
-0.406433	
-0.406616	
-0.407104	
-0.406128	
-0.405823	
-0.405762	
-0.406555	
-0.406128	
-0.406921	
-0.40564	
-0.404968	
-0.405212	
-0.404724	
-0.404846	
-0.404114	
-0.403625	
-0.402283	
-0.402039	
-0.402954	
-0.402588	
-0.402893	
-0.401794	
-0.401306	
-0.401428	
-0.401428	
-0.402222	
-0.401733	
-0.401733	
-0.400208	
-0.400818	
-0.402344	
-0.402222	
-0.403259	
-0.401855	
-0.401489	
-0.401489	
-0.400818	
-0.402405	
-0.401917	
-0.402222	
-0.400635	
-0.400757	
-0.40271	
-0.402222	
-0.402466	
-0.402039	
-0.401794	
-0.400879	
-0.402466	
-0.402588	
-0.402771	
-0.402283	
-0.401489	
-0.401306	
-0.403137	
-0.402344	
-0.402893	
-0.401978	
-0.402222	
-0.401855	
-0.402649	
-0.403503	
-0.403442	
-0.403076	
-0.402222	
-0.402771	
-0.404419	
-0.404053	
-0.404846	
-0.403992	
-0.404053	
-0.404114	
-0.405212	
-0.405518	
-0.40509	
-0.405518	
-0.404602	
-0.404236	
-0.405762	
-0.406067	
-0.405762	
-0.404541	
-0.403931	
-0.402649	
-0.40448	
-0.404968	
-0.404175	
-0.403748	
-0.403381	
-0.404541	
-0.405273	
-0.405701	
-0.406128	
-0.405334	
-0.40564	
-0.405762	
-0.406372	
-0.406921	
-0.406494	
-0.406677	
-0.405701	
-0.406372	
-0.407349	
-0.407959	
-0.407898	
-0.407288	
-0.407654	
-0.406921	
-0.408752	
-0.408997	
-0.408508	
-0.40863	
-0.407837	
-0.409058	
-0.409546	
-0.409607	
-0.410156	
-0.409241	
-0.409119	
-0.408875	
-0.409607	
-0.409851	
-0.408752	
-0.408386	
-0.407593	
-0.408081	
-0.408508	
-0.408875	
-0.408203	
-0.406616	
-0.407288	
-0.405884	
-0.407288	
-0.407593	
-0.407288	
-0.406982	
-0.405579	
-0.406494	
-0.406616	
-0.406433	
-0.406433	
-0.405334	
-0.404968	
-0.40448	
-0.403931	
-0.404541	
-0.403198	
-0.402649	
-0.402039	
-0.402649	
-0.402527	
-0.40271	
-0.397034	
-0.379883	
-0.37854	
-0.37854	
-0.380005	
-0.380798	
-0.387451	
-0.402222	
-0.403503	
-0.40564	
-0.404663	
-0.405579	
-0.404541	
-0.40332	
-0.403687	
-0.403015	
-0.403625	
-0.404114	
-0.403198	
-0.403198	
-0.403015	
-0.404419	
-0.403687	
-0.404541	
-0.403198	
-0.403381	
-0.403564	
-0.402161	
-0.404053	
-0.403992	
-0.403015	
-0.40271	
-0.401672	
-0.40387	
-0.403442	
-0.404297	
-0.403198	
-0.403442	
-0.403076	
-0.402954	
-0.404419	
-0.404419	
-0.403992	
-0.404419	
-0.403931	
-0.405884	
-0.405457	
-0.406555	
-0.405273	
-0.406128	
-0.406372	
-0.407104	
-0.40741	
-0.407959	
-0.407349	
-0.407593	
-0.406494	
-0.40741	
-0.407593	
-0.408813	
-0.405457	
-0.406677	
-0.406555	
-0.408325	
-0.40979	
-0.411255	
-0.414795	
-0.419189	
-0.421814	
-0.428406	
-0.434753	
-0.441711	
-0.446167	
-0.454102	
-0.460144	
-0.469299	
-0.477295	
-0.48114	
-0.485291	
-0.48938	
-0.494263	
-0.49646	
-0.499573	
-0.499329	
-0.499939	
-0.500061	
-0.500916	
-0.501648	
-0.501892	
-0.501099	
-0.501587	
-0.501099	
-0.501831	
-0.50238	
-0.503052	
-0.500244	
-0.500366	
-0.499268	
-0.499023	
-0.49884	
-0.496826	
-0.495605	
-0.494263	
-0.492126	
-0.491699	
-0.491455	
-0.490173	
-0.488525	
-0.487793	
-0.485901	
-0.487183	
-0.487915	
-0.485901	
-0.485352	
-0.48407	
-0.484314	
-0.482666	
-0.483215	
-0.480957	
-0.480591	
-0.479431	
-0.478394	
-0.478027	
-0.47699	
-0.475464	
-0.473633	
-0.470581	
-0.470215	
-0.467651	
-0.466248	
-0.46167	
-0.460449	
-0.457092	
-0.455139	
-0.454773	
-0.45282	
-0.451843	
-0.4505	
-0.448853	
-0.44928	
-0.449097	
-0.44873	
-0.447083	
-0.44751	
-0.444946	
-0.446167	
-0.446777	
-0.444397	
-0.443665	
-0.441895	
-0.440979	
-0.438904	
-0.438538	
-0.435303	
-0.433105	
-0.430664	
-0.426453	
-0.424255	
-0.421204	
-0.415161	
-0.410461	
-0.40448	
-0.398743	
-0.392944	
-0.386902	
-0.378784	
-0.371521	
-0.363586	
-0.353394	
-0.347595	
-0.340332	
-0.329834	
-0.322388	
-0.314453	
-0.30835	
-0.301941	
-0.297302	
-0.290283	
-0.286499	
-0.282654	
-0.278625	
-0.278381	
-0.277283	
-0.275757	
-0.276306	
-0.276611	
-0.27832	
-0.279907	
-0.281189	
-0.282288	
-0.284485	
-0.286621	
-0.291199	
-0.294556	
-0.297791	
-0.301453	
-0.305237	
-0.309143	
-0.31427	
-0.318481	
-0.321777	
-0.325623	
-0.328003	
-0.333679	
-0.337036	
-0.340088	
-0.343384	
-0.346008	
-0.349365	
-0.352539	
-0.355347	
-0.356018	
-0.35907	
-0.359314	
-0.362122	
-0.364746	
-0.365417	
-0.366699	
-0.367737	
-0.369141	
-0.370972	
-0.372803	
-0.371948	
-0.373901	
-0.373352	
-0.375488	
-0.376709	
-0.37677	
-0.377625	
-0.378235	
-0.378357	
-0.379761	
-0.381409	
-0.379761	
-0.380859	
-0.380615	
-0.382019	
-0.382385	
-0.383423	
-0.382263	
-0.382446	
-0.382568	
-0.382996	
-0.383789	
-0.382446	
-0.382568	
-0.381775	
-0.381653	
-0.382324	
-0.381409	
-0.38147	
-0.380493	
-0.379639	
-0.378784	
-0.379272	
-0.379211	
-0.378052	
-0.377197	
-0.375916	
-0.37677	
-0.376343	
-0.37677	
-0.375366	
-0.373962	
-0.375549	
-0.374329	
-0.374207	
-0.372864	
-0.373108	
-0.372009	
-0.371399	
-0.372803	
-0.371643	
-0.370483	
-0.369629	
-0.36969	
-0.367737	
-0.369507	
-0.368713	
-0.368408	
-0.366943	
-0.346924	
-0.345886	
-0.346313	
-0.346191	
-0.346863	
-0.350769	
-0.368958	
-0.372009	
-0.372742	
-0.37146	
-0.372437	
-0.371033	
-0.372864	
-0.37384	
-0.373901	
-0.374512	
-0.37384	
-0.374573	
-0.374512	
-0.37616	
-0.375366	
-0.376343	
-0.37677	
-0.376648	
-0.378113	
-0.379333	
-0.379639	
-0.379639	
-0.3797	
-0.381104	
-0.381592	
-0.381836	
-0.381287	
-0.38147	
-0.381897	
-0.382996	
-0.383301	
-0.38385	
-0.384705	
-0.384521	
-0.384766	
-0.386292	
-0.387085	
-0.386597	
-0.387634	
-0.388	
-0.389526	
-0.390015	
-0.391602	
-0.392273	
-0.392517	
-0.392883	
-0.393799	
-0.394104	
-0.392639	
-0.393677	
-0.393311	
-0.394226	
-0.394348	
-0.395142	
-0.394287	
-0.394897	
-0.396179	
-0.397705	
-0.400024	
-0.402405	
-0.407593	
-0.410767	
-0.41748	
-0.423218	
-0.429504	
-0.436035	
-0.442627	
-0.448975	
-0.4552	
-0.463257	
-0.466003	
-0.471863	
-0.476135	
-0.481445	
-0.485413	
-0.487671	
-0.490723	
-0.491882	
-0.492676	
-0.492126	
-0.492981	
-0.492004	
-0.490784	
-0.490356	
-0.488037	
-0.488037	
-0.486511	
-0.484802	
-0.483459	
-0.481812	
-0.480835	
-0.478149	
-0.477051	
-0.474487	
-0.472839	
-0.471191	
-0.469604	
-0.468811	
-0.467346	
-0.466309	
-0.466309	
-0.465881	
-0.464966	
-0.464294	
-0.465454	
-0.464539	
-0.464478	
-0.463745	
-0.463867	
-0.462891	
-0.462158	
-0.461243	
-0.459229	
-0.456604	
-0.45343	
-0.450928	
-0.446594	
-0.443481	
-0.440552	
-0.437195	
-0.435669	
-0.434143	
-0.432495	
-0.430908	
-0.43042	
-0.430237	
-0.428589	
-0.427979	
-0.427551	
-0.428101	
-0.427551	
-0.427185	
-0.428284	
-0.428345	
-0.428162	
-0.428284	
-0.42749	
-0.425232	
-0.423035	
-0.421753	
-0.418396	
-0.41571	
-0.411804	
-0.407532	
-0.403015	
-0.397156	
-0.391724	
-0.384705	
-0.376526	
-0.367859	
-0.360657	
-0.351379	
-0.342041	
-0.33252	
-0.324097	
-0.316284	
-0.308472	
-0.30127	
-0.294983	
-0.288696	
-0.281799	
-0.276062	
-0.271973	
-0.267273	
-0.264587	
-0.261841	
-0.260681	
-0.259583	
-0.259216	
-0.260132	
-0.26123	
-0.262329	
-0.264221	
-0.266174	
-0.268005	
-0.272339	
-0.275818	
-0.279236	
-0.283142	
-0.28772	
-0.292542	
-0.297241	
-0.302002	
-0.306519	
-0.310669	
-0.31604	
-0.320923	
-0.325378	
-0.329041	
-0.333679	
-0.337524	
-0.341858	
-0.345459	
-0.349365	
-0.35144	
-0.354126	
-0.355408	
-0.358704	
-0.360718	
-0.360718	
-0.363831	
-0.365234	
-0.367554	
-0.36853	
-0.371277	
-0.371033	
-0.372742	
-0.373352	
-0.374756	
-0.375427	
-0.376587	
-0.377319	
-0.378113	
-0.379456	
-0.379883	
-0.380188	
-0.380615	
-0.381836	
-0.381714	
-0.381409	
-0.383057	
-0.382019	
-0.38324	
-0.383667	
-0.384338	
-0.384888	
-0.385193	
-0.385437	
-0.384277	
-0.386108	
-0.384766	
-0.386047	
-0.385681	
-0.386475	
-0.386414	
-0.386292	
-0.38739	
-0.387329	
-0.387268	
-0.38678	
-0.38678	
-0.386108	
-0.385681	
-0.385315	
-0.383911	
-0.384521	
-0.384216	
-0.384277	
-0.384277	
-0.384338	
-0.383911	
-0.382935	
-0.383728	
-0.381714	
-0.382751	
-0.382568	
-0.382263	
-0.382629	
-0.382629	
-0.383301	
-0.383484	
-0.383057	
-0.381775	
-0.382568	
-0.381287	
-0.381592	
-0.381165	
-0.380676	
-0.380615	
-0.380737	
-0.380981	
-0.380737	
-0.380859	
-0.380127	
-0.380066	
-0.380371	
-0.3797	
-0.37915	
-0.37854	
-0.37915	
-0.378845	
-0.37854	
-0.379639	
-0.379272	
-0.379517	
-0.379089	
-0.378967	
-0.378723	
-0.379883	
-0.379517	
-0.380371	
-0.381653	
-0.381531	
-0.382446	
-0.383057	
-0.382996	
-0.381897	
-0.384949	
-0.383789	
-0.384644	
-0.385315	
-0.38623	
-0.38623	
-0.387146	
-0.386902	
-0.387634	
-0.387207	
-0.386047	
-0.388184	
-0.386536	
-0.38678	
-0.385986	
-0.387207	
-0.387268	
-0.387512	
-0.388184	
-0.388367	
-0.38916	
-0.388916	
-0.389282	
-0.389648	
-0.390442	
-0.390198	
-0.390869	
-0.391846	
-0.392578	
-0.391846	
-0.392212	
-0.392578	
-0.392822	
-0.39325	
-0.392517	
-0.394043	
-0.394165	
-0.394043	
-0.394348	
-0.395081	
-0.394348	
-0.394775	
-0.396301	
-0.39502	
-0.39563	
-0.396118	
-0.395996	
-0.394958	
-0.395874	
-0.396423	
-0.396667	
-0.396729	
-0.395874	
-0.396423	
-0.39679	
-0.396545	
-0.395874	
-0.394592	
-0.395142	
-0.395081	
-0.394775	
-0.395203	
-0.395508	
-0.395569	
-0.395508	
-0.396118	
-0.394287	
-0.39563	
-0.395386	
-0.39386	
-0.394409	
-0.394287	
-0.394287	
-0.394104	
-0.394165	
-0.39325	
-0.392822	
-0.393066	
-0.39209	
-0.391602	
-0.390747	
-0.391113	
-0.389709	
-0.390137	
-0.39093	
-0.391357	
-0.390442	
-0.390503	
-0.390442	
-0.391541	
-0.391602	
-0.391724	
-0.389648	
-0.391724	
-0.391052	
-0.391541	
-0.391846	
-0.391418	
-0.391479	
-0.391907	
-0.391968	
-0.392334	
-0.392456	
-0.392456	
-0.391541	
-0.391846	
-0.392456	
-0.393616	
-0.393921	
-0.393188	
-0.393372	
-0.394592	
-0.393372	
-0.394287	
-0.393616	
-0.392273	
-0.39325	
-0.39325	
-0.393982	
-0.394348	
-0.393921	
-0.394043	
-0.394287	
-0.394775	
-0.394897	
-0.396118	
-0.392883	
-0.395508	
-0.395142	
-0.395691	
-0.396545	
-0.395996	
-0.396179	
-0.396301	
-0.398071	
-0.396973	
-0.397217	
-0.395996	
-0.396545	
-0.39624	
-0.395508	
-0.397461	
-0.396301	
-0.395447	
-0.395447	
-0.396606	
-0.39563	
-0.396362	
-0.395996	
-0.395447	
-0.396606	
-0.396545	
-0.397583	
-0.397461	
-0.397766	
-0.397766	
-0.397949	
-0.398804	
-0.398682	
-0.399109	
-0.39801	
-0.398621	
-0.397339	
-0.398743	
-0.399963	
-0.398987	
-0.398926	
-0.398865	
-0.400208	
-0.399658	
-0.400818	
-0.397949	
-0.399597	
-0.399536	
-0.399292	
-0.400269	
-0.400269	
-0.40033	
-0.400146	
-0.400574	
-0.399902	
-0.399902	
-0.400269	
-0.398987	
-0.398987	
-0.398621	
-0.399109	
-0.399719	
-0.398682	
-0.398987	
-0.398804	
-0.399719	
-0.398926	
-0.399353	
-0.3974	
-0.398621	
-0.398315	
-0.397583	
-0.398254	
-0.397888	
-0.397766	
-0.398071	
-0.396912	
-0.397705	
-0.397705	
-0.397522	
-0.394836	
-0.397156	
-0.395813	
-0.396606	
-0.397766	
-0.397278	
-0.397034	
-0.3974	
-0.39856	
-0.396729	
-0.398071	
-0.397461	
-0.396912	
-0.397034	
-0.396667	
-0.397156	
-0.397156	
-0.397095	
-0.397156	
-0.396423	
-0.397217	
-0.396301	
-0.396484	
-0.393372	
-0.394348	
-0.394165	
-0.392883	
-0.394165	
-0.394165	
-0.394165	
-0.393982	
-0.393616	
-0.393738	
-0.393494	
-0.393311	
-0.391052	
-0.392578	
-0.392334	
-0.392883	
-0.393677	
-0.393188	
-0.393311	
-0.393127	
-0.394653	
-0.393738	
-0.394287	
-0.393494	
-0.393005	
-0.393372	
-0.393311	
-0.39447	
-0.394653	
-0.394714	
-0.394775	
-0.395386	
-0.396118	
-0.39502	
-0.395874	
-0.395569	
-0.39563	
-0.394653	
-0.396118	
-0.396729	
-0.396057	
-0.396973	
-0.396545	
-0.397095	
-0.396912	
-0.39801	
-0.396973	
-0.396973	
-0.397888	
-0.398499	
-0.399109	
-0.39978	
-0.399841	
-0.400452	
-0.399963	
-0.4021	
-0.401306	
-0.400452	
-0.400574	
-0.401245	
-0.400452	
-0.401123	
-0.402039	
-0.401367	
-0.401123	
-0.401184	
-0.402283	
-0.401917	
-0.401611	
-0.401245	
-0.400757	
-0.400635	
-0.400208	
-0.401489	
-0.401245	
-0.401306	
-0.401367	
-0.400696	
-0.401794	
-0.400696	
-0.401367	
-0.401184	
-0.400208	
-0.399902	
-0.400513	
-0.40155	
-0.400635	
-0.400696	
-0.400452	
-0.401184	
-0.401245	
-0.400879	
-0.400635	
-0.400574	
-0.399841	
-0.398804	
-0.399048	
-0.400208	
-0.39978	
-0.399963	
-0.398743	
-0.399902	
-0.400146	
-0.399719	
-0.398376	
-0.398499	
-0.398499	
-0.398193	
-0.398071	
-0.398376	
-0.398315	
-0.398254	
-0.398987	
-0.398743	
-0.398254	
-0.398438	
-0.398987	
-0.397949	
-0.398438	
-0.398743	
-0.399719	
-0.399231	
-0.39917	
-0.399109	
-0.400146	
-0.399536	
-0.398926	
-0.398193	
-0.398438	
-0.397217	
-0.396179	
-0.396423	
-0.396667	
-0.396362	
-0.396423	
-0.395569	
-0.395935	
-0.396362	
-0.39563	
-0.395081	
-0.395264	
-0.394592	
-0.394165	
-0.394836	
-0.394348	
-0.394165	
-0.394226	
-0.393677	
-0.394043	
-0.393494	
-0.394165	
-0.393494	
-0.3927	
-0.393433	
-0.393372	
-0.393982	
-0.39386	
-0.393921	
-0.394409	
-0.394592	
-0.395264	
-0.394714	
-0.39447	
-0.395264	
-0.395508	
-0.394775	
-0.395264	
-0.39502	
-0.39563	
-0.39563	
-0.395325	
-0.396057	
-0.396362	
-0.396423	
-0.396606	
-0.396484	
-0.397339	
-0.397461	
-0.398315	
-0.39856	
-0.39917	
-0.400024	
-0.399536	
-0.401001	
-0.400818	
-0.401245	
-0.401367	
-0.400757	
-0.400818	
-0.401245	
-0.400879	
-0.401428	
-0.401428	
-0.401428	
-0.40155	
-0.401733	
-0.400391	
-0.400269	
-0.401001	
-0.40094	
-0.400085	
-0.400818	
-0.400635	
-0.401001	
-0.401367	
-0.401611	
-0.401184	
-0.400635	
-0.400574	
-0.400452	
-0.399841	
-0.400024	
-0.399841	
-0.39978	
-0.401123	
-0.400208	
-0.400391	
-0.400452	
-0.400818	
-0.40033	
-0.400696	
-0.400146	
-0.399475	
-0.400024	
-0.400146	
-0.398926	
-0.399719	
-0.400024	
-0.399414	
-0.398682	
-0.399902	
-0.399292	
-0.399536	
-0.399231	
-0.398376	
-0.398315	
-0.39856	
-0.398499	
-0.39856	
-0.398621	
-0.398621	
-0.397705	
-0.399231	
-0.398193	
-0.397705	
-0.398804	
-0.398682	
-0.397827	
-0.398804	
-0.399963	
-0.399475	
-0.399719	
-0.399719	
-0.399719	
-0.399902	
-0.398987	
-0.397705	
-0.398132	
-0.397095	
-0.395813	
-0.396851	
-0.397461	
-0.397034	
-0.39679	
-0.397095	
-0.39679	
-0.396423	
-0.396912	
-0.395813	
-0.394592	
-0.395325	
-0.39563	
-0.394531	
-0.395996	
-0.395508	
-0.395447	
-0.395081	
-0.396057	
-0.394897	
-0.394653	
-0.395813	
-0.394775	
-0.394531	
-0.394836	
-0.396179	
-0.395325	
-0.395203	
-0.395508	
-0.395691	
-0.396545	
-0.395874	
-0.395447	
-0.396851	
-0.395935	
-0.395569	
-0.396179	
-0.397217	
-0.396667	
-0.396667	
-0.3974	
-0.397095	
-0.396729	
-0.3974	
-0.397278	
-0.396423	
-0.397461	
-0.397278	
-0.396606	
-0.398254	
-0.397766	
-0.398132	
-0.398132	
-0.398315	
-0.398193	
-0.398743	
-0.399048	
-0.397827	
-0.398254	
-0.397339	
-0.39801	
-0.398499	
-0.398499	
-0.398193	
-0.397095	
-0.398193	
-0.397644	
-0.397522	
-0.397888	
-0.397156	
-0.398193	
-0.398315	
-0.39917	
-0.399658	
-0.400391	
-0.401245	
-0.399353	
-0.400513	
-0.401123	
-0.400757	
-0.400085	
-0.401001	
-0.400269	
-0.40033	
-0.402039	
-0.401611	
-0.401917	
-0.401733	
-0.401672	
-0.401794	
-0.40155	
-0.401733	
-0.400635	
-0.401733	
-0.40033	
-0.401062	
-0.402466	
-0.401367	
-0.40155	
-0.401123	
-0.401672	
-0.400513	
-0.400452	
-0.40094	
-0.400085	
-0.399841	
-0.399841	
-0.400146	
-0.399902	
-0.399048	
-0.399658	
-0.39856	
-0.399963	
-0.398743	
-0.399475	
-0.399048	
-0.398682	
-0.398071	
-0.397766	
-0.398743	
-0.39801	
-0.397827	
-0.397827	
-0.395996	
-0.397034	
-0.395813	
-0.395447	
-0.394836	
-0.394348	
-0.393127	
-0.394043	
-0.394836	
-0.394287	
-0.394592	
-0.394287	
-0.394165	
-0.394287	
-0.393616	
-0.393616	
-0.393677	
-0.393799	
-0.393372	
-0.393066	
-0.39502	
-0.394226	
-0.394409	
-0.394287	
-0.395203	
-0.394043	
-0.393799	
-0.393616	
-0.393982	
-0.393738	
-0.394226	
-0.393738	
-0.394897	
-0.393799	
-0.39502	
-0.39447	
-0.39447	
-0.393982	
-0.394775	
-0.394775	
-0.394104	
-0.393188	
-0.394104	
-0.394226	
-0.395081	
-0.394836	
-0.395142	
-0.394592	
-0.395142	
-0.395569	
-0.395325	
-0.394409	
-0.395203	
-0.394653	
-0.395142	
-0.396118	
-0.396606	
-0.39679	
-0.397583	
-0.396729	
-0.396851	
-0.397217	
-0.3974	
-0.396973	
-0.396973	
-0.396667	
-0.396362	
-0.396973	
-0.396484	
-0.396606	
-0.395935	
-0.395996	
-0.395996	
-0.395142	
-0.395752	
-0.395508	
-0.395935	
-0.396179	
-0.395386	
-0.397827	
-0.397461	
-0.398071	
-0.397644	
-0.398071	
-0.39801	
-0.397522	
-0.398438	
-0.398193	
-0.398376	
-0.398254	
-0.398254	
-0.399658	
-0.399292	
-0.400208	
-0.399658	
-0.399902	
-0.400146	
-0.400024	
-0.399658	
-0.400452	
-0.399536	
-0.399902	
-0.400879	
-0.401184	
-0.401001	
-0.40094	
-0.400696	
-0.400452	
-0.39978	
-0.400269	
-0.398987	
-0.399292	
-0.398987	
-0.399231	
-0.399048	
-0.398743	
-0.398987	
-0.398376	
-0.397888	
-0.398499	
-0.397522	
-0.398071	
-0.397888	
-0.397217	
-0.397339	
-0.397156	
-0.397461	
-0.396606	
-0.397217	
-0.396423	
-0.396423	
-0.39502	
-0.394958	
-0.394287	
-0.393677	
-0.392761	
-0.393127	
-0.392395	
-0.393433	
-0.392517	
-0.393311	
-0.392273	
-0.393677	
-0.392273	
-0.392944	
-0.392761	
-0.392151	
-0.39209	
-0.392578	
-0.392029	
-0.393372	
-0.392883	
-0.393616	
-0.392517	
-0.3927	
-0.39209	
-0.392273	
-0.391968	
-0.392578	
-0.392273	
-0.392944	
-0.393799	
-0.393066	
-0.393188	
-0.393127	
-0.392761	
-0.393188	
-0.392639	
-0.393066	
-0.39209	
-0.392822	
-0.392944	
-0.393066	
-0.39386	
-0.393005	
-0.393372	
-0.392944	
-0.393066	
-0.393677	
-0.39325	
-0.393677	
-0.393494	
-0.393677	
-0.393616	
-0.392944	
-0.39502	
-0.393738	
-0.394958	
-0.394531	
-0.395203	
-0.394775	
-0.39502	
-0.395203	
-0.394531	
-0.393921	
-0.394531	
-0.394958	
-0.394958	
-0.394104	
-0.394287	
-0.392151	
-0.394287	
-0.393188	
-0.393005	
-0.393799	
-0.394409	
-0.393738	
-0.394592	
-0.395081	
-0.395447	
-0.395508	
-0.395874	
-0.394714	
-0.395508	
-0.395691	
-0.395569	
-0.396057	
-0.396484	
-0.396118	
-0.396118	
-0.397461	
-0.396484	
-0.396606	
-0.396423	
-0.397034	
-0.396667	
-0.396362	
-0.396667	
-0.397095	
-0.397522	
-0.396851	
-0.396851	
-0.39801	
-0.397339	
-0.397827	
-0.396912	
-0.397766	
-0.396729	
-0.396362	
-0.396423	
-0.396545	
-0.395325	
-0.395325	
-0.395081	
-0.396484	
-0.395813	
-0.396118	
-0.395081	
-0.395935	
-0.39502	
-0.395264	
-0.395386	
-0.395081	
-0.39447	
-0.39447	
-0.394287	
-0.394714	
-0.394409	
-0.393982	
-0.393433	
-0.394043	
-0.393738	
-0.394043	
-0.393616	
-0.393555	
-0.3927	
-0.39325	
-0.393066	
-0.393677	
-0.393799	
-0.393188	
-0.392456	
-0.393616	
-0.39325	
-0.393433	
-0.393433	
-0.393555	
-0.393433	
-0.393066	
-0.393494	
-0.393005	
-0.393921	
-0.391907	
-0.392273	
-0.391541	
-0.391663	
-0.39093	
-0.389893	
-0.389954	
-0.390137	
-0.389893	
-0.390564	
-0.389709	
-0.390442	
-0.389099	
-0.389587	
-0.388916	
-0.389465	
-0.388733	
-0.388977	
-0.387939	
-0.388306	
-0.388245	
-0.389587	
-0.388794	
-0.388916	
-0.38855	
-0.389404	
-0.388306	
-0.389099	
-0.389343	
-0.389099	
-0.388367	
-0.389526	
-0.388916	
-0.389893	
-0.390259	
-0.390198	
-0.389526	
-0.391174	
-0.389709	
-0.390686	
-0.390076	
-0.390381	
-0.389771	
-0.390625	
-0.390137	
-0.390869	
-0.391968	
-0.391113	
-0.390869	
-0.391724	
-0.392395	
-0.392456	
-0.392822	
-0.393677	
-0.394165	
-0.394043	
-0.395325	
-0.394775	
-0.395508	
-0.394958	
-0.395508	
-0.395264	
-0.39624	
-0.395752	
-0.39502	
-0.395264	
-0.395081	
-0.395081	
-0.396423	
-0.395203	
-0.395752	
-0.394653	
-0.395325	
-0.394165	
-0.394897	
-0.394897	
-0.395264	
-0.394531	
-0.394592	
-0.394531	
-0.395691	
-0.395081	
-0.394897	
-0.393677	
-0.394409	
-0.393555	
-0.394104	
-0.393616	
-0.394226	
-0.392944	
-0.394043	
-0.393372	
-0.394165	
-0.394348	
-0.394104	
-0.393066	
-0.393921	
-0.392883	
-0.393494	
-0.392395	
-0.392944	
-0.392151	
-0.392944	
-0.392517	
-0.392578	
-0.392761	
-0.392029	
-0.391296	
-0.391785	
-0.392639	
-0.391479	
-0.392212	
-0.390808	
-0.39093	
-0.390991	
-0.391968	
-0.391357	
-0.391357	
-0.390869	
-0.391846	
-0.390747	
-0.391907	
-0.391785	
-0.392517	
-0.391907	
-0.392334	
-0.391907	
-0.392639	
-0.392212	
-0.392029	
-0.391113	
-0.390808	
-0.390137	
-0.390198	
-0.389221	
-0.389343	
-0.389343	
-0.389038	
-0.387878	
-0.389465	
-0.388916	
-0.388184	
-0.388306	
-0.387695	
-0.387634	
-0.387207	
-0.386902	
-0.386902	
-0.385559	
-0.386658	
-0.386169	
-0.387268	
-0.386963	
-0.386047	
-0.386047	
-0.385681	
-0.38562	
-0.386108	
-0.385864	
-0.386292	
-0.385803	
-0.386902	
-0.386414	
-0.387024	
-0.388062	
-0.387573	
-0.38739	
-0.387756	
-0.389038	
-0.387512	
-0.388977	
-0.388184	
-0.388611	
-0.387939	
-0.389038	
-0.388855	
-0.389343	
-0.389221	
-0.390015	
-0.389221	
-0.390686	
-0.390747	
-0.391724	
-0.391357	
-0.392212	
-0.392578	
-0.393188	
-0.393005	
-0.393982	
-0.39386	
-0.393677	
-0.393677	
-0.394348	
-0.393005	
-0.39447	
-0.393433	
-0.39386	
-0.393738	
-0.393677	
-0.392761	
-0.393372	
-0.392639	
-0.393066	
-0.391968	
-0.393677	
-0.392517	
-0.394043	
-0.392822	
-0.393005	
-0.392944	
-0.392761	
-0.392822	
-0.392639	
-0.391418	
-0.392395	
-0.392273	
-0.392639	
-0.391479	
-0.392151	
-0.39093	
-0.392517	
-0.391846	
-0.39209	
-0.392883	
-0.391968	
-0.393066	
-0.39209	
-0.392822	
-0.392212	
-0.392578	
-0.391663	
-0.390442	
-0.391418	
-0.390991	
-0.391663	
-0.391785	
-0.391052	
-0.39209	
-0.390442	
-0.390625	
-0.390686	
-0.391785	
-0.390259	
-0.389954	
-0.390686	
-0.390991	
-0.390442	
-0.390442	
-0.390198	
-0.390991	
-0.391235	
-0.3927	
-0.390869	
-0.391479	
-0.391052	
-0.390808	
-0.391052	
-0.391479	
-0.391296	
-0.389954	
-0.390198	
-0.389954	
-0.389771	
-0.390381	
-0.388062	
-0.389221	
-0.388489	
-0.388977	
-0.389404	
-0.388733	
-0.388794	
-0.387756	
-0.388672	
-0.388062	
-0.387756	
-0.387817	
-0.386719	
-0.387695	
-0.38739	
-0.387634	
-0.387146	
-0.387634	
-0.388245	
-0.387451	
-0.387573	
-0.386902	
-0.387085	
-0.387512	
-0.388	
-0.387573	
-0.387634	
-0.388245	
-0.386963	
-0.388611	
-0.388916	
-0.387695	
-0.389282	
-0.388855	
-0.388855	
-0.388367	
-0.388977	
-0.388733	
-0.388184	
-0.389282	
-0.389648	
-0.389954	
-0.390015	
-0.389465	
-0.390259	
-0.389709	
-0.390808	
-0.390259	
-0.391357	
-0.390625	
-0.390808	
-0.39093	
-0.390808	
-0.391052	
-0.391174	
-0.390869	
-0.391968	
-0.390564	
-0.391541	
-0.390198	
-0.391785	
-0.390198	
	
