E:\DOCUMENTS AND SETTINGS\JPOTAS\MEUS DOCUMENTOS\UFRJ\RSCI-BM 12 WK SERIES\070730-RSCI-BM-09\RSCI-BM-09-LEMG\070730-RSCI-BM-09-LEMG-0004.ACQ
0.025000 msec/sample
1 channel
Analog input
Volts
CH1	
2000	
-0.40918	
-0.410095	
-0.409729	
-0.409119	
-0.408691	
-0.407654	
-0.408325	
-0.40918	
-0.40918	
-0.408508	
-0.40802	
-0.408203	
-0.408508	
-0.409668	
-0.408264	
-0.408691	
-0.407593	
-0.406494	
-0.407715	
-0.40863	
-0.408325	
-0.407654	
-0.406982	
-0.407104	
-0.407654	
-0.408386	
-0.407532	
-0.406921	
-0.405212	
-0.404663	
-0.404785	
-0.404297	
-0.404907	
-0.403564	
-0.403015	
-0.403259	
-0.403381	
-0.403992	
-0.40332	
-0.402649	
-0.402649	
-0.401489	
-0.402039	
-0.401733	
-0.40271	
-0.4021	
-0.402222	
-0.402527	
-0.402771	
-0.404541	
-0.404114	
-0.404175	
-0.404785	
-0.404053	
-0.404663	
-0.405334	
-0.405945	
-0.405029	
-0.405579	
-0.404724	
-0.405151	
-0.406433	
-0.406555	
-0.405945	
-0.406555	
-0.404785	
-0.405823	
-0.406799	
-0.405701	
-0.40625	
-0.406189	
-0.405273	
-0.405273	
-0.407288	
-0.407227	
-0.406555	
-0.406616	
-0.405334	
-0.407043	
-0.407471	
-0.40686	
-0.407593	
-0.407715	
-0.406982	
-0.40741	
-0.408569	
-0.408875	
-0.408142	
-0.408447	
-0.407837	
-0.407471	
-0.407898	
-0.408386	
-0.408569	
-0.408813	
-0.407593	
-0.407776	
-0.408447	
-0.40863	
-0.407593	
-0.407654	
-0.407776	
-0.407349	
-0.407288	
-0.407471	
-0.407593	
-0.407349	
-0.40686	
-0.406738	
-0.407166	
-0.408264	
-0.407166	
-0.406921	
-0.407288	
-0.406128	
-0.406982	
-0.407776	
-0.407654	
-0.40686	
-0.406738	
-0.407349	
-0.407227	
-0.408325	
-0.407837	
-0.40802	
-0.407837	
-0.405823	
-0.408447	
-0.409241	
-0.40802	
-0.408264	
-0.408142	
-0.408508	
-0.407227	
-0.409607	
-0.409302	
-0.408936	
-0.408752	
-0.40802	
-0.408875	
-0.410217	
-0.409485	
-0.409607	
-0.408752	
-0.408936	
-0.408325	
-0.410034	
-0.410461	
-0.409973	
-0.410339	
-0.410583	
-0.411072	
-0.411133	
-0.411316	
-0.41095	
-0.410278	
-0.409363	
-0.410522	
-0.411011	
-0.411743	
-0.410583	
-0.410522	
-0.4104	
-0.410339	
-0.410645	
-0.410156	
-0.409058	
-0.409119	
-0.407288	
-0.407166	
-0.407593	
-0.408936	
-0.406372	
-0.40564	
-0.405457	
-0.405334	
-0.404907	
-0.404846	
-0.404541	
-0.403625	
-0.403687	
-0.402893	
-0.402893	
-0.40387	
-0.402344	
-0.402283	
-0.402039	
-0.400818	
-0.402405	
-0.402649	
-0.402405	
-0.401917	
-0.401672	
-0.401794	
-0.401672	
-0.402832	
-0.40155	
-0.397461	
-0.381104	
-0.378784	
-0.379272	
-0.380371	
-0.380493	
-0.386475	
-0.401672	
-0.40387	
-0.404907	
-0.406372	
-0.404419	
-0.399536	
-0.384033	
-0.381226	
-0.381531	
-0.382874	
-0.383606	
-0.388	
-0.404419	
-0.407166	
-0.407898	
-0.409119	
-0.407898	
-0.408142	
-0.407959	
-0.409668	
-0.409363	
-0.40979	
-0.409241	
-0.40918	
-0.409485	
-0.408447	
-0.408264	
-0.410583	
-0.40918	
-0.408813	
-0.407959	
-0.407715	
-0.408386	
-0.408936	
-0.408508	
-0.406738	
-0.407532	
-0.406189	
-0.407288	
-0.40863	
-0.407471	
-0.407227	
-0.407227	
-0.407715	
-0.408508	
-0.408691	
-0.408813	
-0.408264	
-0.408386	
-0.407532	
-0.408386	
-0.410156	
-0.40918	
-0.409119	
-0.409302	
-0.408447	
-0.410522	
-0.411499	
-0.413025	
-0.412903	
-0.415649	
-0.416931	
-0.420654	
-0.424438	
-0.425903	
-0.428955	
-0.431458	
-0.435181	
-0.437988	
-0.442627	
-0.445862	
-0.446899	
-0.448242	
-0.450012	
-0.453125	
-0.456726	
-0.458435	
-0.459595	
-0.460449	
-0.463257	
-0.463989	
-0.465027	
-0.465576	
-0.466187	
-0.465942	
-0.466614	
-0.468384	
-0.469299	
-0.468689	
-0.469727	
-0.469238	
-0.471619	
-0.472534	
-0.474304	
-0.474548	
-0.47583	
-0.476807	
-0.478516	
-0.481018	
-0.481323	
-0.482666	
-0.483154	
-0.483459	
-0.485657	
-0.487061	
-0.488281	
-0.487427	
-0.489014	
-0.487915	
-0.488525	
-0.489685	
-0.488831	
-0.488281	
-0.487915	
-0.486755	
-0.486389	
-0.48584	
-0.484192	
-0.48053	
-0.479675	
-0.477112	
-0.475952	
-0.47522	
-0.471863	
-0.469482	
-0.467041	
-0.464844	
-0.46283	
-0.462097	
-0.460815	
-0.458435	
-0.459045	
-0.458374	
-0.458923	
-0.45929	
-0.458984	
-0.459717	
-0.460083	
-0.462158	
-0.463074	
-0.464661	
-0.465698	
-0.46521	
-0.466919	
-0.467834	
-0.470093	
-0.470886	
-0.471008	
-0.471741	
-0.471558	
-0.473083	
-0.473267	
-0.474426	
-0.473572	
-0.472778	
-0.473206	
-0.473083	
-0.47406	
-0.472412	
-0.470642	
-0.468018	
-0.463867	
-0.460693	
-0.455383	
-0.450684	
-0.445068	
-0.438904	
-0.432739	
-0.426453	
-0.421143	
-0.415161	
-0.407959	
-0.401184	
-0.394165	
-0.389709	
-0.384338	
-0.379944	
-0.374146	
-0.366882	
-0.362549	
-0.357544	
-0.354553	
-0.35144	
-0.348022	
-0.346191	
-0.345154	
-0.346069	
-0.345825	
-0.346008	
-0.346069	
-0.345581	
-0.34613	
-0.346069	
-0.347961	
-0.34906	
-0.349365	
-0.350159	
-0.352112	
-0.354553	
-0.356445	
-0.358765	
-0.359741	
-0.361633	
-0.363159	
-0.366516	
-0.369202	
-0.36969	
-0.371399	
-0.372437	
-0.37616	
-0.378235	
-0.379822	
-0.380432	
-0.380554	
-0.381897	
-0.38269	
-0.385071	
-0.384583	
-0.385254	
-0.385254	
-0.385925	
-0.386475	
-0.38739	
-0.387451	
-0.387939	
-0.388062	
-0.388306	
-0.390198	
-0.391418	
-0.391174	
-0.391357	
-0.392273	
-0.391785	
-0.39386	
-0.394409	
-0.394653	
-0.394531	
-0.394348	
-0.394592	
-0.396179	
-0.396423	
-0.395935	
-0.396362	
-0.396667	
-0.396851	
-0.397827	
-0.398071	
-0.398193	
-0.396667	
-0.396667	
-0.397095	
-0.397156	
-0.396667	
-0.395691	
-0.394653	
-0.394409	
-0.39447	
-0.395081	
-0.393677	
-0.392822	
-0.392273	
-0.390625	
-0.391113	
-0.390991	
-0.39032	
-0.389587	
-0.389282	
-0.387756	
-0.387695	
-0.388184	
-0.387451	
-0.386536	
-0.385925	
-0.385437	
-0.386169	
-0.386963	
-0.386536	
-0.385803	
-0.385681	
-0.385864	
-0.385986	
-0.386597	
-0.38623	
-0.385498	
-0.384766	
-0.385071	
-0.386108	
-0.386108	
-0.385071	
-0.385132	
-0.385071	
-0.385254	
-0.386292	
-0.387146	
-0.386536	
-0.386658	
-0.38623	
-0.388062	
-0.389404	
-0.390259	
-0.390686	
-0.391174	
-0.391602	
-0.392029	
-0.393372	
-0.394836	
-0.394531	
-0.394653	
-0.394348	
-0.395752	
-0.396851	
-0.397705	
-0.397949	
-0.397156	
-0.397827	
-0.398376	
-0.398865	
-0.399475	
-0.398926	
-0.398987	
-0.398499	
-0.399231	
-0.399902	
-0.400208	
-0.40033	
-0.399414	
-0.40033	
-0.40094	
-0.401062	
-0.401978	
-0.401855	
-0.401001	
-0.40094	
-0.401245	
-0.401611	
-0.401794	
-0.401001	
-0.400452	
-0.401489	
-0.401733	
-0.4021	
-0.401794	
-0.401245	
-0.400818	
-0.399475	
-0.399963	
-0.400208	
-0.400635	
-0.399719	
-0.398315	
-0.398193	
-0.398743	
-0.398743	
-0.398926	
-0.398193	
-0.397644	
-0.397278	
-0.397278	
-0.397644	
-0.397583	
-0.3974	
-0.396057	
-0.397156	
-0.397583	
-0.397949	
-0.398865	
-0.398193	
-0.398376	
-0.398132	
-0.398499	
-0.399658	
-0.399292	
-0.399536	
-0.398499	
-0.399231	
-0.400024	
-0.399658	
-0.401123	
-0.400513	
-0.400024	
-0.39978	
-0.399963	
-0.400024	
-0.400635	
-0.399841	
-0.399109	
-0.399658	
-0.399597	
-0.399902	
-0.401001	
-0.40033	
-0.399536	
-0.399231	
-0.399719	
-0.399841	
-0.399963	
-0.399658	
-0.399475	
-0.400208	
-0.40033	
-0.400879	
-0.402405	
-0.401794	
-0.400818	
-0.401062	
-0.401855	
-0.402405	
-0.403076	
-0.402283	
-0.402039	
-0.402222	
-0.402161	
-0.402954	
-0.403748	
-0.403015	
-0.402588	
-0.401672	
-0.402222	
-0.402649	
-0.402771	
-0.401367	
-0.400818	
-0.400452	
-0.400879	
-0.400513	
-0.401672	
-0.401001	
-0.400208	
-0.399719	
-0.400269	
-0.400024	
-0.40033	
-0.399353	
-0.398621	
-0.399841	
-0.400208	
-0.401184	
-0.40155	
-0.401184	
-0.40094	
-0.400513	
-0.401978	
-0.4021	
-0.402222	
-0.402222	
-0.402649	
-0.402649	
-0.40332	
-0.40448	
-0.406067	
-0.405151	
-0.405579	
-0.406372	
-0.406616	
-0.407227	
-0.407593	
-0.406616	
-0.40741	
-0.406982	
-0.407837	
-0.40802	
-0.408386	
-0.407104	
-0.407715	
-0.406677	
-0.407715	
-0.407959	
-0.408142	
-0.406799	
-0.407227	
-0.406799	
-0.407349	
-0.408508	
-0.407959	
-0.407166	
-0.406921	
-0.406494	
-0.40686	
-0.407288	
-0.406433	
-0.406128	
-0.406799	
-0.405518	
-0.406433	
-0.407532	
-0.407715	
-0.406921	
-0.406067	
-0.405701	
-0.405884	
-0.405457	
-0.404907	
-0.402954	
-0.404297	
-0.402222	
-0.403259	
-0.404053	
-0.403687	
-0.402405	
-0.402283	
-0.401978	
-0.401978	
-0.402405	
-0.401733	
-0.401733	
-0.401245	
-0.400818	
-0.401917	
-0.402466	
-0.403198	
-0.402344	
-0.402649	
-0.403015	
-0.40332	
-0.40387	
-0.403442	
-0.403687	
-0.404114	
-0.403503	
-0.404785	
-0.405762	
-0.406738	
-0.405151	
-0.405273	
-0.404724	
-0.404785	
-0.406494	
-0.405151	
-0.405518	
-0.405945	
-0.40564	
-0.405579	
-0.406189	
-0.407715	
-0.406006	
-0.406006	
-0.405518	
-0.405579	
-0.407043	
-0.406494	
-0.407166	
-0.407349	
-0.406311	
-0.406921	
-0.407837	
-0.408691	
-0.407532	
-0.407593	
-0.406921	
-0.407104	
-0.408569	
-0.407349	
-0.408081	
-0.40802	
-0.408142	
-0.408264	
-0.408569	
-0.409302	
-0.40802	
-0.407715	
-0.40741	
-0.406799	
-0.407654	
-0.406982	
-0.407288	
-0.407166	
-0.407043	
-0.406982	
-0.408203	
-0.408386	
-0.407288	
-0.406555	
-0.407227	
-0.407104	
-0.407288	
-0.406433	
-0.407104	
-0.406799	
-0.40741	
-0.407349	
-0.407776	
-0.408447	
-0.40741	
-0.407837	
-0.407104	
-0.406311	
-0.404785	
-0.406494	
-0.407593	
-0.407532	
-0.408203	
-0.408264	
-0.409119	
-0.409058	
-0.409424	
-0.408569	
-0.408386	
-0.408752	
-0.409363	
-0.408142	
-0.409119	
-0.409058	
-0.409485	
-0.40918	
-0.410095	
-0.409241	
-0.409668	
-0.409668	
-0.409546	
-0.409668	
-0.410522	
-0.409668	
-0.410889	
-0.410706	
-0.410706	
-0.411255	
-0.411804	
-0.411743	
-0.412598	
-0.411438	
-0.410461	
-0.411194	
-0.411865	
-0.410583	
-0.410522	
-0.410461	
-0.410522	
-0.4104	
-0.410767	
-0.410095	
-0.410156	
-0.408875	
-0.407593	
-0.407837	
-0.407715	
-0.406921	
-0.406494	
-0.405762	
-0.404907	
-0.405762	
-0.405884	
-0.405273	
-0.404968	
-0.403687	
-0.403992	
-0.403076	
-0.403809	
-0.402954	
-0.402893	
-0.402832	
-0.402771	
-0.402832	
-0.403198	
-0.403076	
-0.399536	
-0.401794	
-0.401123	
-0.4021	
-0.401917	
-0.402161	
-0.401794	
-0.401978	
-0.402222	
-0.402161	
-0.402832	
-0.403259	
-0.40271	
-0.402405	
-0.4021	
-0.402649	
-0.402649	
-0.402283	
-0.402588	
-0.403076	
-0.403015	
-0.403442	
-0.403992	
-0.403564	
-0.40448	
-0.404785	
-0.403198	
-0.403931	
-0.405945	
-0.401611	
-0.404053	
-0.402954	
-0.406555	
-0.406799	
-0.408142	
-0.407593	
-0.408386	
-0.407043	
-0.406555	
-0.408569	
-0.408691	
-0.407837	
-0.407959	
-0.407532	
-0.404846	
-0.408447	
-0.406921	
-0.406677	
-0.404968	
-0.405701	
-0.401733	
-0.404358	
-0.405579	
-0.405029	
-0.405518	
-0.404541	
-0.405884	
-0.405334	
-0.406006	
-0.403503	
-0.406494	
-0.400269	
-0.40509	
-0.405762	
-0.407715	
-0.402771	
-0.406006	
-0.402161	
-0.40564	
-0.403748	
-0.407043	
-0.406738	
-0.407349	
-0.406311	
-0.404724	
-0.406555	
-0.406433	
-0.405396	
-0.405945	
-0.405029	
-0.405884	
-0.405701	
-0.405945	
-0.40564	
-0.405334	
-0.405212	
-0.403625	
-0.405212	
-0.403992	
-0.404419	
-0.40448	
-0.403809	
-0.404846	
-0.404907	
-0.405579	
-0.405273	
-0.405457	
-0.404846	
-0.403625	
-0.406433	
-0.406128	
-0.405762	
-0.406494	
-0.406921	
-0.406982	
-0.407043	
-0.407654	
-0.407593	
-0.407654	
-0.407837	
-0.407043	
-0.408386	
-0.406555	
-0.40741	
-0.40741	
-0.406433	
-0.406738	
-0.406616	
-0.407166	
-0.406372	
-0.406921	
-0.405823	
-0.405396	
-0.40625	
-0.404236	
-0.405334	
-0.404846	
-0.403809	
-0.403687	
-0.403137	
-0.402771	
-0.402527	
-0.401733	
-0.401489	
-0.400085	
-0.401245	
-0.400391	
-0.40033	
-0.398987	
-0.400513	
-0.400574	
-0.400391	
-0.400635	
-0.401062	
-0.400757	
-0.400635	
-0.400391	
-0.401306	
-0.40033	
-0.40033	
-0.400024	
-0.40094	
-0.400879	
-0.401306	
-0.401978	
-0.401855	
-0.401489	
-0.402161	
-0.401306	
-0.4021	
-0.401672	
-0.401367	
-0.400635	
-0.402039	
-0.402161	
-0.4021	
-0.402588	
-0.403503	
-0.403076	
-0.403381	
-0.403381	
-0.405212	
-0.40448	
-0.405212	
-0.405457	
-0.405945	
-0.40564	
-0.406311	
-0.407043	
-0.407166	
-0.406555	
-0.407349	
-0.406799	
-0.408325	
-0.407104	
-0.407898	
-0.407776	
-0.40741	
-0.407166	
-0.406982	
-0.407288	
-0.40741	
-0.40625	
-0.406067	
-0.404358	
-0.406189	
-0.404602	
-0.404297	
-0.403809	
-0.403992	
-0.404114	
-0.404175	
-0.404175	
-0.404358	
-0.403687	
-0.403931	
-0.403137	
-0.404968	
-0.403381	
-0.403015	
-0.402954	
-0.40271	
-0.403198	
-0.40271	
-0.403259	
-0.403687	
-0.402588	
-0.402771	
-0.401123	
-0.402954	
-0.401428	
-0.402161	
-0.401917	
-0.401733	
-0.401733	
-0.401794	
-0.4021	
-0.401978	
-0.401978	
-0.402405	
-0.400513	
-0.402283	
-0.401245	
-0.401306	
-0.400879	
-0.400269	
-0.401733	
-0.401672	
-0.401917	
-0.402893	
-0.401917	
-0.402283	
-0.401123	
-0.401855	
-0.40155	
-0.402039	
-0.402039	
-0.40033	
-0.401978	
-0.402161	
-0.402405	
-0.40271	
-0.402405	
-0.402893	
-0.401428	
-0.402405	
-0.401733	
-0.401733	
-0.401855	
-0.401245	
-0.401794	
-0.4021	
-0.401978	
-0.402954	
-0.401794	
-0.402222	
-0.401367	
-0.401611	
-0.401001	
-0.401489	
-0.401367	
-0.399048	
-0.400635	
-0.400818	
-0.400757	
-0.40094	
-0.400696	
-0.401123	
-0.400391	
-0.399963	
-0.399902	
-0.400146	
-0.399475	
-0.398254	
-0.399902	
-0.400024	
-0.400085	
-0.400879	
-0.400085	
-0.400513	
-0.399109	
-0.399109	
-0.398438	
-0.398315	
-0.398254	
-0.39679	
-0.397888	
-0.397827	
-0.398193	
-0.399048	
-0.398193	
-0.398438	
-0.398193	
-0.398804	
-0.39801	
-0.397827	
-0.398315	
-0.397705	
-0.399475	
-0.400513	
-0.400818	
-0.401672	
-0.402405	
-0.402649	
-0.402344	
-0.403137	
-0.403198	
-0.402893	
-0.404114	
-0.402344	
-0.404602	
-0.405396	
-0.405212	
-0.406128	
-0.406982	
-0.406128	
-0.406067	
-0.406433	
-0.406433	
-0.405029	
-0.406189	
-0.404846	
-0.40625	
-0.406494	
-0.406189	
-0.407288	
-0.407471	
-0.407227	
-0.407043	
-0.406311	
-0.406555	
-0.406128	
-0.40686	
-0.405457	
-0.40625	
-0.406677	
-0.407288	
-0.407715	
-0.407898	
-0.406677	
-0.407043	
-0.405884	
-0.406738	
-0.405823	
-0.406128	
-0.405396	
-0.406189	
-0.405884	
-0.404846	
-0.404785	
-0.405762	
-0.404419	
-0.403748	
-0.403992	
-0.403503	
-0.402405	
-0.402832	
-0.401001	
-0.402161	
-0.4021	
-0.401917	
-0.402222	
-0.402771	
-0.401917	
-0.401733	
-0.401001	
-0.401672	
-0.401306	
-0.402222	
-0.401245	
-0.4021	
-0.402527	
-0.402588	
-0.403015	
-0.403992	
-0.403381	
-0.403259	
-0.403137	
-0.403625	
-0.402649	
-0.403015	
-0.401733	
-0.403198	
-0.403015	
-0.40332	
-0.403442	
-0.404236	
-0.402771	
-0.403381	
-0.402649	
-0.403381	
-0.402466	
-0.402344	
-0.401001	
-0.402222	
-0.402344	
-0.402405	
-0.402588	
-0.403748	
-0.402771	
-0.402954	
-0.402954	
-0.402954	
-0.40271	
-0.402954	
-0.4021	
-0.40332	
-0.403809	
-0.404297	
-0.404236	
-0.405151	
-0.404541	
-0.405334	
-0.40448	
-0.404419	
-0.404114	
-0.40387	
-0.402893	
-0.404358	
-0.40448	
-0.404053	
-0.403992	
-0.40448	
-0.403198	
-0.403259	
-0.402771	
-0.402039	
-0.401367	
-0.401428	
-0.400635	
-0.401428	
-0.400635	
-0.400818	
-0.401123	
-0.401611	
-0.400757	
-0.401794	
-0.401489	
-0.399841	
-0.401184	
-0.401794	
-0.400818	
-0.401855	
-0.401978	
-0.402161	
-0.402222	
-0.403076	
-0.403076	
-0.403931	
-0.403564	
-0.403687	
-0.40448	
-0.405029	
-0.405334	
-0.406372	
-0.40686	
-0.407043	
-0.407471	
-0.407898	
-0.407776	
-0.408386	
-0.407471	
-0.40686	
-0.406982	
-0.40686	
-0.406677	
-0.407532	
-0.407227	
-0.407166	
-0.407654	
-0.407654	
-0.407043	
-0.407593	
-0.407288	
-0.406494	
-0.407104	
-0.405884	
-0.40625	
-0.406128	
-0.406372	
-0.406494	
-0.405884	
-0.406555	
-0.406128	
-0.406067	
-0.405823	
-0.405518	
-0.405701	
-0.404907	
-0.405579	
-0.404358	
-0.405029	
-0.405273	
-0.404175	
-0.403748	
-0.403625	
-0.402527	
-0.403076	
-0.402405	
-0.402161	
-0.401672	
-0.401123	
-0.399841	
-0.401001	
-0.400818	
-0.400513	
-0.400696	
-0.401123	
-0.400452	
-0.400818	
-0.400208	
-0.400635	
-0.400696	
-0.400696	
-0.401001	
-0.401611	
-0.401611	
-0.401794	
-0.403015	
-0.403381	
-0.403076	
-0.404175	
-0.402466	
-0.403259	
-0.403442	
-0.403076	
-0.402222	
-0.403992	
-0.404114	
-0.404236	
-0.404114	
-0.405151	
-0.404602	
-0.404907	
-0.403503	
-0.404724	
-0.403992	
-0.40448	
-0.404053	
-0.404419	
-0.404602	
-0.404846	
-0.405457	
-0.406128	
-0.405029	
-0.405212	
-0.404602	
-0.406067	
-0.405701	
-0.405029	
-0.40448	
-0.40564	
-0.406006	
-0.406433	
-0.407227	
-0.406616	
-0.405945	
-0.406311	
-0.40625	
-0.40564	
-0.406311	
-0.405151	
-0.405396	
-0.405457	
-0.40564	
-0.405518	
-0.406311	
-0.405945	
-0.404907	
-0.404724	
-0.405396	
-0.405579	
-0.405029	
-0.403931	
-0.40387	
-0.404846	
-0.40509	
-0.405212	
-0.405823	
-0.404968	
-0.404846	
-0.405212	
-0.405579	
-0.404602	
-0.405212	
-0.404907	
-0.404358	
-0.40448	
-0.405518	
-0.405823	
-0.40564	
-0.405762	
-0.405701	
-0.40564	
-0.407104	
-0.406372	
-0.406494	
-0.406433	
-0.406128	
-0.405701	
-0.407227	
-0.407166	
-0.407043	
-0.407104	
-0.40741	
-0.406921	
-0.408386	
-0.407349	
-0.407715	
-0.40686	
-0.406799	
-0.407288	
-0.407715	
-0.408081	
-0.408386	
-0.408875	
-0.408447	
-0.408081	
-0.410217	
-0.409912	
-0.408813	
-0.408936	
-0.408508	
-0.407532	
-0.408936	
-0.409424	
-0.408875	
-0.408569	
-0.40918	
-0.407593	
-0.408875	
-0.408508	
-0.407043	
-0.406921	
-0.405823	
-0.40509	
-0.405396	
-0.405579	
-0.404663	
-0.404236	
-0.403992	
-0.403259	
-0.402893	
-0.402649	
-0.402039	
-0.401489	
-0.40033	
-0.398804	
-0.400696	
-0.401794	
-0.400696	
-0.400574	
-0.401794	
-0.401062	
-0.400818	
-0.401062	
-0.401123	
-0.400391	
-0.400085	
-0.399048	
-0.399963	
-0.400696	
-0.399963	
-0.399963	
-0.400635	
-0.399719	
-0.399841	
-0.400391	
-0.39917	
-0.399475	
-0.398926	
-0.398804	
-0.400635	
-0.400757	
-0.400513	
-0.400452	
-0.400269	
-0.400574	
-0.401062	
-0.402283	
-0.401306	
-0.402161	
-0.401489	
-0.401672	
-0.402954	
-0.403015	
-0.402832	
-0.403442	
-0.40387	
-0.404236	
-0.404846	
-0.405823	
-0.405151	
-0.405457	
-0.404907	
-0.404907	
-0.405762	
-0.405579	
-0.405762	
-0.405518	
-0.40448	
-0.405212	
-0.404297	
-0.404968	
-0.404358	
-0.403931	
-0.403992	
-0.40332	
-0.404297	
-0.403625	
-0.403259	
-0.403198	
-0.402466	
-0.40387	
-0.403625	
-0.404358	
-0.404724	
-0.40332	
-0.403625	
-0.402954	
-0.404419	
-0.404053	
-0.403625	
-0.404053	
-0.40332	
-0.404907	
-0.404114	
-0.404541	
-0.40564	
-0.404175	
-0.404114	
-0.402771	
-0.404419	
-0.404236	
-0.403625	
-0.403809	
-0.403931	
-0.404419	
-0.403442	
-0.403931	
-0.404053	
-0.402588	
-0.402466	
-0.401245	
-0.40332	
-0.402283	
-0.402222	
-0.402588	
-0.402832	
-0.403809	
-0.403137	
-0.402954	
-0.404419	
-0.403076	
-0.403198	
-0.402649	
-0.403198	
-0.403931	
-0.404724	
-0.404419	
-0.404968	
-0.405273	
-0.405212	
-0.405945	
-0.406799	
-0.404602	
-0.405701	
-0.405518	
-0.405212	
-0.405457	
-0.405701	
-0.405396	
-0.405151	
-0.406128	
-0.405334	
-0.404663	
-0.406372	
-0.404968	
-0.404419	
-0.403442	
-0.40387	
-0.403381	
-0.402832	
-0.4021	
-0.402283	
-0.401978	
-0.401062	
-0.400879	
-0.401733	
-0.398621	
-0.399048	
-0.398438	
-0.398682	
-0.398743	
-0.398743	
-0.398621	
-0.399353	
-0.399597	
-0.398804	
-0.399292	
-0.400452	
-0.39917	
-0.398926	
-0.398865	
-0.398743	
-0.398926	
-0.399109	
-0.398315	
-0.399353	
-0.399963	
-0.399902	
-0.399963	
-0.400818	
-0.399414	
-0.400085	
-0.399963	
-0.398987	
-0.400085	
-0.399902	
-0.399963	
-0.400452	
-0.40094	
-0.400513	
-0.401184	
-0.402405	
-0.402161	
-0.402527	
-0.403076	
-0.402283	
-0.402832	
-0.403931	
-0.402893	
-0.404358	
-0.40564	
-0.404907	
-0.40564	
-0.406494	
-0.405762	
-0.405334	
-0.405823	
-0.405273	
-0.40509	
-0.406067	
-0.405151	
-0.406128	
-0.406616	
-0.405823	
-0.405151	
-0.405518	
-0.404541	
-0.404785	
-0.404785	
-0.401978	
-0.402405	
-0.402832	
-0.402222	
-0.403931	
-0.403198	
-0.40271	
-0.40271	
-0.403748	
-0.402527	
-0.402893	
-0.40271	
-0.401062	
-0.401855	
-0.401978	
-0.402039	
-0.401672	
-0.402039	
-0.401672	
-0.401489	
-0.4021	
-0.401489	
-0.402161	
-0.402344	
-0.399597	
-0.401062	
-0.400757	
-0.40155	
-0.400513	
-0.400696	
-0.400391	
-0.400635	
-0.401306	
-0.400269	
-0.401123	
-0.401123	
-0.399353	
-0.40033	
-0.400024	
-0.400757	
-0.400269	
-0.400757	
-0.400146	
-0.400269	
-0.400818	
-0.399963	
-0.401733	
-0.400208	
-0.400024	
-0.400696	
-0.401489	
-0.400696	
-0.401123	
-0.401428	
-0.401062	
-0.401245	
-0.401855	
-0.401978	
-0.402283	
-0.401733	
-0.40033	
-0.401062	
-0.401184	
-0.401367	
-0.401306	
-0.401306	
-0.401062	
-0.401184	
-0.401367	
-0.401855	
-0.402161	
-0.401367	
-0.400146	
-0.400146	
-0.400085	
-0.400085	
-0.399841	
-0.399902	
-0.400696	
-0.400024	
-0.399841	
-0.399841	
-0.401001	
-0.400085	
-0.397888	
-0.398621	
-0.39856	
-0.399353	
-0.398926	
-0.399353	
-0.399963	
-0.399475	
-0.399414	
-0.400452	
-0.399658	
-0.398987	
-0.397705	
-0.397644	
-0.397522	
-0.397888	
-0.397888	
-0.3974	
-0.399109	
-0.397705	
-0.39801	
-0.397705	
-0.39801	
-0.398499	
-0.397034	
-0.396545	
-0.398071	
-0.398315	
-0.398621	
-0.399292	
-0.400452	
-0.400391	
-0.401245	
-0.402344	
-0.402527	
-0.402954	
-0.4021	
-0.401917	
-0.403259	
-0.40332	
-0.404114	
-0.404541	
-0.405457	
-0.40564	
-0.40564	
-0.40564	
-0.406555	
-0.406433	
-0.405273	
-0.404724	
-0.405334	
-0.405945	
-0.406555	
-0.40625	
-0.406616	
-0.406799	
-0.40686	
-0.407349	
-0.408569	
-0.407166	
-0.406189	
-0.406189	
-0.406494	
-0.405762	
-0.406921	
-0.406982	
-0.408081	
-0.407349	
-0.407349	
-0.407898	
-0.408569	
-0.40741	
-0.406738	
-0.405945	
-0.406067	
-0.406128	
-0.405884	
-0.406128	
-0.406555	
-0.404846	
-0.404968	
-0.404846	
-0.405762	
-0.404358	
-0.403625	
-0.403137	
-0.403198	
-0.401855	
-0.402466	
-0.402405	
-0.402832	
-0.401733	
-0.4021	
-0.402649	
-0.402954	
-0.401978	
-0.401428	
-0.400391	
-0.401428	
-0.401855	
-0.403259	
-0.403381	
-0.40332	
-0.40271	
-0.402832	
-0.403259	
-0.404541	
-0.403625	
-0.403503	
-0.4021	
-0.403015	
-0.402893	
-0.403381	
-0.403442	
-0.404053	
-0.403076	
-0.403503	
-0.403564	
-0.404846	
-0.403503	
-0.403137	
-0.402466	
-0.402344	
-0.401917	
-0.403503	
-0.402893	
-0.403198	
-0.402771	
-0.403076	
-0.403076	
-0.404602	
-0.403564	
-0.403625	
-0.403076	
-0.402344	
-0.403381	
-0.404053	
-0.404114	
-0.405212	
-0.404968	
-0.404602	
-0.404968	
-0.406921	
-0.405762	
-0.404724	
-0.404602	
-0.404785	
-0.404236	
-0.40509	
-0.405212	
-0.405334	
-0.404297	
-0.404541	
-0.404236	
-0.40509	
-0.403931	
-0.403198	
-0.403076	
-0.400696	
-0.401428	
-0.401733	
-0.401917	
-0.402405	
-0.401794	
-0.401855	
-0.401611	
-0.402649	
-0.403198	
-0.4021	
-0.401978	
-0.400635	
-0.402161	
-0.402588	
-0.402893	
-0.40387	
-0.403259	
-0.403748	
-0.403564	
-0.405212	
-0.405701	
-0.40509	
-0.40509	
-0.405151	
-0.40564	
-0.407104	
-0.407593	
-0.408325	
-0.408203	
-0.408325	
-0.408569	
-0.408447	
-0.410034	
-0.40863	
-0.408325	
-0.406433	
-0.406921	
	
