E:\DOCUMENTS AND SETTINGS\JPOTAS\MEUS DOCUMENTOS\UFRJ\RSCI-BM 12 WK SERIES\070730-RSCI-BM-09\RSCI-BM-09-LEMG\070730-RSCI-BM-09-LEMG-0011.ACQ
0.025000 msec/sample
1 channel
Analog input
Volts
CH1	
2000	
-0.403503	
-0.40387	
-0.403259	
-0.403198	
-0.403748	
-0.402649	
-0.40387	
-0.403931	
-0.403564	
-0.40332	
-0.403564	
-0.40387	
-0.404663	
-0.406067	
-0.406006	
-0.405396	
-0.405273	
-0.404785	
-0.405945	
-0.406372	
-0.40686	
-0.406555	
-0.40625	
-0.406128	
-0.406494	
-0.406921	
-0.408264	
-0.407349	
-0.407166	
-0.406677	
-0.406494	
-0.406921	
-0.408447	
-0.407898	
-0.407532	
-0.407471	
-0.406677	
-0.406982	
-0.407043	
-0.407776	
-0.40802	
-0.407837	
-0.406799	
-0.406799	
-0.406982	
-0.407104	
-0.407837	
-0.407837	
-0.407654	
-0.406982	
-0.40564	
-0.406006	
-0.406677	
-0.407471	
-0.407166	
-0.406311	
-0.405823	
-0.404541	
-0.404175	
-0.405273	
-0.404907	
-0.405823	
-0.404846	
-0.403442	
-0.403442	
-0.402588	
-0.403381	
-0.403442	
-0.402893	
-0.403015	
-0.4021	
-0.401978	
-0.403015	
-0.403137	
-0.402344	
-0.402466	
-0.402588	
-0.40155	
-0.401794	
-0.401184	
-0.401245	
-0.401672	
-0.401794	
-0.401367	
-0.40033	
-0.40155	
-0.40155	
-0.4021	
-0.401367	
-0.401306	
-0.401855	
-0.400452	
-0.400635	
-0.400818	
-0.401062	
-0.400513	
-0.40094	
-0.400452	
-0.401062	
-0.40094	
-0.40155	
-0.402283	
-0.4021	
-0.401611	
-0.401428	
-0.400208	
-0.401245	
-0.401672	
-0.401489	
-0.401428	
-0.400818	
-0.400696	
-0.401611	
-0.401672	
-0.401245	
-0.402222	
-0.402344	
-0.4021	
-0.401672	
-0.401733	
-0.402771	
-0.402649	
-0.402527	
-0.402649	
-0.40094	
-0.402954	
-0.40332	
-0.403381	
-0.403931	
-0.404297	
-0.404358	
-0.404663	
-0.404297	
-0.404602	
-0.404175	
-0.404907	
-0.405518	
-0.405579	
-0.406677	
-0.406616	
-0.406677	
-0.407227	
-0.407532	
-0.407593	
-0.407776	
-0.407593	
-0.407227	
-0.406616	
-0.405823	
-0.405396	
-0.405884	
-0.40509	
-0.40625	
-0.406311	
-0.405945	
-0.406311	
-0.406921	
-0.406799	
-0.406921	
-0.407837	
-0.406982	
-0.406677	
-0.406738	
-0.405579	
-0.406677	
-0.406921	
-0.407043	
-0.40686	
-0.406982	
-0.40741	
-0.40741	
-0.407654	
-0.407959	
-0.407532	
-0.40686	
-0.405518	
-0.405334	
-0.406067	
-0.405396	
-0.406006	
-0.405945	
-0.40625	
-0.405701	
-0.405701	
-0.406372	
-0.40625	
-0.404968	
-0.405212	
-0.403076	
-0.401917	
-0.403809	
-0.402649	
-0.403625	
-0.403625	
-0.403564	
-0.403931	
-0.404053	
-0.395386	
-0.384949	
-0.382813	
-0.383301	
-0.38385	
-0.382935	
-0.395508	
-0.405273	
-0.406982	
-0.406799	
-0.406677	
-0.406128	
-0.405701	
-0.405884	
-0.406433	
-0.406372	
-0.405334	
-0.405334	
-0.403564	
-0.403198	
-0.402771	
-0.401855	
-0.401917	
-0.401306	
-0.401428	
-0.401367	
-0.401123	
-0.401489	
-0.401733	
-0.401367	
-0.400757	
-0.400452	
-0.399475	
-0.39801	
-0.397827	
-0.398438	
-0.399048	
-0.399048	
-0.399414	
-0.399658	
-0.400085	
-0.400269	
-0.40155	
-0.401794	
-0.400452	
-0.401672	
-0.400696	
-0.399719	
-0.402039	
-0.402527	
-0.40271	
-0.403015	
-0.403259	
-0.403809	
-0.404236	
-0.40509	
-0.406616	
-0.405701	
-0.406494	
-0.405762	
-0.404236	
-0.407227	
-0.407043	
-0.408936	
-0.410583	
-0.412781	
-0.415344	
-0.418823	
-0.422729	
-0.42865	
-0.433411	
-0.438965	
-0.435547	
-0.429504	
-0.435303	
-0.44165	
-0.448914	
-0.453186	
-0.467285	
-0.480469	
-0.482056	
-0.483215	
-0.482544	
-0.481262	
-0.479492	
-0.478088	
-0.476807	
-0.476807	
-0.477051	
-0.476746	
-0.476807	
-0.477966	
-0.478027	
-0.478699	
-0.479614	
-0.479858	
-0.479797	
-0.479797	
-0.480957	
-0.480957	
-0.480896	
-0.481567	
-0.481628	
-0.481445	
-0.481018	
-0.48114	
-0.481323	
-0.480164	
-0.482117	
-0.481628	
-0.481323	
-0.481567	
-0.48114	
-0.48053	
-0.481445	
-0.48175	
-0.482727	
-0.482239	
-0.483337	
-0.48175	
-0.481628	
-0.481628	
-0.479248	
-0.479187	
-0.478027	
-0.476807	
-0.474792	
-0.473328	
-0.471252	
-0.468079	
-0.465576	
-0.463379	
-0.459656	
-0.458374	
-0.456604	
-0.453308	
-0.452148	
-0.450989	
-0.449463	
-0.448914	
-0.449036	
-0.449219	
-0.448853	
-0.449707	
-0.450928	
-0.450378	
-0.453369	
-0.454468	
-0.454834	
-0.454895	
-0.455933	
-0.455627	
-0.456604	
-0.456726	
-0.456787	
-0.455261	
-0.453979	
-0.453003	
-0.449829	
-0.448425	
-0.446594	
-0.443054	
-0.439209	
-0.435364	
-0.430786	
-0.427429	
-0.42334	
-0.418945	
-0.411987	
-0.406372	
-0.399597	
-0.391785	
-0.386047	
-0.379761	
-0.373169	
-0.367188	
-0.361511	
-0.355835	
-0.350037	
-0.347839	
-0.344299	
-0.339905	
-0.336609	
-0.333984	
-0.330933	
-0.329773	
-0.328857	
-0.330139	
-0.329163	
-0.330688	
-0.333069	
-0.333862	
-0.338928	
-0.342407	
-0.345642	
-0.34967	
-0.35199	
-0.355469	
-0.359009	
-0.360962	
-0.366699	
-0.367859	
-0.370605	
-0.372559	
-0.373596	
-0.378418	
-0.379211	
-0.380066	
-0.382019	
-0.382446	
-0.383484	
-0.38446	
-0.385559	
-0.387024	
-0.38678	
-0.38678	
-0.386536	
-0.387146	
-0.388306	
-0.388977	
-0.389221	
-0.388489	
-0.389404	
-0.390076	
-0.389526	
-0.391968	
-0.393188	
-0.391479	
-0.391235	
-0.390808	
-0.389954	
-0.389709	
-0.389221	
-0.388489	
-0.387573	
-0.386719	
-0.385925	
-0.385803	
-0.38678	
-0.386963	
-0.385925	
-0.386658	
-0.387573	
-0.386597	
-0.389038	
-0.390137	
-0.389526	
-0.391357	
-0.391846	
-0.391052	
-0.39209	
-0.3927	
-0.392212	
-0.389771	
-0.388672	
-0.384949	
-0.382141	
-0.379089	
-0.375977	
-0.370972	
-0.365479	
-0.360107	
-0.354614	
-0.348938	
-0.343628	
-0.338196	
-0.331909	
-0.326965	
-0.321167	
-0.316711	
-0.312744	
-0.30835	
-0.304565	
-0.30072	
-0.29657	
-0.294922	
-0.293213	
-0.292297	
-0.290588	
-0.289429	
-0.288147	
-0.286621	
-0.287842	
-0.286987	
-0.287537	
-0.287598	
-0.287048	
-0.287964	
-0.287903	
-0.288391	
-0.290649	
-0.290344	
-0.290344	
-0.290649	
-0.290588	
-0.29425	
-0.295593	
-0.297363	
-0.298828	
-0.301025	
-0.302795	
-0.305237	
-0.308899	
-0.311157	
-0.313293	
-0.316223	
-0.317871	
-0.323547	
-0.325684	
-0.329285	
-0.332092	
-0.335022	
-0.338196	
-0.34137	
-0.34491	
-0.347778	
-0.348816	
-0.350525	
-0.351135	
-0.354431	
-0.356628	
-0.358398	
-0.359985	
-0.360291	
-0.362793	
-0.363708	
-0.365906	
-0.367859	
-0.366821	
-0.367371	
-0.366882	
-0.367493	
-0.369995	
-0.371094	
-0.371155	
-0.371277	
-0.372314	
-0.372742	
-0.373596	
-0.374329	
-0.375061	
-0.374695	
-0.374329	
-0.374695	
-0.375427	
-0.376038	
-0.376892	
-0.377136	
-0.376282	
-0.378357	
-0.379639	
-0.380798	
-0.380493	
-0.382019	
-0.38208	
-0.381714	
-0.382324	
-0.381836	
-0.382385	
-0.383362	
-0.383911	
-0.384094	
-0.384521	
-0.38562	
-0.386414	
-0.385986	
-0.386841	
-0.386963	
-0.385864	
-0.386719	
-0.386536	
-0.385925	
-0.386719	
-0.387146	
-0.387329	
-0.387024	
-0.387451	
-0.387695	
-0.386902	
-0.386902	
-0.386292	
-0.385681	
-0.386841	
-0.386414	
-0.386047	
-0.386597	
-0.385986	
-0.386536	
-0.38678	
-0.386902	
-0.38678	
-0.385559	
-0.386169	
-0.385681	
-0.384338	
-0.385437	
-0.383972	
-0.384277	
-0.38446	
-0.384949	
-0.385376	
-0.385437	
-0.385559	
-0.384949	
-0.38501	
-0.386292	
-0.384644	
-0.385315	
-0.385437	
-0.385803	
-0.385925	
-0.386169	
-0.386597	
-0.387451	
-0.387085	
-0.387451	
-0.387207	
-0.389099	
-0.388428	
-0.389038	
-0.388916	
-0.386353	
-0.388184	
-0.388611	
-0.388916	
-0.388733	
-0.388611	
-0.389954	
-0.388733	
-0.390686	
-0.388916	
-0.388123	
-0.389099	
-0.387817	
-0.388855	
-0.390076	
-0.390442	
-0.389771	
-0.389954	
-0.390869	
-0.390564	
-0.391479	
-0.390625	
-0.390198	
-0.390198	
-0.389404	
-0.390442	
-0.390686	
-0.391052	
-0.390991	
-0.391235	
-0.391479	
-0.391235	
-0.391785	
-0.391663	
-0.390808	
-0.390564	
-0.389832	
-0.389832	
-0.390137	
-0.390747	
-0.390442	
-0.390076	
-0.390076	
-0.390564	
-0.390991	
-0.390747	
-0.391724	
-0.390442	
-0.39032	
-0.389893	
-0.390259	
-0.390564	
-0.390381	
-0.390564	
-0.390381	
-0.390991	
-0.391418	
-0.391907	
-0.392944	
-0.392151	
-0.391541	
-0.392273	
-0.391968	
-0.393738	
-0.39386	
-0.393677	
-0.394348	
-0.394897	
-0.393616	
-0.39502	
-0.396301	
-0.396606	
-0.39502	
-0.394775	
-0.394653	
-0.395325	
-0.396301	
-0.397095	
-0.396667	
-0.396301	
-0.395874	
-0.395874	
-0.397217	
-0.398315	
-0.397705	
-0.397034	
-0.396606	
-0.395691	
-0.396545	
-0.398071	
-0.397827	
-0.397644	
-0.397339	
-0.396484	
-0.397949	
-0.397949	
-0.397949	
-0.398743	
-0.398071	
-0.396484	
-0.396851	
-0.397217	
-0.398438	
-0.397705	
-0.397461	
-0.397034	
-0.39679	
-0.397461	
-0.397644	
-0.397766	
-0.396484	
-0.395569	
-0.39502	
-0.394348	
-0.395935	
-0.395264	
-0.395081	
-0.394958	
-0.393738	
-0.39502	
-0.395264	
-0.394592	
-0.395447	
-0.394226	
-0.393982	
-0.393127	
-0.393127	
-0.394531	
-0.393494	
-0.393921	
-0.393433	
-0.394287	
-0.394104	
-0.393738	
-0.394104	
-0.394165	
-0.392273	
-0.393616	
-0.393127	
-0.393616	
-0.393616	
-0.393494	
-0.393433	
-0.393616	
-0.393616	
-0.393616	
-0.393677	
-0.394958	
-0.394592	
-0.393433	
-0.393982	
-0.392883	
-0.392639	
-0.393738	
-0.393982	
-0.39386	
-0.393982	
-0.394592	
-0.39386	
-0.394287	
-0.395325	
-0.394104	
-0.393921	
-0.393921	
-0.39209	
-0.394226	
-0.394348	
-0.393738	
-0.394653	
-0.395142	
-0.39563	
-0.395447	
-0.395813	
-0.396912	
-0.395874	
-0.396362	
-0.396423	
-0.394714	
-0.396423	
-0.396057	
-0.396729	
-0.397278	
-0.3974	
-0.397644	
-0.398071	
-0.398987	
-0.399902	
-0.399353	
-0.400818	
-0.399719	
-0.398804	
-0.399841	
-0.399658	
-0.400085	
-0.399719	
-0.400879	
-0.399902	
-0.399597	
-0.399841	
-0.399231	
-0.400391	
-0.399536	
-0.399353	
-0.398743	
-0.399414	
-0.399902	
-0.400024	
-0.40033	
-0.400696	
-0.400024	
-0.400085	
-0.400085	
-0.400757	
-0.402344	
-0.400635	
-0.400513	
-0.399841	
-0.398071	
-0.400452	
-0.400269	
-0.400696	
-0.400269	
-0.399841	
-0.399719	
-0.400024	
-0.400452	
-0.401672	
-0.399902	
-0.39978	
-0.398682	
-0.397888	
-0.399536	
-0.399414	
-0.399048	
-0.398621	
-0.398315	
-0.397888	
-0.397461	
-0.397888	
-0.398621	
-0.397705	
-0.3974	
-0.397156	
-0.397095	
-0.397278	
-0.397766	
-0.39856	
-0.397827	
-0.3974	
-0.397583	
-0.397095	
-0.398926	
-0.398071	
-0.398804	
-0.397644	
-0.396423	
-0.397339	
-0.397034	
-0.397827	
-0.398071	
-0.397583	
-0.397461	
-0.396851	
-0.396301	
-0.396362	
-0.396301	
-0.39679	
-0.394653	
-0.394226	
-0.39386	
-0.391724	
-0.393982	
-0.39386	
-0.393616	
-0.393066	
-0.393188	
-0.393311	
-0.392639	
-0.393066	
-0.393066	
-0.391113	
-0.391663	
-0.391785	
-0.391724	
-0.3927	
-0.392517	
-0.392761	
-0.392334	
-0.3927	
-0.393677	
-0.39325	
-0.393799	
-0.393738	
-0.394043	
-0.393494	
-0.393982	
-0.394165	
-0.394409	
-0.394165	
-0.394714	
-0.395081	
-0.39502	
-0.396362	
-0.396729	
-0.397644	
-0.396851	
-0.398254	
-0.397705	
-0.397095	
-0.398193	
-0.397156	
-0.39856	
-0.398376	
-0.39856	
-0.399292	
-0.399841	
-0.399719	
-0.400635	
-0.39978	
-0.400757	
-0.400269	
-0.399536	
-0.400635	
-0.399963	
-0.400208	
-0.400146	
-0.400085	
-0.400269	
-0.400085	
-0.400696	
-0.400085	
-0.399292	
-0.399719	
-0.400085	
-0.398499	
-0.399048	
-0.398804	
-0.397888	
-0.398987	
-0.398743	
-0.399658	
-0.399048	
-0.39856	
-0.398987	
-0.398193	
-0.39856	
-0.399597	
-0.398438	
-0.39856	
-0.398132	
-0.396667	
-0.398071	
-0.397644	
-0.398193	
-0.397949	
-0.397949	
-0.398132	
-0.39801	
-0.398254	
-0.398743	
-0.398376	
-0.397644	
-0.398926	
-0.398315	
-0.398499	
-0.398865	
-0.39917	
-0.398376	
-0.398743	
-0.398743	
-0.398621	
-0.398804	
-0.399414	
-0.400146	
-0.398254	
-0.39856	
-0.39856	
-0.3974	
-0.398987	
-0.399475	
-0.398743	
-0.398254	
-0.398621	
-0.398376	
-0.398743	
-0.398438	
-0.399292	
-0.398193	
-0.397949	
-0.398254	
-0.396851	
-0.397766	
-0.397827	
-0.3974	
-0.396667	
-0.396362	
-0.396851	
-0.396606	
-0.396179	
-0.396118	
-0.396484	
-0.395142	
-0.395447	
-0.394653	
-0.394043	
-0.394836	
-0.394409	
-0.394531	
-0.394348	
-0.394409	
-0.394775	
-0.394165	
-0.394409	
-0.395325	
-0.393494	
-0.393982	
-0.393677	
-0.392639	
-0.393188	
-0.394226	
-0.393677	
-0.393005	
-0.394287	
-0.394836	
-0.393738	
-0.393799	
-0.394592	
-0.393311	
-0.393921	
-0.394043	
-0.394653	
-0.393799	
-0.39386	
-0.39386	
-0.393738	
-0.394409	
-0.39502	
-0.394714	
-0.394775	
-0.395203	
-0.395874	
-0.397095	
-0.396118	
-0.395935	
-0.395569	
-0.395813	
-0.39679	
-0.397461	
-0.397095	
-0.397705	
-0.397705	
-0.398193	
-0.398926	
-0.398438	
-0.398804	
-0.399109	
-0.398071	
-0.398254	
-0.398804	
-0.398804	
-0.39978	
-0.399658	
-0.399353	
-0.399536	
-0.399475	
-0.399719	
-0.398926	
-0.399902	
-0.400085	
-0.39801	
-0.399597	
-0.398926	
-0.39801	
-0.399475	
-0.399597	
-0.399414	
-0.40033	
-0.39917	
-0.399902	
-0.399048	
-0.398682	
-0.399719	
-0.398254	
-0.399109	
-0.399109	
-0.39856	
-0.398987	
-0.398926	
-0.39917	
-0.399109	
-0.399353	
-0.399597	
-0.398926	
-0.399414	
-0.400452	
-0.39917	
-0.399048	
-0.398438	
-0.397278	
-0.397949	
-0.398132	
-0.398071	
-0.398254	
-0.398376	
-0.398438	
-0.397217	
-0.397095	
-0.3974	
-0.396484	
-0.396484	
-0.396729	
-0.395447	
-0.395813	
-0.395874	
-0.396179	
-0.396057	
-0.395935	
-0.396301	
-0.395142	
-0.394775	
-0.394592	
-0.39447	
-0.395264	
-0.393372	
-0.392944	
-0.39209	
-0.392334	
-0.393188	
-0.39325	
-0.393982	
-0.394714	
-0.393555	
-0.393555	
-0.393921	
-0.392883	
-0.393555	
-0.393066	
-0.393188	
-0.392883	
-0.392578	
-0.393188	
-0.393005	
-0.393616	
-0.393616	
-0.392395	
-0.392334	
-0.391968	
-0.390991	
-0.393005	
-0.393127	
-0.39209	
-0.391846	
-0.391357	
-0.391541	
-0.392456	
-0.392578	
-0.393127	
-0.392517	
-0.392456	
-0.392151	
-0.392456	
-0.393066	
-0.393188	
-0.393127	
-0.393188	
-0.393188	
-0.392822	
-0.394043	
-0.394592	
-0.395081	
-0.395508	
-0.395325	
-0.394897	
-0.394775	
-0.394958	
-0.395569	
-0.39563	
-0.394836	
-0.395264	
-0.394104	
-0.394958	
-0.39563	
-0.395874	
-0.395813	
-0.395447	
-0.393982	
-0.393921	
-0.393433	
-0.394043	
-0.39502	
-0.393982	
-0.394104	
-0.393982	
-0.394165	
-0.39447	
-0.395325	
-0.395935	
-0.397034	
-0.396301	
-0.396606	
-0.396423	
-0.397034	
-0.397827	
-0.39856	
-0.397522	
-0.397278	
-0.397278	
-0.397949	
-0.399048	
-0.398682	
-0.400513	
-0.39917	
-0.398499	
-0.398865	
-0.397766	
-0.399048	
-0.399963	
-0.399536	
-0.39917	
-0.398621	
-0.397644	
-0.39801	
-0.399048	
-0.398865	
-0.397583	
-0.397522	
-0.397461	
-0.396851	
-0.397278	
-0.397095	
-0.397827	
-0.397095	
-0.396484	
-0.396484	
-0.396423	
-0.395691	
-0.395447	
-0.395508	
-0.39325	
-0.393494	
-0.393066	
-0.392212	
-0.3927	
-0.393433	
-0.393066	
-0.392273	
-0.391663	
-0.391235	
-0.390747	
-0.391663	
-0.391357	
-0.391052	
-0.390503	
-0.391052	
-0.390381	
-0.391052	
-0.391174	
-0.391663	
-0.390869	
-0.390686	
-0.390747	
-0.389832	
-0.390991	
-0.390869	
-0.391357	
-0.390564	
-0.391296	
-0.391418	
-0.391357	
-0.391479	
-0.391846	
-0.39209	
-0.391296	
-0.391846	
-0.391541	
-0.390869	
-0.391357	
-0.392578	
-0.391663	
-0.391479	
-0.391602	
-0.390747	
-0.391479	
-0.391418	
-0.3927	
-0.3927	
-0.392578	
-0.392029	
-0.390503	
-0.390625	
-0.392212	
-0.391235	
-0.391724	
-0.391785	
-0.391602	
-0.391724	
-0.391479	
-0.391724	
-0.392334	
-0.392517	
-0.392151	
-0.391113	
-0.390808	
-0.391235	
-0.390625	
-0.390808	
-0.390869	
-0.390503	
-0.390015	
-0.390625	
-0.390808	
-0.392151	
-0.392944	
-0.391724	
-0.390442	
-0.389709	
-0.389221	
-0.389954	
-0.390686	
-0.390869	
-0.391052	
-0.390442	
-0.39093	
-0.391296	
-0.391418	
-0.392944	
-0.393188	
-0.392151	
-0.391724	
-0.389832	
-0.391785	
-0.393127	
-0.393127	
-0.393188	
-0.393127	
-0.392151	
-0.393372	
-0.39386	
-0.395081	
-0.395081	
-0.393921	
-0.393921	
-0.392944	
-0.393311	
-0.394836	
-0.39447	
-0.394409	
-0.394165	
-0.393921	
-0.394348	
-0.394592	
-0.395508	
-0.396545	
-0.395264	
-0.394165	
-0.393372	
-0.393433	
-0.394226	
-0.394836	
-0.394043	
-0.393921	
-0.393799	
-0.392883	
-0.393982	
-0.394775	
-0.394592	
-0.394226	
-0.394043	
-0.392578	
-0.392212	
-0.392273	
-0.392517	
-0.3927	
-0.392273	
-0.392334	
-0.391785	
-0.391479	
-0.391968	
-0.391785	
-0.390747	
-0.391357	
-0.388733	
-0.388672	
-0.389343	
-0.389893	
-0.390198	
-0.38916	
-0.388855	
-0.388855	
-0.387939	
-0.389465	
-0.389404	
-0.388611	
-0.389099	
-0.388611	
-0.387146	
-0.387878	
-0.387207	
-0.387878	
-0.38739	
-0.387085	
-0.387085	
-0.387085	
-0.387756	
-0.388428	
-0.387024	
-0.387329	
-0.387939	
-0.387024	
-0.386963	
-0.387024	
-0.386414	
-0.386414	
-0.387268	
-0.387207	
-0.387024	
-0.386353	
-0.388794	
-0.387634	
-0.387207	
-0.386902	
-0.386353	
-0.387573	
-0.387024	
-0.386963	
-0.38739	
-0.386963	
-0.387207	
-0.387146	
-0.387207	
-0.388672	
-0.387634	
-0.387512	
-0.387146	
-0.388	
-0.388428	
-0.388184	
-0.388	
-0.387573	
-0.38855	
-0.388611	
-0.388611	
-0.389587	
-0.389648	
-0.389648	
-0.388977	
-0.388977	
-0.389282	
-0.390808	
-0.39093	
-0.390503	
-0.39093	
-0.390625	
-0.390564	
-0.39209	
-0.392822	
-0.393005	
-0.39209	
-0.391785	
-0.392395	
-0.392151	
-0.39209	
-0.391418	
-0.391846	
-0.392151	
-0.391663	
-0.391846	
-0.390991	
-0.391541	
-0.391907	
-0.391174	
-0.391907	
-0.391113	
-0.391052	
-0.391968	
-0.392639	
-0.392578	
-0.391968	
-0.391846	
-0.392456	
-0.391968	
-0.392944	
-0.393188	
-0.391479	
-0.391785	
-0.391357	
-0.391663	
-0.391663	
-0.391785	
-0.3927	
-0.392517	
-0.390808	
-0.391602	
-0.391235	
-0.391174	
-0.391663	
-0.390808	
-0.390381	
-0.388977	
-0.389221	
-0.390198	
-0.389526	
-0.389099	
-0.389954	
-0.389343	
-0.388672	
-0.388916	
-0.387939	
-0.388123	
-0.388245	
-0.387146	
-0.387329	
-0.386841	
-0.388672	
-0.388184	
-0.388184	
-0.388367	
-0.389343	
-0.388916	
-0.389099	
-0.389099	
-0.388733	
-0.388672	
-0.387756	
-0.387329	
-0.387817	
-0.388367	
-0.388062	
-0.38739	
-0.387207	
-0.38739	
-0.386963	
-0.386475	
-0.386658	
-0.385071	
-0.383118	
-0.383972	
-0.384094	
-0.383911	
-0.384033	
-0.383972	
-0.383667	
-0.383301	
-0.383484	
-0.384338	
-0.383362	
-0.382935	
-0.382385	
-0.38208	
-0.38147	
-0.381775	
-0.382324	
-0.382263	
-0.382568	
-0.382874	
-0.382935	
-0.382446	
-0.38324	
-0.385315	
-0.383545	
-0.384155	
-0.384277	
-0.381104	
-0.383972	
-0.383789	
-0.382996	
-0.384399	
-0.384583	
-0.385254	
-0.385864	
-0.386414	
-0.387756	
-0.387451	
-0.388062	
-0.388245	
-0.386475	
-0.386353	
-0.386963	
-0.38739	
-0.388306	
-0.388611	
-0.388733	
-0.389099	
-0.38916	
-0.390015	
-0.390015	
-0.390015	
-0.390686	
-0.388977	
-0.389587	
-0.389465	
-0.389404	
-0.390137	
-0.390076	
-0.389954	
-0.389404	
-0.389771	
-0.389832	
-0.38916	
-0.39032	
-0.390137	
-0.388184	
-0.388306	
-0.387146	
-0.387451	
-0.38855	
-0.388306	
-0.387756	
-0.388245	
-0.388367	
-0.38855	
-0.388245	
-0.388184	
-0.388916	
-0.388306	
-0.387512	
-0.387024	
-0.384644	
-0.386963	
-0.387451	
-0.387451	
-0.387329	
-0.387756	
-0.387695	
-0.387207	
-0.387268	
-0.388306	
-0.38916	
-0.387817	
-0.387756	
-0.387207	
-0.386414	
-0.387878	
-0.387878	
-0.387939	
-0.387817	
-0.388611	
-0.388184	
-0.388	
-0.388184	
-0.389526	
-0.389099	
-0.388184	
-0.387878	
-0.387634	
-0.387695	
-0.388306	
-0.387634	
-0.388367	
-0.388062	
-0.388062	
-0.387573	
-0.38678	
-0.388123	
-0.389709	
-0.387207	
-0.387329	
-0.386414	
-0.385437	
-0.38678	
-0.386719	
-0.386658	
-0.385803	
-0.385132	
-0.385315	
-0.384155	
-0.385681	
-0.385193	
-0.386963	
-0.384277	
-0.38324	
-0.383789	
-0.380615	
-0.383911	
-0.384888	
-0.383179	
-0.383362	
-0.383362	
-0.382874	
-0.383789	
-0.383545	
-0.384155	
-0.384277	
-0.382629	
-0.383118	
-0.383118	
-0.381104	
-0.384033	
-0.383423	
-0.383301	
-0.383179	
-0.38208	
-0.383423	
-0.383545	
-0.383789	
-0.384705	
-0.383423	
-0.383606	
-0.383301	
-0.382141	
-0.383606	
-0.383789	
-0.384094	
-0.384338	
-0.383484	
-0.384094	
-0.385498	
-0.38501	
-0.386047	
-0.38678	
-0.386047	
-0.385864	
-0.385559	
-0.385925	
-0.387085	
-0.386902	
-0.387573	
-0.386719	
-0.388245	
-0.389221	
-0.388672	
-0.388916	
-0.388977	
-0.390198	
-0.389343	
-0.388977	
-0.389771	
-0.387817	
-0.389587	
-0.388977	
-0.388306	
-0.38916	
-0.389954	
-0.389465	
-0.389465	
-0.389832	
-0.388672	
-0.390442	
-0.389465	
-0.390015	
-0.389099	
-0.388	
-0.389221	
-0.388489	
-0.389526	
-0.390381	
-0.389587	
-0.38916	
-0.389404	
-0.389038	
-0.39032	
-0.389709	
-0.390198	
-0.388855	
-0.388855	
-0.389771	
-0.388611	
-0.389526	
-0.390259	
-0.389526	
-0.389282	
-0.389526	
-0.389221	
-0.389465	
-0.390808	
-0.390198	
-0.389282	
-0.38916	
-0.388062	
-0.388123	
-0.388489	
-0.389221	
-0.387878	
-0.387939	
-0.387573	
-0.387146	
-0.387634	
-0.387573	
-0.389282	
-0.386963	
-0.386169	
-0.386475	
-0.384521	
-0.386475	
-0.386658	
-0.385986	
-0.385559	
-0.385315	
-0.384277	
-0.385132	
-0.384644	
-0.385803	
-0.384583	
-0.384277	
-0.383911	
-0.383118	
-0.384216	
-0.386047	
-0.384888	
-0.384705	
-0.384338	
-0.384399	
-0.38446	
-0.38562	
-0.385071	
-0.385742	
-0.384399	
-0.383484	
-0.382874	
-0.383667	
-0.385193	
-0.383789	
-0.383606	
-0.383301	
-0.38385	
-0.384644	
-0.384033	
-0.385315	
-0.384705	
-0.385681	
-0.38385	
-0.383118	
-0.384399	
-0.382629	
-0.384399	
-0.384705	
-0.384277	
-0.384888	
-0.38501	
-0.385559	
-0.38678	
-0.385376	
-0.386047	
-0.38623	
-0.384705	
-0.386963	
-0.38678	
-0.38678	
-0.387146	
-0.38739	
-0.387268	
-0.387329	
-0.388	
-0.388977	
-0.388611	
-0.388062	
-0.388977	
-0.387024	
-0.387329	
-0.387878	
-0.38678	
-0.387695	
-0.387268	
-0.387085	
-0.38678	
-0.387085	
-0.388245	
-0.387329	
-0.387451	
-0.387695	
-0.387939	
-0.387268	
-0.388367	
-0.388489	
-0.387817	
-0.389221	
-0.389954	
-0.390625	
-0.39032	
-0.391846	
-0.391357	
-0.391724	
-0.391174	
-0.39093	
-0.39209	
-0.391357	
-0.391907	
-0.391846	
-0.391602	
-0.392456	
-0.392517	
-0.392944	
-0.393677	
-0.392578	
-0.393433	
-0.392639	
-0.391907	
-0.394104	
-0.392517	
-0.392151	
-0.391663	
-0.390503	
-0.391602	
-0.391602	
-0.391663	
-0.392273	
-0.391479	
-0.390869	
-0.391724	
-0.390076	
-0.391052	
-0.391663	
-0.389099	
-0.388977	
-0.388245	
-0.387878	
-0.387573	
-0.387451	
-0.388123	
-0.386841	
-0.386597	
-0.386414	
-0.386414	
-0.38623	
-0.386719	
-0.38562	
-0.385742	
-0.385315	
-0.384766	
-0.385132	
-0.385742	
-0.385864	
-0.385315	
-0.385315	
-0.385315	
-0.386475	
-0.385803	
-0.386169	
-0.386414	
-0.385925	
-0.386108	
-0.386475	
-0.38562	
-0.386475	
-0.386902	
-0.386475	
-0.386597	
-0.385132	
-0.386719	
-0.386658	
-0.386902	
-0.386658	
-0.386902	
-0.387512	
-0.387024	
-0.386658	
-0.386169	
-0.386292	
-0.387085	
-0.38678	
-0.385803	
-0.387085	
-0.388184	
-0.387939	
-0.387329	
-0.387817	
-0.386963	
-0.387878	
-0.387207	
-0.388	
-0.387329	
-0.387024	
-0.38739	
-0.386902	
-0.387817	
-0.388184	
-0.387817	
-0.387146	
-0.387451	
-0.388245	
-0.387512	
-0.388	
-0.387146	
-0.385864	
-0.38678	
-0.385559	
-0.386047	
-0.387329	
-0.387634	
-0.387939	
-0.386902	
-0.387085	
	
