E:\DOCUMENTS AND SETTINGS\JPOTAS\MEUS DOCUMENTOS\UFRJ\RSCI-BM 12 WK SERIES\070730-RSCI-BM-09\RSCI-BM-09-LEMG\070730-RSCI-BM-09-LEMG-0001.ACQ
0.025000 msec/sample
1 channel
Analog input
Volts
CH1	
2000	
-0.406982	
-0.406311	
-0.407043	
-0.406067	
-0.406677	
-0.406677	
-0.406433	
-0.40686	
-0.406982	
-0.405701	
-0.40686	
-0.406372	
-0.40863	
-0.407043	
-0.407166	
-0.407166	
-0.405579	
-0.406311	
-0.406311	
-0.406616	
-0.407043	
-0.406189	
-0.406311	
-0.406067	
-0.407166	
-0.40625	
-0.406616	
-0.406311	
-0.404358	
-0.405701	
-0.405884	
-0.403809	
-0.404663	
-0.404419	
-0.404175	
-0.404358	
-0.403503	
-0.405396	
-0.404175	
-0.403748	
-0.403137	
-0.403992	
-0.404053	
-0.403015	
-0.403503	
-0.403564	
-0.402954	
-0.403381	
-0.403442	
-0.404785	
-0.403259	
-0.403442	
-0.403748	
-0.403015	
-0.403687	
-0.403564	
-0.403381	
-0.403687	
-0.402954	
-0.403137	
-0.402771	
-0.403687	
-0.402893	
-0.403015	
-0.403748	
-0.402039	
-0.403809	
-0.404297	
-0.402954	
-0.404114	
-0.403748	
-0.404358	
-0.404419	
-0.404297	
-0.404785	
-0.404846	
-0.405212	
-0.40448	
-0.406067	
-0.406006	
-0.405945	
-0.406799	
-0.406982	
-0.406738	
-0.406921	
-0.407104	
-0.407654	
-0.406677	
-0.407349	
-0.407166	
-0.406982	
-0.407043	
-0.407532	
-0.406006	
-0.407349	
-0.406982	
-0.407043	
-0.406494	
-0.406372	
-0.40625	
-0.405884	
-0.405579	
-0.404663	
-0.40564	
-0.406189	
-0.405396	
-0.406616	
-0.406067	
-0.405029	
-0.406738	
-0.407104	
-0.406494	
-0.406921	
-0.40741	
-0.406799	
-0.407593	
-0.408569	
-0.408447	
-0.408875	
-0.409302	
-0.408325	
-0.40863	
-0.40863	
-0.409729	
-0.40863	
-0.408569	
-0.408386	
-0.40918	
-0.409119	
-0.409973	
-0.40863	
-0.409485	
-0.408691	
-0.408997	
-0.409058	
-0.408936	
-0.408752	
-0.408447	
-0.40802	
-0.407776	
-0.408081	
-0.407715	
-0.40686	
-0.407471	
-0.406616	
-0.405701	
-0.405762	
-0.405762	
-0.405701	
-0.404724	
-0.404907	
-0.404053	
-0.404541	
-0.404297	
-0.404175	
-0.403748	
-0.404053	
-0.40332	
-0.403687	
-0.403076	
-0.403564	
-0.402649	
-0.402588	
-0.4021	
-0.402344	
-0.402283	
-0.402832	
-0.401306	
-0.40332	
-0.401978	
-0.401978	
-0.402405	
-0.401428	
-0.402161	
-0.402405	
-0.402283	
-0.401978	
-0.40271	
-0.402649	
-0.402161	
-0.403503	
-0.403198	
-0.402832	
-0.402954	
-0.403442	
-0.404358	
-0.40387	
-0.40387	
-0.404053	
-0.40387	
-0.404419	
-0.404968	
-0.404785	
-0.405518	
-0.404663	
-0.405151	
-0.406006	
-0.401001	
-0.393311	
-0.40332	
-0.405884	
-0.404663	
-0.405579	
-0.405762	
-0.405579	
-0.406433	
-0.405579	
-0.404419	
-0.405823	
-0.405457	
-0.40564	
-0.404907	
-0.404846	
-0.404358	
-0.404236	
-0.40387	
-0.403687	
-0.404785	
-0.404114	
-0.40448	
-0.404968	
-0.403687	
-0.405823	
-0.404968	
-0.40448	
-0.405029	
-0.405029	
-0.405334	
-0.406189	
-0.40625	
-0.405945	
-0.405945	
-0.406128	
-0.405151	
-0.406372	
-0.405762	
-0.406128	
-0.406921	
-0.405029	
-0.406677	
-0.407043	
-0.407776	
-0.408325	
-0.408203	
-0.408569	
-0.40979	
-0.409546	
-0.410095	
-0.409912	
-0.410278	
-0.409302	
-0.409668	
-0.409973	
-0.409912	
-0.41095	
-0.410645	
-0.410706	
-0.41156	
-0.411865	
-0.414734	
-0.415161	
-0.416321	
-0.419861	
-0.422852	
-0.425476	
-0.429199	
-0.432373	
-0.434814	
-0.438354	
-0.443298	
-0.445679	
-0.448242	
-0.449402	
-0.451233	
-0.452698	
-0.454407	
-0.455505	
-0.456482	
-0.456604	
-0.455872	
-0.455078	
-0.454468	
-0.452454	
-0.451477	
-0.449036	
-0.447876	
-0.446716	
-0.44519	
-0.443481	
-0.443115	
-0.44165	
-0.439697	
-0.438782	
-0.438843	
-0.437805	
-0.438354	
-0.437134	
-0.437439	
-0.437866	
-0.437805	
-0.438538	
-0.439514	
-0.439026	
-0.440002	
-0.441162	
-0.441528	
-0.442993	
-0.445679	
-0.447144	
-0.448975	
-0.450195	
-0.450012	
-0.450867	
-0.451599	
-0.452454	
-0.453247	
-0.454163	
-0.455566	
-0.456238	
-0.458069	
-0.457886	
-0.458313	
-0.458618	
-0.458191	
-0.459167	
-0.459656	
-0.459412	
-0.457764	
-0.455627	
-0.452087	
-0.44989	
-0.449036	
-0.446533	
-0.444885	
-0.441956	
-0.438354	
-0.437134	
-0.434387	
-0.432129	
-0.429749	
-0.426941	
-0.424011	
-0.421814	
-0.420227	
-0.417725	
-0.414368	
-0.413086	
-0.411682	
-0.409119	
-0.407471	
-0.406677	
-0.40387	
-0.402527	
-0.401672	
-0.400146	
-0.399353	
-0.398315	
-0.395142	
-0.393005	
-0.390137	
-0.385925	
-0.381653	
-0.377686	
-0.371155	
-0.364563	
-0.358154	
-0.349854	
-0.342651	
-0.333801	
-0.324707	
-0.315918	
-0.307434	
-0.298523	
-0.291321	
-0.283997	
-0.276245	
-0.269348	
-0.262207	
-0.255432	
-0.248169	
-0.243164	
-0.237305	
-0.232666	
-0.228943	
-0.225708	
-0.224304	
-0.224609	
-0.22522	
-0.227905	
-0.230774	
-0.234009	
-0.239441	
-0.244507	
-0.24762	
-0.253845	
-0.259583	
-0.26416	
-0.269226	
-0.275696	
-0.279175	
-0.284485	
-0.289124	
-0.293579	
-0.298157	
-0.301636	
-0.307556	
-0.312256	
-0.315796	
-0.319763	
-0.323914	
-0.327637	
-0.330994	
-0.333679	
-0.336609	
-0.340454	
-0.341858	
-0.345337	
-0.348145	
-0.34906	
-0.352234	
-0.354065	
-0.356323	
-0.357422	
-0.359375	
-0.359192	
-0.36145	
-0.362122	
-0.362488	
-0.364197	
-0.36438	
-0.366394	
-0.367676	
-0.368896	
-0.369019	
-0.369934	
-0.371216	
-0.371094	
-0.37207	
-0.372375	
-0.373108	
-0.374146	
-0.37439	
-0.374451	
-0.375	
-0.374878	
-0.374634	
-0.374268	
-0.37323	
-0.373657	
-0.372681	
-0.371399	
-0.371765	
-0.370911	
-0.370911	
-0.370483	
-0.370239	
-0.36969	
-0.368958	
-0.367432	
-0.365967	
-0.36615	
-0.364136	
-0.362	
-0.362122	
-0.362427	
-0.359924	
-0.358887	
-0.358887	
-0.357117	
-0.356506	
-0.356079	
-0.353699	
-0.354187	
-0.353394	
-0.353271	
-0.352051	
-0.353394	
-0.35321	
-0.352966	
-0.353821	
-0.353394	
-0.353943	
-0.354736	
-0.353882	
-0.355347	
-0.355164	
-0.355957	
-0.355835	
-0.358093	
-0.357788	
-0.358826	
-0.36084	
-0.360352	
-0.36145	
-0.361572	
-0.363037	
-0.363647	
-0.36438	
-0.365295	
-0.365845	
-0.367188	
-0.368225	
-0.369446	
-0.369751	
-0.370361	
-0.371582	
-0.371521	
-0.373413	
-0.372681	
-0.372498	
-0.373535	
-0.374084	
-0.374695	
-0.375061	
-0.375	
-0.375122	
-0.375671	
-0.376343	
-0.375	
-0.375916	
-0.37616	
-0.375916	
-0.376221	
-0.376648	
-0.377258	
-0.37793	
-0.377991	
-0.376953	
-0.377502	
-0.377869	
-0.377991	
-0.377563	
-0.377563	
-0.378601	
-0.378784	
-0.379028	
-0.380249	
-0.378906	
-0.380859	
-0.380249	
-0.381165	
-0.38092	
-0.380493	
-0.380493	
-0.381104	
-0.381042	
-0.382019	
-0.38324	
-0.382263	
-0.383545	
-0.383301	
-0.38324	
-0.383606	
-0.384155	
-0.383301	
-0.38324	
-0.383179	
-0.383423	
-0.383118	
-0.382996	
-0.383179	
-0.384216	
-0.383301	
-0.383667	
-0.384399	
-0.384277	
-0.383972	
-0.384521	
-0.383972	
-0.384827	
-0.384705	
-0.384705	
-0.38446	
-0.384277	
-0.383667	
-0.384033	
-0.38385	
-0.383545	
-0.383728	
-0.383789	
-0.382629	
-0.383545	
-0.383728	
-0.383606	
-0.383728	
-0.383789	
-0.383301	
-0.383911	
-0.383972	
-0.383972	
-0.384399	
-0.382507	
-0.383728	
-0.384888	
-0.38446	
-0.385254	
-0.385925	
-0.385742	
-0.385071	
-0.387207	
-0.386536	
-0.386536	
-0.387085	
-0.386719	
-0.387634	
-0.387878	
-0.388245	
-0.38855	
-0.389282	
-0.388672	
-0.389221	
-0.389771	
-0.390076	
-0.389343	
-0.390198	
-0.389343	
-0.39032	
-0.390076	
-0.39093	
-0.390747	
-0.390442	
-0.390381	
-0.39093	
-0.391357	
-0.391296	
-0.391602	
-0.390381	
-0.391235	
-0.391968	
-0.392456	
-0.393005	
-0.393311	
-0.392578	
-0.392578	
-0.393127	
-0.392944	
-0.392761	
-0.392334	
-0.391052	
-0.391541	
-0.391357	
-0.391479	
-0.390198	
-0.389648	
-0.389832	
-0.389404	
-0.389221	
-0.390015	
-0.389709	
-0.388916	
-0.388855	
-0.389282	
-0.388855	
-0.390747	
-0.390808	
-0.390259	
-0.39032	
-0.390747	
-0.391357	
-0.39093	
-0.392151	
-0.391418	
-0.392395	
-0.392395	
-0.3927	
-0.393616	
-0.394348	
-0.393555	
-0.393982	
-0.394348	
-0.395569	
-0.394836	
-0.393677	
-0.394348	
-0.394409	
-0.393311	
-0.394836	
-0.39563	
-0.395447	
-0.395508	
-0.395203	
-0.394836	
-0.395447	
-0.395569	
-0.394409	
-0.394531	
-0.394348	
-0.393494	
-0.395081	
-0.395508	
-0.394592	
-0.394836	
-0.39447	
-0.395142	
-0.395081	
-0.395203	
-0.39386	
-0.393127	
-0.3927	
-0.393127	
-0.393799	
-0.393433	
-0.393005	
-0.393127	
-0.393433	
-0.393555	
-0.39325	
-0.393616	
-0.393005	
-0.39209	
-0.393066	
-0.392944	
-0.393494	
-0.394165	
-0.392883	
-0.392578	
-0.392639	
-0.393921	
-0.393005	
-0.393372	
-0.39325	
-0.393127	
-0.393066	
-0.393066	
-0.393982	
-0.394409	
-0.393127	
-0.393066	
-0.392822	
-0.393799	
-0.393433	
-0.393799	
-0.393127	
-0.393005	
-0.393738	
-0.394104	
-0.39502	
-0.395264	
-0.394714	
-0.394958	
-0.395569	
-0.39624	
-0.39563	
-0.396179	
-0.395996	
-0.39624	
-0.396362	
-0.397034	
-0.398132	
-0.398376	
-0.397034	
-0.397583	
-0.397705	
-0.397888	
-0.397705	
-0.396667	
-0.397522	
-0.397888	
-0.397705	
-0.397827	
-0.398254	
-0.397644	
-0.397766	
-0.397278	
-0.396729	
-0.397705	
-0.397278	
-0.396057	
-0.396606	
-0.39679	
-0.396057	
-0.396667	
-0.397034	
-0.397034	
-0.39679	
-0.397156	
-0.397461	
-0.397522	
-0.397949	
-0.39856	
-0.397827	
-0.399048	
-0.398376	
-0.399841	
-0.399536	
-0.399475	
-0.399841	
-0.398804	
-0.398682	
-0.399902	
-0.399719	
-0.400146	
-0.399109	
-0.400452	
-0.39978	
-0.400757	
-0.400696	
-0.400391	
-0.40033	
-0.399353	
-0.39978	
-0.400391	
-0.400635	
-0.400085	
-0.400024	
-0.399597	
-0.398865	
-0.400452	
-0.400391	
-0.399231	
-0.399231	
-0.397644	
-0.398315	
-0.397583	
-0.397827	
-0.39679	
-0.395752	
-0.396729	
-0.395874	
-0.396667	
-0.396484	
-0.395874	
-0.396118	
-0.394409	
-0.395691	
-0.39563	
-0.395264	
-0.394653	
-0.394775	
-0.394592	
-0.393921	
-0.395386	
-0.394592	
-0.394531	
-0.394958	
-0.393921	
-0.394775	
-0.394592	
-0.394958	
-0.394104	
-0.392944	
-0.394592	
-0.393921	
-0.395325	
-0.395447	
-0.394958	
-0.395264	
-0.394043	
-0.395386	
-0.395264	
-0.396423	
-0.395691	
-0.395386	
-0.395874	
-0.396301	
-0.397156	
-0.396851	
-0.396667	
-0.397034	
-0.396912	
-0.397095	
-0.396667	
-0.398071	
-0.3974	
-0.396729	
-0.397705	
-0.396606	
-0.397949	
-0.398193	
-0.397888	
-0.397278	
-0.39624	
-0.397949	
-0.397034	
-0.39856	
-0.397095	
-0.396301	
-0.397461	
-0.396973	
-0.398071	
-0.397644	
-0.397278	
-0.395935	
-0.396057	
-0.39624	
-0.396179	
-0.397339	
-0.397156	
-0.397034	
-0.397644	
-0.396484	
-0.398926	
-0.398438	
-0.398743	
-0.397644	
-0.396301	
-0.398193	
-0.397766	
-0.398987	
-0.398193	
-0.397522	
-0.398499	
-0.398376	
-0.399414	
-0.399109	
-0.399536	
-0.399536	
-0.398987	
-0.399475	
-0.400513	
-0.400208	
-0.399963	
-0.400818	
-0.401123	
-0.400085	
-0.402283	
-0.401794	
-0.402344	
-0.401306	
-0.400635	
-0.401428	
-0.401733	
-0.401733	
-0.40155	
-0.400818	
-0.401062	
-0.399902	
-0.401917	
-0.401184	
-0.400635	
-0.399658	
-0.399902	
-0.399902	
-0.400574	
-0.399719	
-0.399475	
-0.398987	
-0.39917	
-0.39856	
-0.399719	
-0.398804	
-0.398926	
-0.397827	
-0.395752	
-0.397827	
-0.398071	
-0.398315	
-0.39801	
-0.397095	
-0.397705	
-0.3974	
-0.398376	
-0.397339	
-0.3974	
-0.396484	
-0.395752	
-0.395935	
-0.396484	
-0.396301	
-0.396423	
-0.39502	
-0.395081	
-0.39447	
-0.395691	
-0.394409	
-0.39502	
-0.394104	
-0.393372	
-0.394775	
-0.394531	
-0.394897	
-0.395264	
-0.393982	
-0.395691	
-0.396057	
-0.397034	
-0.396423	
-0.39679	
-0.396667	
-0.396179	
-0.397217	
-0.397766	
-0.397522	
-0.397583	
-0.397156	
-0.3974	
-0.397461	
-0.397156	
-0.39801	
-0.398132	
-0.397034	
-0.396118	
-0.397034	
-0.397339	
-0.396973	
-0.39624	
-0.394958	
-0.395447	
-0.395752	
-0.395508	
-0.395508	
-0.395203	
-0.394531	
-0.394226	
-0.394348	
-0.39502	
-0.39447	
-0.394531	
-0.39447	
-0.394104	
-0.394348	
-0.394043	
-0.394409	
-0.39502	
-0.394409	
-0.393372	
-0.394165	
-0.395142	
-0.39447	
-0.394714	
-0.395142	
-0.394714	
-0.394714	
-0.395874	
-0.394958	
-0.395203	
-0.394836	
-0.393921	
-0.394653	
-0.396118	
-0.395874	
-0.396423	
-0.397522	
-0.396545	
-0.397034	
-0.397827	
-0.397095	
-0.397156	
-0.396973	
-0.395874	
-0.396606	
-0.397522	
-0.397217	
-0.397583	
-0.397827	
-0.397339	
-0.398132	
-0.398804	
-0.3974	
-0.397766	
-0.397705	
-0.396973	
-0.397705	
-0.398682	
-0.398071	
-0.397766	
-0.398132	
-0.39801	
-0.398132	
-0.399048	
-0.397766	
-0.398254	
-0.398254	
-0.396301	
-0.397034	
-0.399231	
-0.39801	
-0.397583	
-0.397461	
-0.397583	
-0.397156	
-0.397888	
-0.396973	
-0.396606	
-0.395691	
-0.395874	
-0.395508	
-0.396179	
-0.395386	
-0.395264	
-0.394653	
-0.394348	
-0.395081	
-0.395569	
-0.393982	
-0.393982	
-0.394226	
-0.393433	
-0.393738	
-0.395081	
-0.394714	
-0.39447	
-0.394714	
-0.394836	
-0.394592	
-0.396179	
-0.394958	
-0.394531	
-0.39447	
-0.394531	
-0.394226	
-0.395508	
-0.394897	
-0.394836	
-0.395691	
-0.394958	
-0.395325	
-0.396423	
-0.395142	
-0.394836	
-0.39447	
-0.39209	
-0.393616	
-0.393982	
-0.392822	
-0.392822	
-0.392212	
-0.392944	
-0.392639	
-0.392883	
-0.392456	
-0.391968	
-0.392029	
-0.39093	
-0.391602	
-0.392334	
-0.392212	
-0.39209	
-0.391724	
-0.391418	
-0.391968	
-0.3927	
-0.392395	
-0.390564	
-0.391724	
-0.389709	
-0.391052	
-0.392944	
-0.393555	
-0.393005	
-0.393005	
-0.393311	
-0.393494	
-0.39447	
-0.394653	
-0.393127	
-0.394409	
-0.393555	
-0.394775	
-0.396606	
-0.396118	
-0.396057	
-0.396362	
-0.396057	
-0.396667	
-0.398193	
-0.397217	
-0.39679	
-0.396973	
-0.396362	
-0.397705	
-0.398865	
-0.398315	
-0.39801	
-0.398254	
-0.398804	
-0.399475	
-0.400269	
-0.398926	
-0.398254	
-0.398315	
-0.397827	
-0.398621	
-0.39978	
-0.398926	
-0.398926	
-0.398682	
-0.398193	
-0.399902	
-0.399109	
-0.398315	
-0.398376	
-0.397949	
-0.396545	
-0.397461	
-0.397949	
-0.397461	
-0.397034	
-0.396912	
-0.396729	
-0.397644	
-0.396729	
-0.396973	
-0.395874	
-0.395386	
-0.394409	
-0.395264	
-0.396057	
-0.395569	
-0.395691	
-0.395386	
-0.395386	
-0.396667	
-0.396545	
-0.396057	
-0.396729	
-0.39502	
-0.395813	
-0.395813	
-0.39679	
-0.395996	
-0.396057	
-0.396423	
-0.396729	
-0.397095	
-0.397461	
-0.398071	
-0.3974	
-0.395508	
-0.395752	
-0.396057	
-0.396545	
-0.39563	
-0.395691	
-0.39563	
-0.39447	
-0.39563	
-0.395874	
-0.396729	
-0.395325	
-0.394531	
-0.393921	
-0.393982	
-0.395508	
-0.394531	
-0.394714	
-0.395081	
-0.394653	
-0.394531	
-0.395081	
-0.394775	
-0.39447	
-0.392944	
-0.391235	
-0.391907	
-0.392822	
-0.39209	
-0.392395	
-0.391418	
-0.390503	
-0.391968	
-0.392761	
-0.392761	
-0.392151	
-0.391174	
-0.391541	
-0.391235	
-0.391052	
-0.391785	
-0.392334	
-0.391602	
-0.391907	
-0.392639	
-0.393738	
-0.393311	
-0.393372	
-0.392578	
-0.391724	
-0.393005	
-0.393433	
-0.39386	
-0.394287	
-0.394348	
-0.393555	
-0.394653	
-0.395386	
-0.395935	
-0.39563	
-0.394775	
-0.393494	
-0.394836	
-0.394348	
-0.395447	
-0.395447	
-0.395691	
-0.394714	
-0.396118	
-0.396362	
-0.397278	
-0.398254	
-0.396484	
-0.396362	
-0.396729	
-0.3974	
-0.397827	
-0.39801	
-0.398438	
-0.397705	
-0.398804	
-0.399475	
-0.399475	
-0.399536	
-0.398499	
-0.398193	
-0.39801	
-0.396545	
-0.397644	
-0.39801	
-0.397522	
-0.39563	
-0.396423	
-0.396301	
-0.397461	
-0.397034	
-0.395447	
-0.394897	
-0.395691	
-0.393799	
-0.395447	
-0.396118	
-0.395813	
-0.394836	
-0.395752	
-0.395874	
-0.397156	
-0.395996	
-0.396179	
-0.395935	
-0.396912	
-0.395569	
-0.397278	
-0.3974	
-0.397278	
-0.396851	
-0.397705	
-0.398315	
-0.400513	
-0.398682	
-0.398438	
-0.397949	
-0.398193	
-0.397217	
-0.398743	
-0.398682	
-0.398315	
-0.398315	
-0.398865	
-0.398987	
-0.400085	
-0.398621	
-0.399048	
-0.397949	
-0.397339	
-0.3974	
-0.398376	
-0.397461	
-0.3974	
-0.397217	
-0.397705	
-0.398254	
-0.399109	
-0.398071	
-0.398376	
-0.396729	
-0.395142	
-0.396118	
-0.396729	
-0.395569	
-0.395935	
-0.395935	
-0.395813	
-0.395935	
-0.39679	
-0.395935	
-0.397095	
-0.395081	
-0.394104	
-0.394653	
-0.395691	
-0.395203	
-0.395203	
-0.394592	
-0.39502	
-0.395264	
-0.395386	
-0.395386	
-0.396179	
-0.394897	
-0.393677	
-0.394653	
-0.393494	
-0.394287	
-0.394409	
-0.394653	
-0.394043	
-0.394348	
-0.394714	
-0.395264	
-0.395325	
-0.394775	
-0.394531	
-0.39502	
-0.394592	
-0.395691	
-0.39563	
-0.395691	
-0.396057	
-0.396301	
-0.396912	
-0.397888	
-0.397705	
-0.397644	
-0.396667	
-0.397705	
-0.397034	
-0.397705	
-0.398376	
-0.397827	
-0.397888	
-0.397949	
-0.398438	
-0.399841	
-0.399109	
-0.398254	
-0.397705	
-0.398376	
-0.397705	
-0.398315	
-0.39856	
-0.398193	
-0.398193	
-0.398132	
-0.3974	
-0.399048	
-0.397888	
-0.397888	
-0.396851	
-0.396301	
-0.396423	
-0.397217	
-0.397095	
-0.397522	
-0.39624	
-0.397766	
-0.398254	
-0.400146	
-0.399109	
-0.399719	
-0.399292	
-0.398499	
-0.398621	
-0.399597	
-0.399536	
-0.399597	
-0.398987	
-0.400391	
-0.400208	
-0.401245	
-0.400879	
-0.401367	
-0.400391	
-0.399841	
-0.40033	
-0.400818	
-0.400513	
-0.400696	
-0.400269	
-0.400085	
-0.400879	
-0.400452	
-0.40033	
-0.400391	
-0.399109	
-0.398376	
-0.398743	
-0.39917	
-0.398682	
-0.398743	
-0.397949	
-0.397461	
-0.3974	
-0.397339	
-0.397766	
-0.39679	
-0.395691	
-0.395203	
-0.395386	
-0.394897	
-0.394531	
-0.395203	
-0.394714	
-0.39447	
-0.394348	
-0.394653	
-0.396118	
-0.394531	
-0.394104	
-0.393188	
-0.393188	
-0.393799	
-0.393311	
-0.393616	
-0.393311	
-0.393188	
-0.393616	
-0.393738	
-0.395203	
-0.394531	
-0.394287	
-0.393555	
-0.393494	
-0.393433	
-0.39447	
-0.39447	
-0.393982	
-0.393066	
-0.394836	
-0.394836	
-0.396301	
-0.395691	
-0.395996	
-0.394531	
-0.393616	
-0.39502	
-0.395508	
-0.395874	
-0.395935	
-0.395691	
-0.396179	
-0.396423	
-0.397339	
-0.397034	
-0.396973	
-0.39624	
-0.394104	
-0.396179	
-0.397095	
-0.396667	
-0.396362	
-0.396057	
-0.39679	
-0.396973	
-0.397217	
-0.397095	
-0.397278	
-0.396118	
-0.393616	
-0.395447	
-0.396118	
-0.395386	
-0.395447	
-0.395081	
-0.395386	
-0.395569	
-0.396118	
-0.396851	
-0.397217	
-0.396606	
-0.395569	
-0.395508	
-0.398315	
-0.396912	
-0.397156	
-0.396667	
-0.396851	
-0.396912	
-0.397217	
-0.398926	
-0.397888	
-0.397156	
-0.396606	
-0.396606	
-0.397339	
-0.39801	
-0.398376	
-0.398376	
-0.397888	
-0.398865	
-0.399414	
-0.400696	
-0.400146	
-0.399841	
-0.399597	
-0.398743	
-0.401001	
-0.400635	
-0.400452	
-0.400269	
-0.39917	
-0.400513	
-0.40094	
-0.401428	
-0.400574	
-0.400391	
-0.399536	
-0.396912	
-0.398315	
-0.39978	
-0.398621	
-0.398499	
-0.398193	
-0.398376	
-0.398499	
-0.398865	
-0.39917	
-0.3974	
-0.397034	
-0.396362	
-0.396423	
-0.397461	
-0.396973	
-0.396667	
-0.396423	
-0.396545	
-0.396729	
-0.396851	
-0.397949	
-0.396179	
-0.396484	
-0.394775	
-0.394653	
-0.395874	
-0.395691	
-0.395386	
-0.394897	
-0.39447	
-0.394592	
-0.394653	
-0.395081	
-0.393494	
-0.393127	
-0.391846	
-0.391785	
-0.393982	
-0.393433	
-0.393311	
-0.393555	
-0.393188	
-0.394104	
-0.394165	
-0.395569	
-0.394897	
-0.395081	
-0.394592	
-0.393799	
-0.396057	
-0.396118	
-0.395752	
-0.395935	
-0.395264	
-0.395935	
-0.396179	
-0.397278	
-0.396606	
-0.396912	
-0.396423	
-0.394714	
-0.396179	
-0.395996	
-0.395569	
-0.395203	
-0.39502	
-0.395813	
-0.394653	
-0.395203	
-0.396545	
-0.394348	
-0.393555	
-0.392883	
-0.393982	
-0.39386	
-0.393677	
-0.393555	
-0.392761	
-0.393555	
-0.39325	
-0.39386	
-0.395264	
-0.392639	
-0.3927	
-0.391418	
-0.392578	
-0.394043	
-0.393494	
-0.393738	
-0.393372	
-0.393433	
-0.393738	
-0.394348	
-0.395447	
-0.393311	
-0.393311	
-0.392578	
-0.391479	
-0.39502	
-0.394409	
-0.39447	
-0.394531	
-0.395447	
-0.395325	
-0.396301	
-0.397461	
-0.395996	
-0.39563	
-0.394409	
-0.394348	
-0.396851	
-0.395996	
-0.395996	
-0.395935	
-0.395752	
-0.396362	
-0.396667	
-0.397522	
-0.397766	
-0.396729	
-0.39563	
-0.394531	
-0.397705	
-0.396851	
-0.396179	
-0.396729	
-0.395691	
-0.397278	
-0.3974	
-0.397888	
-0.398315	
-0.397034	
-0.396606	
-0.396301	
-0.396667	
-0.397034	
-0.396851	
-0.396667	
-0.396118	
-0.396484	
-0.396362	
-0.39624	
-0.397278	
-0.39563	
-0.394592	
-0.394409	
-0.394958	
-0.394836	
-0.394287	
-0.394287	
-0.394348	
-0.39386	
-0.394104	
-0.39386	
-0.394531	
-0.393372	
-0.392578	
-0.392761	
-0.392273	
-0.393738	
-0.393433	
-0.393188	
-0.393372	
-0.393311	
-0.393738	
-0.39386	
-0.394897	
-0.393433	
-0.393738	
-0.393494	
-0.392456	
-0.394897	
-0.394043	
-0.394287	
-0.394226	
-0.394165	
-0.39447	
-0.39502	
-0.394958	
-0.394836	
-0.393066	
-0.393066	
-0.391418	
-0.393372	
-0.392456	
-0.3927	
-0.391357	
-0.391357	
-0.391479	
-0.392639	
-0.391907	
-0.392029	
-0.390625	
-0.390564	
-0.389465	
-0.391174	
-0.391174	
-0.391296	
-0.39093	
-0.390991	
-0.391541	
-0.391296	
-0.391479	
-0.392761	
-0.390747	
-0.389465	
-0.390808	
-0.390625	
-0.391968	
-0.391907	
-0.392212	
-0.391235	
-0.392273	
-0.392883	
-0.393188	
-0.394226	
-0.393433	
-0.392639	
-0.393616	
-0.394104	
-0.395691	
-0.395325	
-0.395264	
-0.395447	
-0.396179	
-0.396545	
-0.39679	
-0.398315	
-0.39679	
-0.396484	
-0.396362	
-0.397034	
-0.397766	
-0.397766	
-0.397522	
-0.397522	
-0.39801	
-0.398682	
-0.398315	
-0.399963	
-0.398621	
-0.398193	
-0.397705	
-0.397461	
-0.399109	
-0.398376	
-0.397888	
-0.397827	
-0.398132	
-0.398132	
-0.398987	
-0.398071	
-0.398132	
-0.39679	
-0.396667	
-0.39447	
-0.397156	
-0.396545	
-0.396484	
-0.396423	
-0.395935	
-0.395813	
-0.396851	
-0.39563	
-0.395508	
-0.39502	
-0.394165	
-0.394409	
-0.394836	
-0.395081	
-0.394775	
-0.394897	
-0.39447	
-0.395142	
-0.395264	
-0.39563	
-0.396301	
-0.395325	
-0.393982	
-0.395203	
-0.396301	
-0.395264	
-0.395569	
-0.395569	
-0.395264	
-0.396606	
-0.396545	
-0.39679	
-0.397949	
-0.396973	
-0.395752	
-0.395325	
-0.395081	
-0.39502	
-0.39502	
-0.394653	
-0.393372	
-0.39502	
-0.394592	
-0.395142	
-0.396118	
-0.395264	
-0.394104	
-0.394226	
-0.393311	
-0.393127	
-0.394348	
-0.394226	
-0.393494	
-0.394104	
-0.394043	
-0.394104	
-0.393921	
-0.393311	
-0.392334	
-0.392151	
-0.390503	
-0.390442	
-0.391479	
-0.391174	
-0.390259	
-0.391235	
-0.391174	
-0.392273	
-0.391907	
-0.39209	
-0.390991	
-0.391357	
-0.390137	
-0.391052	
-0.391357	
-0.392029	
-0.392029	
-0.392029	
-0.3927	
-0.393005	
-0.392761	
-0.394287	
-0.39325	
-0.391724	
-0.392578	
-0.393555	
-0.393982	
-0.393677	
-0.393555	
-0.394165	
-0.394714	
-0.39502	
-0.395203	
-0.395874	
-0.395447	
-0.393372	
-0.394653	
-0.394592	
-0.395508	
-0.395264	
-0.395325	
-0.395325	
-0.396057	
-0.39624	
-0.396606	
-0.397522	
-0.397644	
-0.39624	
-0.397278	
-0.397461	
-0.397644	
-0.398193	
-0.397949	
-0.398376	
-0.398682	
-0.398865	
-0.398438	
-0.399231	
-0.399475	
-0.397461	
-0.397461	
-0.3974	
-0.396362	
-0.397278	
-0.396484	
-0.395142	
-0.395874	
-0.395874	
-0.396667	
-0.396057	
-0.397156	
-0.394958	
-0.394897	
-0.394531	
-0.394287	
-0.395325	
-0.395447	
-0.394775	
-0.395935	
-0.395935	
-0.396851	
-0.396179	
-0.396301	
-0.39624	
-0.396667	
-0.395813	
-0.395447	
-0.397156	
	
