E:\DOCUMENTS AND SETTINGS\JPOTAS\MEUS DOCUMENTOS\UFRJ\RSCI-BM 12 WK SERIES\070730-RSCI-BM-09\RSCI-BM-09-LEMG\070730-RSCI-BM-09-LEMG-0009.ACQ
0.025000 msec/sample
1 channel
Analog input
Volts
CH1	
2000	
-0.406067	
-0.405884	
-0.405457	
-0.405823	
-0.406067	
-0.404724	
-0.404297	
-0.40271	
-0.404175	
-0.403503	
-0.403687	
-0.402832	
-0.401917	
-0.401794	
-0.400635	
-0.401001	
-0.400696	
-0.399658	
-0.400391	
-0.399719	
-0.399597	
-0.401001	
-0.399963	
-0.400818	
-0.39978	
-0.399414	
-0.400208	
-0.399231	
-0.401123	
-0.400818	
-0.400818	
-0.400452	
-0.399719	
-0.401611	
-0.40155	
-0.401855	
-0.401611	
-0.401428	
-0.402344	
-0.401367	
-0.402466	
-0.404297	
-0.402161	
-0.402527	
-0.402405	
-0.403015	
-0.40448	
-0.404419	
-0.40509	
-0.40448	
-0.404785	
-0.405945	
-0.404907	
-0.406311	
-0.406494	
-0.406128	
-0.406311	
-0.40625	
-0.407349	
-0.407043	
-0.407227	
-0.407532	
-0.407043	
-0.408081	
-0.408142	
-0.408325	
-0.409973	
-0.407715	
-0.408752	
-0.408203	
-0.407715	
-0.40979	
-0.408936	
-0.409668	
-0.408569	
-0.408447	
-0.40918	
-0.407349	
-0.408447	
-0.40802	
-0.406616	
-0.406311	
-0.405396	
-0.406616	
-0.406982	
-0.406921	
-0.407837	
-0.406555	
-0.406982	
-0.406006	
-0.406982	
-0.40741	
-0.405151	
-0.405945	
-0.405701	
-0.405212	
-0.407349	
-0.406006	
-0.405457	
-0.404846	
-0.404602	
-0.405884	
-0.404724	
-0.405212	
-0.405334	
-0.404358	
-0.404602	
-0.404358	
-0.405396	
-0.405334	
-0.405457	
-0.406189	
-0.404541	
-0.405701	
-0.405396	
-0.404968	
-0.406677	
-0.405457	
-0.406311	
-0.405884	
-0.40564	
-0.406555	
-0.405701	
-0.406128	
-0.405884	
-0.405396	
-0.406738	
-0.405029	
-0.406555	
-0.406311	
-0.40625	
-0.406128	
-0.406128	
-0.405884	
-0.406738	
-0.40686	
-0.407837	
-0.406311	
-0.406738	
-0.406433	
-0.406128	
-0.40686	
-0.406006	
-0.406067	
-0.406189	
-0.405945	
-0.406799	
-0.406128	
-0.406128	
-0.40564	
-0.405823	
-0.406311	
-0.404968	
-0.406006	
-0.405212	
-0.403809	
-0.405029	
-0.403564	
-0.404297	
-0.405212	
-0.404785	
-0.40509	
-0.40387	
-0.403748	
-0.40332	
-0.402771	
-0.403076	
-0.402649	
-0.401794	
-0.401123	
-0.401428	
-0.402161	
-0.401306	
-0.401733	
-0.401672	
-0.400818	
-0.402283	
-0.400635	
-0.402161	
-0.401917	
-0.401306	
-0.401672	
-0.400574	
-0.402039	
-0.402344	
-0.402771	
-0.402771	
-0.402405	
-0.403503	
-0.40387	
-0.40448	
-0.405334	
-0.406189	
-0.406067	
-0.406006	
-0.40686	
-0.407776	
-0.39801	
-0.387268	
-0.385315	
-0.385498	
-0.387329	
-0.387451	
-0.401001	
-0.411438	
-0.412598	
-0.412415	
-0.412048	
-0.413025	
-0.413025	
-0.413025	
-0.412476	
-0.412231	
-0.412781	
-0.413635	
-0.413086	
-0.412354	
-0.413147	
-0.411804	
-0.411499	
-0.412292	
-0.412903	
-0.412292	
-0.412964	
-0.411438	
-0.411194	
-0.411499	
-0.411377	
-0.411621	
-0.410767	
-0.409546	
-0.409668	
-0.409607	
-0.409241	
-0.40979	
-0.409302	
-0.408997	
-0.408752	
-0.409119	
-0.408569	
-0.408936	
-0.408264	
-0.408997	
-0.407776	
-0.407593	
-0.408508	
-0.408936	
-0.40863	
-0.409912	
-0.398438	
-0.385376	
-0.38501	
-0.385559	
-0.385864	
-0.385437	
-0.397217	
-0.407349	
-0.409241	
-0.409668	
-0.410278	
-0.41156	
-0.411499	
-0.41217	
-0.416138	
-0.419922	
-0.423767	
-0.427063	
-0.432922	
-0.437561	
-0.443604	
-0.449158	
-0.455994	
-0.462463	
-0.46637	
-0.469543	
-0.472046	
-0.4729	
-0.473511	
-0.472717	
-0.47052	
-0.468994	
-0.467285	
-0.465088	
-0.463684	
-0.462341	
-0.460327	
-0.459778	
-0.459412	
-0.459839	
-0.46167	
-0.462769	
-0.464294	
-0.464722	
-0.466064	
-0.46759	
-0.470581	
-0.472168	
-0.473389	
-0.474609	
-0.475708	
-0.476013	
-0.476563	
-0.476624	
-0.476807	
-0.476746	
-0.477844	
-0.478516	
-0.478821	
-0.47998	
-0.479675	
-0.479431	
-0.479858	
-0.479675	
-0.479797	
-0.478882	
-0.479065	
-0.477905	
-0.477234	
-0.475464	
-0.473694	
-0.472534	
-0.470581	
-0.468201	
-0.46637	
-0.465332	
-0.462952	
-0.460571	
-0.458069	
-0.455322	
-0.453735	
-0.452026	
-0.450195	
-0.449036	
-0.447815	
-0.447571	
-0.446655	
-0.447021	
-0.447571	
-0.44696	
-0.447693	
-0.447205	
-0.448364	
-0.449219	
-0.450623	
-0.451782	
-0.452698	
-0.453125	
-0.452332	
-0.453369	
-0.454224	
-0.452332	
-0.451538	
-0.450378	
-0.447998	
-0.44751	
-0.446045	
-0.442749	
-0.440186	
-0.435364	
-0.431091	
-0.426147	
-0.42218	
-0.41571	
-0.409912	
-0.404114	
-0.395996	
-0.39032	
-0.383789	
-0.377014	
-0.369934	
-0.36322	
-0.356567	
-0.350708	
-0.34491	
-0.341064	
-0.334595	
-0.330505	
-0.326965	
-0.323181	
-0.320618	
-0.319092	
-0.317749	
-0.31781	
-0.317383	
-0.318176	
-0.319641	
-0.323242	
-0.324524	
-0.328796	
-0.33197	
-0.335693	
-0.339783	
-0.343445	
-0.346252	
-0.350037	
-0.353088	
-0.355103	
-0.358643	
-0.362976	
-0.364624	
-0.367126	
-0.369629	
-0.371521	
-0.373657	
-0.376038	
-0.378418	
-0.379028	
-0.381042	
-0.381714	
-0.385315	
-0.386169	
-0.388245	
-0.390808	
-0.392456	
-0.394531	
-0.395935	
-0.397583	
-0.399109	
-0.399353	
-0.400146	
-0.399658	
-0.402832	
-0.402954	
-0.402832	
-0.403198	
-0.403503	
-0.402954	
-0.402466	
-0.402222	
-0.402161	
-0.400452	
-0.399658	
-0.398499	
-0.398804	
-0.396851	
-0.395935	
-0.394653	
-0.393433	
-0.392029	
-0.390686	
-0.389709	
-0.388794	
-0.386292	
-0.38446	
-0.382629	
-0.382263	
-0.38092	
-0.378662	
-0.376892	
-0.375183	
-0.372803	
-0.370667	
-0.368958	
-0.367065	
-0.363403	
-0.360779	
-0.357605	
-0.355225	
-0.351807	
-0.347839	
-0.343689	
-0.340942	
-0.336487	
-0.333008	
-0.329529	
-0.326172	
-0.323059	
-0.320007	
-0.316528	
-0.315918	
-0.314148	
-0.312805	
-0.311279	
-0.311401	
-0.31073	
-0.310852	
-0.311035	
-0.310547	
-0.31073	
-0.31073	
-0.310425	
-0.312073	
-0.312134	
-0.312622	
-0.313477	
-0.313965	
-0.315552	
-0.316406	
-0.318726	
-0.317993	
-0.319702	
-0.320557	
-0.322327	
-0.324341	
-0.325317	
-0.325989	
-0.329346	
-0.330994	
-0.332642	
-0.33374	
-0.334778	
-0.336792	
-0.337769	
-0.339539	
-0.340759	
-0.342957	
-0.34314	
-0.344849	
-0.346985	
-0.348267	
-0.349854	
-0.351746	
-0.353088	
-0.354919	
-0.356445	
-0.357666	
-0.359741	
-0.361023	
-0.361633	
-0.36377	
-0.364624	
-0.366272	
-0.367188	
-0.368774	
-0.368652	
-0.368958	
-0.370117	
-0.369629	
-0.369812	
-0.370361	
-0.3703	
-0.371338	
-0.371033	
-0.371521	
-0.371521	
-0.372192	
-0.372131	
-0.372314	
-0.372864	
-0.371521	
-0.372559	
-0.373291	
-0.373108	
-0.373718	
-0.373352	
-0.373901	
-0.373779	
-0.374695	
-0.373901	
-0.374268	
-0.374512	
-0.372986	
-0.374573	
-0.375488	
-0.373962	
-0.375305	
-0.375427	
-0.374756	
-0.375488	
-0.377563	
-0.377258	
-0.377197	
-0.377502	
-0.378052	
-0.378723	
-0.37915	
-0.378967	
-0.380066	
-0.379822	
-0.380371	
-0.381348	
-0.38208	
-0.382874	
-0.38208	
-0.382446	
-0.382874	
-0.382446	
-0.383789	
-0.383667	
-0.385254	
-0.384705	
-0.384521	
-0.385681	
-0.386414	
-0.387451	
-0.387207	
-0.387451	
-0.388916	
-0.388855	
-0.389648	
-0.388611	
-0.389343	
-0.389526	
-0.38855	
-0.389587	
-0.389893	
-0.390198	
-0.390137	
-0.390869	
-0.389832	
-0.391052	
-0.391541	
-0.391602	
-0.391174	
-0.391296	
-0.392334	
-0.391174	
-0.392883	
-0.391968	
-0.392517	
-0.393127	
-0.391785	
-0.393066	
-0.3927	
-0.393372	
-0.392883	
-0.3927	
-0.393127	
-0.393066	
-0.393372	
-0.3927	
-0.39325	
-0.393005	
-0.393433	
-0.393433	
-0.393127	
-0.393127	
-0.393005	
-0.392578	
-0.393066	
-0.3927	
-0.39325	
-0.392761	
-0.392639	
-0.391724	
-0.39209	
-0.392029	
-0.392212	
-0.392212	
-0.391052	
-0.391052	
-0.391479	
-0.392639	
-0.39209	
-0.392639	
-0.392761	
-0.392944	
-0.393921	
-0.393494	
-0.393311	
-0.393433	
-0.39447	
-0.394653	
-0.394287	
-0.394775	
-0.394897	
-0.395447	
-0.393982	
-0.39502	
-0.394836	
-0.393982	
-0.395874	
-0.39386	
-0.394226	
-0.394592	
-0.395752	
-0.394836	
-0.394592	
-0.394104	
-0.394348	
-0.39447	
-0.39447	
-0.392883	
-0.394836	
-0.392883	
-0.3927	
-0.393066	
-0.394348	
-0.392944	
-0.392822	
-0.392212	
-0.391052	
-0.392212	
-0.391602	
-0.390869	
-0.391602	
-0.390442	
-0.389832	
-0.390991	
-0.391541	
-0.390991	
-0.391052	
-0.392029	
-0.390442	
-0.391785	
-0.391541	
-0.391541	
-0.391724	
-0.390137	
-0.39093	
-0.390869	
-0.392578	
-0.39209	
-0.392822	
-0.393799	
-0.393494	
-0.394226	
-0.394226	
-0.394775	
-0.394958	
-0.394897	
-0.394897	
-0.395447	
-0.396729	
-0.396973	
-0.397339	
-0.39856	
-0.398132	
-0.399963	
-0.399231	
-0.399414	
-0.398743	
-0.398987	
-0.399231	
-0.399719	
-0.400757	
-0.40094	
-0.401123	
-0.40094	
-0.4021	
-0.403015	
-0.402161	
-0.402893	
-0.402283	
-0.402466	
-0.40271	
-0.402405	
-0.403503	
-0.403503	
-0.40387	
-0.402466	
-0.403442	
-0.40387	
-0.403198	
-0.403076	
-0.402222	
-0.40155	
-0.400146	
-0.401489	
-0.401367	
-0.401489	
-0.401123	
-0.401062	
-0.401489	
-0.401184	
-0.400635	
-0.401917	
-0.400818	
-0.401428	
-0.400879	
-0.401001	
-0.400696	
-0.400757	
-0.400757	
-0.400574	
-0.400696	
-0.400269	
-0.399353	
-0.400574	
-0.399414	
-0.400452	
-0.399353	
-0.401245	
-0.400391	
-0.400818	
-0.400452	
-0.400818	
-0.40155	
-0.400757	
-0.400146	
-0.401733	
-0.40033	
-0.401062	
-0.401367	
-0.401733	
-0.402405	
-0.402039	
-0.402527	
-0.401978	
-0.402527	
-0.401794	
-0.402405	
-0.402832	
-0.401855	
-0.401794	
-0.402222	
-0.402344	
-0.402832	
-0.40271	
-0.403137	
-0.403259	
-0.403564	
-0.402466	
-0.40332	
-0.403076	
-0.401794	
-0.403442	
-0.403076	
-0.402466	
-0.402832	
-0.402588	
-0.402954	
-0.402649	
-0.403137	
-0.402527	
-0.4021	
-0.402893	
-0.401855	
-0.402466	
-0.401428	
-0.402344	
-0.401794	
-0.401306	
-0.402039	
-0.40155	
-0.402161	
-0.401611	
-0.401978	
-0.402649	
-0.399841	
-0.400085	
-0.400024	
-0.399292	
-0.398804	
-0.398315	
-0.399475	
-0.39856	
-0.398621	
-0.39801	
-0.39856	
-0.399597	
-0.397644	
-0.398315	
-0.398132	
-0.398376	
-0.398804	
-0.398987	
-0.398376	
-0.39917	
-0.39978	
-0.39917	
-0.399841	
-0.401855	
-0.400146	
-0.400452	
-0.400391	
-0.400757	
-0.401794	
-0.402283	
-0.402771	
-0.403748	
-0.404236	
-0.403931	
-0.404602	
-0.406372	
-0.404785	
-0.405579	
-0.405823	
-0.406189	
-0.406616	
-0.406494	
-0.407349	
-0.407471	
-0.407776	
-0.408386	
-0.407654	
-0.408936	
-0.407532	
-0.407837	
-0.407532	
-0.407959	
-0.407959	
-0.408386	
-0.408813	
-0.408386	
-0.408508	
-0.40918	
-0.408936	
-0.410339	
-0.408386	
-0.408203	
-0.407898	
-0.408508	
-0.407349	
-0.407349	
-0.407837	
-0.407043	
-0.406616	
-0.406372	
-0.406189	
-0.406921	
-0.405701	
-0.40448	
-0.405273	
-0.405396	
-0.405273	
-0.405273	
-0.405212	
-0.404846	
-0.404663	
-0.404663	
-0.403748	
-0.404968	
-0.404907	
-0.403381	
-0.403748	
-0.404053	
-0.404297	
-0.404114	
-0.403564	
-0.402283	
-0.402954	
-0.40271	
-0.4021	
-0.403015	
-0.403503	
-0.402588	
-0.402649	
-0.401917	
-0.402832	
-0.403442	
-0.403748	
-0.403259	
-0.403137	
-0.403076	
-0.403137	
-0.403442	
-0.403259	
-0.402405	
-0.402344	
-0.401672	
-0.401611	
-0.402161	
-0.402588	
-0.401733	
-0.401978	
-0.402527	
-0.402832	
-0.402771	
-0.402893	
-0.402283	
-0.402466	
-0.402161	
-0.402954	
-0.401978	
-0.402283	
-0.403015	
-0.402466	
-0.402527	
-0.402954	
-0.40271	
-0.403381	
-0.403564	
-0.401917	
-0.402832	
-0.403931	
-0.403503	
-0.403442	
-0.404419	
-0.403992	
-0.403687	
-0.403809	
-0.403198	
-0.405029	
-0.404602	
-0.403442	
-0.403748	
-0.403748	
-0.402527	
-0.402832	
-0.403198	
-0.402161	
-0.401672	
-0.4021	
-0.401672	
-0.401917	
-0.400574	
-0.400574	
-0.400635	
-0.401245	
-0.400146	
-0.400208	
-0.400391	
-0.399719	
-0.40033	
-0.400208	
-0.401123	
-0.40155	
-0.400757	
-0.401611	
-0.400208	
-0.401367	
-0.401123	
-0.400391	
-0.401917	
-0.402283	
-0.401978	
-0.402344	
-0.402466	
-0.403625	
-0.403748	
-0.40448	
-0.403137	
-0.405579	
-0.406006	
-0.405151	
-0.406311	
-0.406494	
-0.406433	
-0.406311	
-0.406372	
-0.406738	
-0.406555	
-0.406555	
-0.40686	
-0.405884	
-0.407227	
-0.40625	
-0.406189	
-0.406494	
-0.406555	
-0.405762	
-0.405884	
-0.406982	
-0.405457	
-0.405579	
-0.405579	
-0.404236	
-0.404907	
-0.404785	
-0.404175	
-0.404297	
-0.404724	
-0.403931	
-0.404236	
-0.404663	
-0.403625	
-0.403625	
-0.403442	
-0.400208	
-0.401855	
-0.401917	
-0.400391	
-0.40155	
-0.401184	
-0.40094	
-0.400574	
-0.400757	
-0.399414	
-0.399963	
-0.399719	
-0.398987	
-0.398926	
-0.399963	
-0.398926	
-0.399048	
-0.398865	
-0.398254	
-0.398682	
-0.398926	
-0.399109	
-0.39856	
-0.398865	
-0.399536	
-0.39917	
-0.39917	
-0.398987	
-0.399414	
-0.400024	
-0.400818	
-0.400208	
-0.400085	
-0.40033	
-0.400452	
-0.400452	
-0.40033	
-0.400269	
-0.401062	
-0.401794	
-0.400513	
-0.400696	
-0.401123	
-0.40155	
-0.40155	
-0.402527	
-0.400696	
-0.401733	
-0.40155	
-0.401733	
-0.401733	
-0.402405	
-0.4021	
-0.402283	
-0.402527	
-0.401855	
-0.402893	
-0.403503	
-0.402649	
-0.402954	
-0.402649	
-0.403442	
-0.401978	
-0.403198	
-0.403076	
-0.402344	
-0.402405	
-0.402222	
-0.400696	
-0.40155	
-0.401489	
-0.402039	
-0.401672	
-0.401367	
-0.400635	
-0.40094	
-0.401062	
-0.400146	
-0.401245	
-0.401428	
-0.400085	
-0.401245	
-0.400635	
-0.400146	
-0.400269	
-0.400085	
-0.399963	
-0.40033	
-0.400269	
-0.400757	
-0.40033	
-0.401062	
-0.400513	
-0.401367	
-0.401184	
-0.400146	
-0.401123	
-0.400574	
-0.401917	
-0.40033	
-0.401184	
-0.401794	
-0.400818	
-0.401672	
-0.4021	
-0.400818	
-0.402832	
-0.402283	
-0.402771	
-0.401794	
-0.403076	
-0.402588	
-0.402527	
-0.403442	
-0.402832	
-0.40448	
-0.405273	
-0.404175	
-0.406006	
-0.405273	
-0.405212	
-0.405029	
-0.405396	
-0.404602	
-0.403931	
-0.40509	
-0.405151	
-0.404541	
-0.404846	
-0.404785	
-0.404968	
-0.404663	
-0.404358	
-0.405334	
-0.402832	
-0.404358	
-0.40332	
-0.40387	
-0.403992	
-0.402344	
-0.402771	
-0.403137	
-0.401367	
-0.401184	
-0.400574	
-0.400696	
-0.399048	
-0.399353	
-0.399109	
-0.397644	
-0.398132	
-0.398193	
-0.397461	
-0.397827	
-0.396667	
-0.397339	
-0.395874	
-0.39502	
-0.395752	
-0.396179	
-0.396118	
-0.394836	
-0.395325	
-0.395691	
-0.394836	
-0.395142	
-0.395569	
-0.395325	
-0.394592	
-0.394592	
-0.394897	
-0.394287	
-0.395325	
-0.394958	
-0.395325	
-0.396118	
-0.394409	
-0.39624	
-0.396973	
-0.396545	
-0.396545	
-0.396057	
-0.396301	
-0.397156	
-0.397461	
-0.396667	
-0.397095	
-0.397461	
-0.3974	
-0.397339	
-0.397522	
-0.398499	
-0.397888	
-0.397888	
-0.397644	
-0.3974	
-0.398254	
-0.399414	
-0.397766	
-0.398499	
-0.399597	
-0.399231	
-0.399231	
-0.400391	
-0.40033	
-0.400635	
-0.400879	
-0.398926	
-0.400513	
-0.401184	
-0.400391	
-0.399597	
-0.399414	
-0.398132	
-0.399353	
-0.399292	
-0.398438	
-0.398926	
-0.399414	
-0.399231	
-0.399048	
-0.399414	
-0.399658	
-0.399292	
-0.399902	
-0.400024	
-0.399902	
-0.400085	
-0.400696	
-0.400024	
-0.399841	
-0.39917	
-0.399048	
-0.399414	
-0.400269	
-0.399231	
-0.39978	
-0.40033	
-0.399353	
-0.399658	
-0.399963	
-0.39801	
-0.398926	
-0.399231	
-0.399719	
-0.398804	
-0.399353	
-0.398499	
-0.398193	
-0.398621	
-0.398193	
-0.398499	
-0.398499	
-0.397766	
-0.3974	
-0.397583	
-0.397278	
-0.39679	
-0.397827	
-0.398376	
-0.396912	
-0.397766	
-0.399048	
-0.39917	
-0.398621	
-0.398682	
-0.399353	
-0.39917	
-0.399292	
-0.399902	
-0.40033	
-0.400269	
-0.400208	
-0.400574	
-0.401001	
-0.399109	
-0.400574	
-0.401001	
-0.400635	
-0.400208	
-0.399963	
-0.400635	
-0.399048	
-0.400269	
-0.399963	
-0.399597	
-0.399841	
-0.399475	
-0.398987	
-0.399597	
-0.398254	
-0.397827	
-0.397461	
-0.397644	
-0.397034	
-0.396118	
-0.39679	
-0.394714	
-0.394775	
-0.395081	
-0.394104	
-0.394409	
-0.394226	
-0.393616	
-0.393188	
-0.392761	
-0.393555	
-0.393311	
-0.393555	
-0.392822	
-0.393066	
-0.393799	
-0.392639	
-0.393982	
-0.393677	
-0.39325	
-0.394165	
-0.394043	
-0.395081	
-0.393677	
-0.394653	
-0.395386	
-0.394348	
-0.395203	
-0.395935	
-0.395996	
-0.396057	
-0.395447	
-0.395996	
-0.395386	
-0.396118	
-0.39679	
-0.396912	
-0.397339	
-0.397705	
-0.397949	
-0.399048	
-0.3974	
-0.39917	
-0.398376	
-0.399292	
-0.399414	
-0.398926	
-0.399963	
-0.398376	
-0.39978	
-0.400391	
-0.399292	
-0.400208	
-0.400269	
-0.401001	
-0.401245	
-0.400391	
-0.401733	
-0.400818	
-0.401184	
-0.400635	
-0.40094	
-0.401794	
-0.399719	
-0.400696	
-0.400879	
-0.399048	
-0.400391	
-0.399231	
-0.398865	
-0.39801	
-0.397949	
-0.39856	
-0.397217	
-0.397888	
-0.398071	
-0.397705	
-0.398315	
-0.397583	
-0.397644	
-0.3974	
-0.396423	
-0.39801	
-0.396606	
-0.398132	
-0.396545	
-0.396912	
-0.396973	
-0.396606	
-0.396423	
-0.396851	
-0.394897	
-0.39679	
-0.395813	
-0.396484	
-0.395813	
-0.396606	
-0.395752	
-0.394592	
-0.396484	
-0.39502	
-0.395996	
-0.396912	
-0.396301	
-0.397339	
-0.396729	
-0.396057	
-0.396362	
-0.39624	
-0.396301	
-0.395935	
-0.397034	
-0.397034	
-0.396301	
-0.396423	
-0.396729	
-0.395874	
-0.396912	
-0.396423	
-0.397888	
-0.396057	
-0.397949	
-0.396729	
-0.396729	
-0.397034	
-0.397339	
-0.39679	
-0.397766	
-0.396362	
-0.3974	
-0.396362	
-0.395813	
-0.39624	
-0.396484	
-0.39679	
-0.396118	
-0.396729	
-0.396484	
-0.395874	
-0.396484	
-0.395447	
-0.394958	
-0.394897	
-0.39447	
-0.395569	
-0.394531	
-0.395691	
-0.394714	
-0.394897	
-0.39447	
-0.393433	
-0.39386	
-0.394043	
-0.392883	
-0.392273	
-0.391846	
-0.391907	
-0.390503	
-0.391846	
-0.391602	
-0.390686	
-0.391235	
-0.391113	
-0.391357	
-0.391785	
-0.391113	
-0.39093	
-0.391418	
-0.391418	
-0.391907	
-0.391663	
-0.392822	
-0.391907	
-0.391846	
-0.392212	
-0.392273	
-0.392822	
-0.39386	
-0.393677	
-0.394043	
-0.394043	
-0.395569	
-0.394409	
-0.395996	
-0.39624	
-0.395569	
-0.396973	
-0.397827	
-0.397583	
-0.398438	
-0.397766	
-0.398071	
-0.39856	
-0.398254	
-0.399841	
-0.39917	
-0.400024	
-0.399048	
-0.399597	
-0.39978	
-0.399475	
-0.399719	
-0.400391	
-0.400208	
-0.400024	
-0.39978	
-0.400269	
-0.40033	
-0.400635	
-0.400146	
-0.399292	
-0.399719	
-0.400452	
-0.399353	
-0.399841	
-0.399536	
-0.397766	
-0.398743	
-0.39801	
-0.397522	
-0.397522	
-0.398071	
-0.397217	
-0.396851	
-0.396729	
-0.395996	
-0.396851	
-0.397217	
-0.39624	
-0.395813	
-0.395447	
-0.396423	
-0.395447	
-0.395813	
-0.395691	
-0.394958	
-0.395508	
-0.396179	
-0.39563	
-0.395996	
-0.395447	
-0.392639	
-0.393799	
-0.392517	
-0.393799	
-0.393555	
-0.394104	
-0.393555	
-0.393982	
-0.394409	
-0.393066	
-0.394104	
-0.394958	
-0.393494	
-0.393799	
-0.392944	
-0.394165	
-0.393982	
-0.394348	
-0.393372	
-0.391968	
-0.392883	
-0.393372	
-0.393005	
-0.393677	
-0.392944	
-0.392822	
-0.392456	
-0.392883	
-0.393799	
-0.393188	
-0.393433	
-0.392761	
-0.393311	
-0.392883	
-0.393555	
-0.393677	
-0.39447	
-0.39325	
-0.393555	
-0.393066	
-0.393738	
-0.39386	
-0.393921	
-0.393921	
-0.393433	
-0.394165	
-0.394165	
-0.394226	
-0.39563	
-0.394653	
-0.39386	
-0.394897	
-0.39386	
-0.395752	
-0.395203	
-0.395447	
-0.394531	
-0.394958	
-0.394653	
-0.393555	
-0.395264	
-0.394226	
-0.393311	
-0.393005	
-0.391357	
-0.393005	
-0.392456	
-0.392334	
-0.392029	
-0.390442	
-0.391907	
-0.39209	
-0.392212	
-0.392761	
-0.391907	
-0.391113	
-0.391541	
-0.392395	
-0.392578	
-0.392395	
-0.3927	
-0.392151	
-0.392334	
-0.392822	
-0.393066	
-0.394592	
-0.393616	
-0.393127	
-0.393799	
-0.393494	
-0.395203	
-0.395569	
-0.396423	
-0.396118	
-0.39624	
-0.397461	
-0.398193	
-0.398132	
-0.398804	
-0.397705	
-0.397888	
-0.397522	
-0.398315	
-0.398926	
-0.398315	
-0.399231	
-0.397888	
-0.397949	
-0.397949	
-0.398132	
-0.399231	
-0.3974	
-0.397095	
-0.396606	
-0.395691	
-0.397034	
-0.397034	
-0.396606	
-0.396729	
-0.395935	
-0.395996	
-0.39624	
-0.396301	
-0.395447	
-0.395264	
-0.394836	
-0.393677	
-0.395264	
-0.395508	
-0.394409	
-0.39447	
-0.393677	
-0.392883	
-0.393005	
-0.392395	
-0.393738	
-0.391968	
-0.390991	
-0.39093	
-0.391174	
-0.391968	
-0.391357	
-0.391357	
-0.390503	
-0.389709	
-0.390137	
-0.390564	
-0.391052	
-0.390076	
-0.389526	
-0.389526	
-0.389771	
-0.390137	
-0.390625	
-0.390381	
-0.390747	
-0.39032	
-0.390564	
-0.391541	
-0.391663	
-0.392517	
-0.391907	
-0.390747	
-0.391724	
-0.391174	
-0.393188	
-0.39209	
-0.39209	
-0.392212	
-0.392456	
-0.392639	
-0.3927	
-0.392395	
-0.39325	
-0.392212	
-0.391541	
-0.392456	
-0.393127	
-0.392822	
-0.393616	
-0.39447	
-0.392944	
-0.393555	
-0.395203	
-0.393982	
-0.394226	
-0.394104	
-0.392517	
-0.394592	
-0.394226	
-0.394897	
-0.39386	
-0.394592	
-0.394043	
-0.394104	
-0.39447	
-0.394104	
-0.393372	
-0.393738	
-0.392395	
-0.39325	
-0.393188	
-0.393188	
-0.392822	
-0.393738	
-0.394165	
-0.392212	
-0.39325	
-0.394348	
-0.391846	
-0.393127	
-0.392517	
-0.392517	
-0.392944	
-0.391846	
-0.39325	
-0.3927	
-0.392822	
-0.392822	
-0.392944	
-0.393188	
-0.391785	
-0.393188	
-0.393555	
-0.391602	
-0.393372	
-0.393372	
-0.393738	
-0.393494	
-0.393494	
-0.393982	
-0.393494	
-0.394226	
-0.394653	
-0.393982	
-0.394714	
-0.393677	
-0.394165	
-0.394226	
-0.394104	
-0.394287	
-0.394775	
-0.396179	
-0.394775	
-0.396484	
-0.397888	
-0.39679	
-0.397949	
-0.398438	
-0.396912	
-0.39801	
-0.397827	
-0.398438	
-0.397949	
-0.398071	
-0.397644	
-0.397644	
-0.397949	
-0.398071	
-0.397705	
-0.397888	
-0.395691	
-0.397156	
-0.397095	
-0.39679	
-0.396545	
-0.396484	
-0.396057	
-0.39502	
-0.396179	
-0.39624	
-0.393921	
-0.394531	
-0.393738	
-0.392151	
-0.392761	
-0.392761	
-0.392273	
-0.391663	
-0.391602	
-0.390869	
-0.390503	
-0.39093	
-0.390564	
-0.389404	
-0.389465	
-0.388672	
-0.388855	
-0.388367	
-0.388428	
-0.38855	
-0.388672	
-0.389343	
-0.387512	
-0.388428	
-0.388916	
-0.388062	
-0.388	
-0.387207	
-0.38678	
-0.387634	
-0.387512	
-0.388611	
-0.388489	
-0.388855	
-0.388977	
-0.388916	
-0.389832	
-0.388916	
-0.389099	
-0.390198	
-0.389282	
-0.389771	
-0.390076	
-0.390747	
-0.390686	
-0.390869	
-0.391418	
-0.389954	
-0.391602	
-0.392029	
-0.391479	
-0.39209	
-0.390442	
-0.391602	
-0.391602	
-0.390808	
-0.393005	
-0.392395	
-0.393066	
-0.392822	
-0.393311	
-0.394226	
-0.393127	
-0.39447	
-0.393921	
-0.394226	
-0.393677	
-0.393677	
-0.394714	
-0.393982	
-0.393738	
-0.393616	
-0.392395	
-0.393677	
-0.393005	
-0.39325	
-0.393738	
-0.392517	
-0.393188	
-0.393616	
-0.393982	
-0.394165	
-0.394409	
-0.394775	
-0.393738	
-0.395264	
-0.394409	
-0.394287	
-0.394043	
-0.393921	
-0.394287	
-0.394287	
-0.394104	
-0.395142	
-0.394165	
-0.394104	
-0.394104	
-0.394287	
-0.394592	
-0.393005	
-0.393555	
-0.393982	
-0.392944	
-0.393799	
-0.393799	
-0.394226	
-0.393921	
-0.393433	
-0.393494	
-0.392883	
-0.393005	
-0.392822	
-0.392639	
-0.392334	
-0.392212	
-0.392212	
-0.392273	
-0.391602	
-0.393799	
-0.392883	
-0.393677	
-0.393555	
-0.393677	
-0.394287	
-0.393555	
-0.394409	
-0.39502	
-0.39502	
-0.395569	
-0.395325	
-0.396667	
-0.395996	
-0.39624	
-0.39624	
-0.395325	
-0.396118	
-0.395447	
-0.395813	
-0.396484	
-0.395081	
-0.395569	
-0.395325	
-0.395386	
	
