E:\DOCUMENTS AND SETTINGS\JPOTAS\MEUS DOCUMENTOS\UFRJ\RSCI-BM 12 WK SERIES\070730-RSCI-BM-09\RSCI-BM-09-LEMG\070730-RSCI-BM-09-LEMG-0014.ACQ
0.025000 msec/sample
1 channel
Analog input
Volts
CH1	
2000	
-0.407166	
-0.407654	
-0.40625	
-0.405823	
-0.406433	
-0.405334	
-0.405884	
-0.40564	
-0.404785	
-0.40564	
-0.405945	
-0.404907	
-0.406738	
-0.407227	
-0.406677	
-0.405457	
-0.405884	
-0.405701	
-0.406006	
-0.406494	
-0.405823	
-0.406616	
-0.407043	
-0.406433	
-0.407837	
-0.40802	
-0.406738	
-0.406921	
-0.407227	
-0.406433	
-0.407104	
-0.407471	
-0.406189	
-0.407776	
-0.407227	
-0.406616	
-0.408386	
-0.40863	
-0.408142	
-0.407349	
-0.407532	
-0.40741	
-0.407898	
-0.407837	
-0.407043	
-0.406799	
-0.406494	
-0.405823	
-0.40686	
-0.406128	
-0.405701	
-0.405151	
-0.405151	
-0.404114	
-0.40509	
-0.404785	
-0.403992	
-0.404602	
-0.404541	
-0.404297	
-0.40564	
-0.406372	
-0.405884	
-0.404968	
-0.40509	
-0.405396	
-0.405762	
-0.405762	
-0.405884	
-0.406189	
-0.406433	
-0.406555	
-0.407471	
-0.407593	
-0.407104	
-0.407288	
-0.408142	
-0.40686	
-0.407837	
-0.407898	
-0.408386	
-0.408752	
-0.408569	
-0.407837	
-0.408936	
-0.408936	
-0.408691	
-0.408264	
-0.407349	
-0.407349	
-0.407898	
-0.407837	
-0.407837	
-0.40741	
-0.407654	
-0.407837	
-0.409119	
-0.408997	
-0.408325	
-0.409058	
-0.409546	
-0.408447	
-0.409546	
-0.40918	
-0.409973	
-0.409119	
-0.40918	
-0.408875	
-0.410217	
-0.410156	
-0.409485	
-0.40863	
-0.409424	
-0.408386	
-0.407593	
-0.408142	
-0.408875	
-0.40863	
-0.408264	
-0.407898	
-0.409363	
-0.408325	
-0.407593	
-0.407349	
-0.408386	
-0.40741	
-0.407898	
-0.407715	
-0.407959	
-0.407715	
-0.407532	
-0.407532	
-0.408997	
-0.409119	
-0.408508	
-0.407898	
-0.408447	
-0.407715	
-0.408264	
-0.408203	
-0.408386	
-0.407898	
-0.408264	
-0.407837	
-0.408508	
-0.408203	
-0.408264	
-0.407959	
-0.40802	
-0.407227	
-0.407288	
-0.406677	
-0.406738	
-0.405457	
-0.404907	
-0.404968	
-0.405945	
-0.405884	
-0.406616	
-0.40625	
-0.406677	
-0.40564	
-0.406189	
-0.405884	
-0.406921	
-0.405884	
-0.406433	
-0.40625	
-0.407471	
-0.40686	
-0.407959	
-0.407104	
-0.406738	
-0.40686	
-0.407349	
-0.407288	
-0.407471	
-0.407471	
-0.407593	
-0.407532	
-0.408142	
-0.40802	
-0.408447	
-0.407715	
-0.406067	
-0.407715	
-0.407288	
-0.407104	
-0.408203	
-0.407471	
-0.40741	
-0.407104	
-0.408386	
-0.406982	
-0.407654	
-0.406616	
-0.405884	
-0.399719	
-0.384827	
-0.382324	
-0.383789	
-0.384094	
-0.384583	
-0.393433	
-0.408447	
-0.409729	
-0.410156	
-0.409851	
-0.408325	
-0.408752	
-0.408447	
-0.408691	
-0.408508	
-0.408386	
-0.408386	
-0.407959	
-0.409302	
-0.408264	
-0.408142	
-0.406982	
-0.40564	
-0.406982	
-0.407227	
-0.407349	
-0.407104	
-0.407715	
-0.407104	
-0.406494	
-0.409302	
-0.407837	
-0.408691	
-0.40863	
-0.406311	
-0.407349	
-0.406982	
-0.408203	
-0.40802	
-0.407898	
-0.407715	
-0.407654	
-0.409485	
-0.408386	
-0.40918	
-0.409302	
-0.407776	
-0.408386	
-0.408813	
-0.409424	
-0.409546	
-0.409607	
-0.409546	
-0.409668	
-0.411377	
-0.410095	
-0.410522	
-0.409668	
-0.409485	
-0.409668	
-0.409546	
-0.410217	
-0.40979	
-0.411194	
-0.412231	
-0.415344	
-0.42041	
-0.42334	
-0.427856	
-0.4328	
-0.439331	
-0.445374	
-0.452454	
-0.461121	
-0.46875	
-0.475464	
-0.480774	
-0.48584	
-0.489441	
-0.493225	
-0.494751	
-0.495422	
-0.496948	
-0.497742	
-0.497925	
-0.498169	
-0.49823	
-0.49823	
-0.497498	
-0.498962	
-0.497864	
-0.497986	
-0.498291	
-0.49762	
-0.49707	
-0.497009	
-0.496948	
-0.496277	
-0.4953	
-0.494324	
-0.49353	
-0.493408	
-0.491516	
-0.490051	
-0.488708	
-0.488281	
-0.486755	
-0.487061	
-0.486572	
-0.486511	
-0.486572	
-0.486206	
-0.487244	
-0.487	
-0.486938	
-0.485901	
-0.484131	
-0.484985	
-0.484924	
-0.476929	
-0.46167	
-0.458923	
-0.457703	
-0.456787	
-0.456116	
-0.463257	
-0.475159	
-0.473755	
-0.468811	
-0.466919	
-0.464783	
-0.461426	
-0.459167	
-0.457336	
-0.455139	
-0.454468	
-0.454407	
-0.452698	
-0.451477	
-0.451843	
-0.450806	
-0.450684	
-0.452576	
-0.451904	
-0.451294	
-0.450989	
-0.450562	
-0.451111	
-0.451599	
-0.450623	
-0.448547	
-0.446472	
-0.445251	
-0.443665	
-0.440918	
-0.43866	
-0.435242	
-0.431396	
-0.427368	
-0.423035	
-0.41864	
-0.412659	
-0.406067	
-0.398499	
-0.392822	
-0.385681	
-0.37915	
-0.370239	
-0.362732	
-0.35437	
-0.345825	
-0.338318	
-0.330566	
-0.322754	
-0.315247	
-0.307617	
-0.30249	
-0.296936	
-0.291687	
-0.287964	
-0.284302	
-0.281433	
-0.280396	
-0.279785	
-0.279724	
-0.281494	
-0.283569	
-0.285034	
-0.290466	
-0.296753	
-0.302307	
-0.308411	
-0.31488	
-0.322205	
-0.329224	
-0.337341	
-0.345032	
-0.353149	
-0.359558	
-0.367554	
-0.375793	
-0.381897	
-0.389221	
-0.395508	
-0.401733	
-0.407715	
-0.412598	
-0.417969	
-0.421143	
-0.423889	
-0.427551	
-0.430542	
-0.432007	
-0.434387	
-0.436584	
-0.437927	
-0.439575	
-0.442017	
-0.441528	
-0.441772	
-0.442505	
-0.443176	
-0.442444	
-0.444275	
-0.443848	
-0.444214	
-0.444336	
-0.443909	
-0.444275	
-0.442993	
-0.442322	
-0.440674	
-0.437073	
-0.437683	
-0.435974	
-0.434448	
-0.432617	
-0.431396	
-0.429565	
-0.42804	
-0.427673	
-0.423889	
-0.422791	
-0.419739	
-0.417358	
-0.414917	
-0.412964	
-0.410339	
-0.408691	
-0.406433	
-0.404419	
-0.403015	
-0.402405	
-0.39917	
-0.398132	
-0.395752	
-0.39386	
-0.392334	
-0.391541	
-0.389404	
-0.389771	
-0.389038	
-0.387695	
-0.388367	
-0.388611	
-0.386475	
-0.386475	
-0.384277	
-0.383118	
-0.381287	
-0.379761	
-0.376343	
-0.374146	
-0.370789	
-0.36676	
-0.363281	
-0.358398	
-0.353882	
-0.348816	
-0.343079	
-0.338501	
-0.332397	
-0.328308	
-0.322571	
-0.31842	
-0.313293	
-0.309143	
-0.307312	
-0.303467	
-0.300781	
-0.297913	
-0.293884	
-0.29303	
-0.290222	
-0.289307	
-0.288269	
-0.286926	
-0.28595	
-0.286682	
-0.288269	
-0.287231	
-0.288086	
-0.289673	
-0.291382	
-0.29187	
-0.294739	
-0.297729	
-0.299683	
-0.30188	
-0.303528	
-0.308289	
-0.310852	
-0.313171	
-0.315002	
-0.318787	
-0.320862	
-0.324707	
-0.327332	
-0.329773	
-0.332397	
-0.335144	
-0.338196	
-0.339783	
-0.342773	
-0.343689	
-0.345642	
-0.347717	
-0.349243	
-0.351501	
-0.352661	
-0.354126	
-0.35498	
-0.358398	
-0.357849	
-0.359741	
-0.361328	
-0.361511	
-0.362915	
-0.363037	
-0.365601	
-0.365112	
-0.365784	
-0.366699	
-0.368347	
-0.368408	
-0.369141	
-0.371155	
-0.368835	
-0.371277	
-0.37146	
-0.372681	
-0.373352	
-0.373657	
-0.374084	
-0.374146	
-0.376831	
-0.376343	
-0.377014	
-0.375854	
-0.377014	
-0.376526	
-0.37677	
-0.377563	
-0.377319	
-0.37677	
-0.377197	
-0.377991	
-0.37793	
-0.378723	
-0.378174	
-0.378418	
-0.37793	
-0.378662	
-0.379211	
-0.379272	
-0.379456	
-0.380371	
-0.379578	
-0.380676	
-0.380737	
-0.3797	
-0.38031	
-0.380859	
-0.379578	
-0.38031	
-0.382202	
-0.38147	
-0.381836	
-0.381836	
-0.382996	
-0.382263	
-0.382629	
-0.382629	
-0.38269	
-0.382935	
-0.383911	
-0.384766	
-0.385071	
-0.384827	
-0.386108	
-0.385681	
-0.386658	
-0.386353	
-0.384766	
-0.38623	
-0.385071	
-0.385315	
-0.385132	
-0.385559	
-0.38501	
-0.384827	
-0.385071	
-0.384644	
-0.384766	
-0.383911	
-0.383972	
-0.38446	
-0.382996	
-0.384644	
-0.385498	
-0.384705	
-0.384949	
-0.384888	
-0.384705	
-0.385254	
-0.385925	
-0.385742	
-0.385559	
-0.385986	
-0.386719	
-0.386536	
-0.38678	
-0.387207	
-0.386963	
-0.387329	
-0.388123	
-0.387146	
-0.388916	
-0.388367	
-0.388489	
-0.388794	
-0.388306	
-0.388489	
-0.388672	
-0.389221	
-0.388	
-0.387756	
-0.388367	
-0.389404	
-0.388611	
-0.388794	
-0.389099	
-0.38916	
-0.389465	
-0.389893	
-0.390625	
-0.390076	
-0.390564	
-0.390503	
-0.39209	
-0.391174	
-0.391357	
-0.392273	
-0.3927	
-0.393127	
-0.393188	
-0.394531	
-0.394226	
-0.39386	
-0.394043	
-0.394348	
-0.394409	
-0.393982	
-0.394653	
-0.39386	
-0.394287	
-0.393982	
-0.393921	
-0.394287	
-0.393982	
-0.394165	
-0.392822	
-0.394653	
-0.394226	
-0.393433	
-0.395081	
-0.394531	
-0.394897	
-0.395081	
-0.396057	
-0.395691	
-0.395325	
-0.396179	
-0.395813	
-0.395813	
-0.395508	
-0.395996	
-0.395142	
-0.395874	
-0.396545	
-0.396057	
-0.396545	
-0.396851	
-0.397217	
-0.396851	
-0.398071	
-0.397644	
-0.396545	
-0.397766	
-0.397583	
-0.397156	
-0.397278	
-0.397522	
-0.397156	
-0.396851	
-0.396301	
-0.395142	
-0.395935	
-0.395264	
-0.395264	
-0.395447	
-0.394775	
-0.394836	
-0.395569	
-0.395874	
-0.395142	
-0.395386	
-0.394775	
-0.39624	
-0.395386	
-0.395813	
-0.396301	
-0.39624	
-0.396484	
-0.396545	
-0.397827	
-0.397095	
-0.3974	
-0.397644	
-0.397583	
-0.397766	
-0.398071	
-0.398743	
-0.397644	
-0.398987	
-0.399231	
-0.399536	
-0.400879	
-0.399902	
-0.40033	
-0.400208	
-0.401306	
-0.400024	
-0.400269	
-0.400879	
-0.40033	
-0.399963	
-0.399902	
-0.400024	
-0.400269	
-0.400208	
-0.398804	
-0.400513	
-0.400146	
-0.400085	
-0.400452	
-0.399841	
-0.401062	
-0.401489	
-0.40155	
-0.401367	
-0.40155	
-0.401672	
-0.401611	
-0.401367	
-0.401062	
-0.401245	
-0.401367	
-0.401184	
-0.401245	
-0.401001	
-0.401489	
-0.400085	
-0.400269	
-0.399963	
-0.40094	
-0.400452	
-0.399841	
-0.400757	
-0.400513	
-0.400513	
-0.400391	
-0.400818	
-0.400574	
-0.400269	
-0.40033	
-0.401184	
-0.400574	
-0.40033	
-0.401123	
-0.400879	
-0.400879	
-0.400696	
-0.401245	
-0.400391	
-0.400208	
-0.400757	
-0.400085	
-0.401794	
-0.40094	
-0.400391	
-0.401245	
-0.40094	
-0.401123	
-0.401123	
-0.401001	
-0.400879	
-0.40033	
-0.400024	
-0.40033	
-0.399902	
-0.398804	
-0.398438	
-0.398987	
-0.398499	
-0.398438	
-0.398926	
-0.398621	
-0.398743	
-0.39856	
-0.398987	
-0.399719	
-0.398804	
-0.398865	
-0.398926	
-0.398865	
-0.39917	
-0.399109	
-0.399292	
-0.399475	
-0.399902	
-0.399231	
-0.399109	
-0.401123	
-0.400085	
-0.399597	
-0.400208	
-0.39978	
-0.400208	
-0.400574	
-0.400391	
-0.400024	
-0.400269	
-0.400513	
-0.400574	
-0.400696	
-0.400085	
-0.400452	
-0.400452	
-0.400391	
-0.400024	
-0.400269	
-0.399658	
-0.399963	
-0.399109	
-0.400024	
-0.399536	
-0.399658	
-0.399292	
-0.399658	
-0.39917	
-0.399658	
-0.400024	
-0.400024	
-0.399658	
-0.398987	
-0.399902	
-0.39856	
-0.400452	
-0.399719	
-0.398865	
-0.400085	
-0.400391	
-0.400696	
-0.399658	
-0.399414	
-0.399475	
-0.399292	
-0.400146	
-0.399048	
-0.399902	
-0.399353	
-0.399292	
-0.399109	
-0.400024	
-0.401367	
-0.400391	
-0.400452	
-0.400269	
-0.400879	
-0.400452	
-0.400696	
-0.401001	
-0.399658	
-0.400696	
-0.400757	
-0.400879	
-0.400391	
-0.400574	
-0.400269	
-0.400513	
-0.40033	
-0.399658	
-0.401184	
-0.400696	
-0.39917	
-0.400391	
-0.399597	
-0.400391	
-0.399963	
-0.399658	
-0.39917	
-0.399963	
-0.401062	
-0.399719	
-0.400757	
-0.399841	
-0.399414	
-0.399719	
-0.397888	
-0.398438	
-0.397827	
-0.397766	
-0.396667	
-0.397583	
-0.398315	
-0.397949	
-0.398499	
-0.397461	
-0.398193	
-0.399292	
-0.399109	
-0.399109	
-0.399292	
-0.399353	
-0.399475	
-0.399536	
-0.399475	
-0.400391	
-0.400513	
-0.399597	
-0.400757	
-0.400818	
-0.401001	
-0.40094	
-0.401001	
-0.400146	
-0.400818	
-0.401062	
-0.400818	
-0.400696	
-0.400513	
-0.399536	
-0.40033	
-0.399536	
-0.400269	
-0.400391	
-0.399841	
-0.398499	
-0.400085	
-0.399658	
-0.399597	
-0.400208	
-0.399475	
-0.398376	
-0.400024	
-0.400635	
-0.400269	
-0.400452	
-0.399902	
-0.400574	
-0.400391	
-0.400574	
-0.401306	
-0.401611	
-0.400513	
-0.400391	
-0.401062	
-0.401123	
-0.40033	
-0.400513	
-0.399109	
-0.399414	
-0.399292	
-0.399658	
-0.399109	
-0.398743	
-0.398254	
-0.397766	
-0.397095	
-0.397583	
-0.397217	
-0.397949	
-0.396301	
-0.396729	
-0.396667	
-0.397766	
-0.397339	
-0.397156	
-0.396912	
-0.396851	
-0.397522	
-0.397339	
-0.397034	
-0.39679	
-0.396301	
-0.396973	
-0.396484	
-0.396729	
-0.397217	
-0.396362	
-0.395691	
-0.396179	
-0.396667	
-0.396057	
-0.396301	
-0.394897	
-0.395752	
-0.395874	
-0.395691	
-0.395935	
-0.396118	
-0.395813	
-0.394653	
-0.395691	
-0.395874	
-0.394897	
-0.394958	
-0.394165	
-0.394836	
-0.394348	
-0.395813	
-0.395142	
-0.395325	
-0.394897	
-0.395203	
-0.395691	
-0.395996	
-0.396545	
-0.396362	
-0.396118	
-0.397278	
-0.396606	
-0.398621	
-0.398315	
-0.397583	
-0.397766	
-0.39801	
-0.397705	
-0.397766	
-0.398132	
-0.39679	
-0.397705	
-0.397705	
-0.397461	
-0.397278	
-0.398315	
-0.397156	
-0.396301	
-0.398132	
-0.396729	
-0.39679	
-0.396851	
-0.395386	
-0.395935	
-0.395874	
-0.396729	
-0.395508	
-0.395996	
-0.394531	
-0.395142	
-0.396423	
-0.394592	
-0.394348	
-0.39447	
-0.394531	
-0.394348	
-0.394226	
-0.395569	
-0.395081	
-0.394775	
-0.394714	
-0.395264	
-0.395142	
-0.39502	
-0.395325	
-0.393982	
-0.394653	
-0.394836	
-0.393921	
-0.394165	
-0.394592	
-0.39386	
-0.393005	
-0.393921	
-0.393005	
-0.394104	
-0.394043	
-0.3927	
-0.394592	
-0.393982	
-0.393433	
-0.39447	
-0.394714	
-0.394409	
-0.394653	
-0.396301	
-0.394226	
-0.394897	
-0.394836	
-0.393982	
-0.394653	
-0.39502	
-0.395264	
-0.394897	
-0.395813	
-0.39502	
-0.394653	
-0.396301	
-0.394714	
-0.395447	
-0.395203	
-0.39502	
-0.394653	
-0.394775	
-0.395386	
-0.394653	
-0.395203	
-0.394592	
-0.394775	
-0.395081	
-0.394958	
-0.395203	
-0.394043	
-0.394714	
-0.394836	
-0.394714	
-0.395874	
-0.394897	
-0.394958	
-0.394897	
-0.395874	
-0.394226	
-0.39624	
-0.396667	
-0.395691	
-0.397217	
-0.397827	
-0.396545	
-0.397644	
-0.397705	
-0.397217	
-0.396423	
-0.397888	
-0.395508	
-0.396729	
-0.396606	
-0.396362	
-0.396057	
-0.396545	
-0.396057	
-0.396118	
-0.396606	
-0.39563	
-0.395264	
-0.396851	
-0.395447	
-0.395081	
-0.395752	
-0.395325	
-0.394897	
-0.39447	
-0.395813	
-0.39563	
-0.395325	
-0.394775	
-0.395264	
-0.394531	
-0.395081	
-0.395447	
-0.394531	
-0.395325	
-0.395569	
-0.394897	
-0.396423	
-0.395813	
-0.395752	
-0.395691	
-0.39624	
-0.395142	
-0.396301	
-0.396301	
-0.394714	
-0.396179	
-0.396545	
-0.396057	
-0.397217	
-0.397095	
-0.396606	
-0.396057	
-0.396973	
-0.396057	
-0.39679	
-0.397217	
-0.395142	
-0.396606	
-0.396729	
-0.396912	
-0.397034	
-0.396606	
-0.397034	
-0.396545	
-0.39856	
-0.397705	
-0.397583	
-0.397766	
-0.396851	
-0.397156	
-0.396118	
-0.396118	
-0.396179	
-0.395813	
-0.395691	
-0.394653	
-0.395752	
-0.395081	
-0.394775	
-0.395264	
-0.395386	
-0.395264	
-0.395691	
-0.395752	
-0.396423	
-0.395081	
-0.395142	
-0.395813	
-0.39563	
-0.395447	
-0.395569	
-0.39447	
-0.395508	
-0.395386	
-0.394836	
-0.396118	
-0.395508	
-0.395813	
-0.395386	
-0.39624	
-0.395752	
-0.395569	
-0.396179	
-0.395081	
-0.396973	
-0.397034	
-0.397034	
-0.398987	
-0.397827	
-0.398132	
-0.398071	
-0.398499	
-0.398621	
-0.398071	
-0.397949	
-0.396179	
-0.396667	
-0.396301	
-0.396851	
-0.396912	
-0.395874	
-0.395203	
-0.394897	
-0.396545	
-0.394714	
-0.39447	
-0.394531	
-0.394775	
-0.394409	
-0.39447	
-0.394897	
-0.395142	
-0.394897	
-0.394409	
-0.393494	
-0.394775	
-0.394775	
-0.394653	
-0.394165	
-0.394897	
-0.394775	
-0.394958	
-0.395935	
-0.395386	
-0.395325	
-0.395203	
-0.395386	
-0.395813	
-0.395569	
-0.395447	
-0.394775	
-0.395508	
-0.395935	
-0.395081	
-0.395264	
-0.394714	
-0.394531	
-0.393616	
-0.394714	
-0.394348	
-0.394531	
-0.394409	
-0.395081	
-0.39563	
-0.395386	
-0.395569	
-0.395752	
-0.396057	
-0.395752	
-0.395081	
-0.397705	
-0.396545	
-0.397156	
-0.397461	
-0.397583	
-0.397705	
-0.397949	
-0.398132	
-0.399353	
-0.398682	
-0.398621	
-0.398315	
-0.398499	
-0.397888	
-0.397827	
-0.396362	
-0.397827	
-0.397644	
-0.397705	
-0.397644	
-0.398621	
-0.397705	
-0.397461	
-0.398376	
-0.397827	
-0.398315	
-0.398132	
-0.396973	
-0.398132	
-0.398254	
-0.398376	
-0.398743	
-0.398682	
-0.398071	
-0.398071	
-0.398865	
-0.398865	
-0.398865	
-0.398682	
-0.398804	
-0.399414	
-0.399048	
-0.399719	
-0.399719	
-0.399048	
-0.399109	
-0.398376	
-0.399841	
-0.400085	
-0.399597	
-0.399414	
-0.400085	
-0.399109	
-0.398743	
-0.398132	
-0.398254	
-0.397034	
-0.396912	
-0.396057	
-0.397888	
-0.39679	
-0.396301	
-0.395325	
-0.396606	
-0.396118	
-0.39624	
-0.397278	
-0.39679	
-0.396423	
-0.396362	
-0.396729	
-0.3974	
-0.396729	
-0.396851	
-0.395874	
-0.398315	
-0.397827	
-0.397705	
-0.398743	
-0.398499	
-0.397949	
-0.398254	
-0.398926	
-0.398865	
-0.398865	
-0.399109	
-0.398132	
-0.399719	
-0.399597	
-0.39978	
-0.399353	
-0.39978	
-0.399658	
-0.399109	
-0.399658	
-0.399597	
-0.399414	
-0.398926	
-0.397949	
-0.39917	
-0.399597	
-0.399292	
-0.399231	
-0.399475	
-0.399414	
-0.399231	
-0.401428	
-0.400146	
-0.40033	
-0.400146	
-0.40094	
-0.400574	
-0.401062	
-0.400818	
-0.401611	
-0.400513	
-0.400757	
-0.399475	
-0.401306	
-0.400208	
-0.399719	
-0.398865	
-0.400024	
-0.398804	
-0.399231	
-0.400208	
-0.399414	
-0.398376	
-0.398926	
-0.39917	
-0.399231	
-0.398804	
-0.398865	
-0.397766	
-0.399536	
-0.398926	
-0.398499	
-0.399536	
-0.399231	
-0.398865	
-0.398254	
-0.398865	
-0.399231	
-0.398804	
-0.398193	
-0.398254	
-0.39856	
-0.398743	
-0.39856	
-0.398438	
-0.398865	
-0.398743	
-0.39856	
-0.398682	
-0.398926	
-0.398987	
-0.398193	
-0.396973	
-0.398376	
-0.398071	
-0.396973	
-0.395752	
-0.39624	
-0.39624	
-0.39624	
-0.397095	
-0.396545	
-0.396606	
-0.396362	
-0.397095	
-0.396973	
-0.397095	
-0.397339	
-0.397339	
-0.39679	
-0.396912	
-0.396057	
-0.397888	
-0.397583	
-0.397766	
-0.397034	
-0.398376	
-0.398438	
-0.398499	
-0.398865	
-0.39801	
-0.398193	
-0.398315	
-0.398193	
-0.397888	
-0.398254	
-0.398376	
-0.397339	
-0.398926	
-0.39801	
-0.398254	
-0.398315	
-0.398438	
-0.39801	
-0.397949	
-0.397766	
-0.397949	
-0.397522	
-0.397339	
-0.395996	
-0.398193	
-0.397278	
-0.397217	
-0.397339	
-0.3974	
-0.396729	
-0.396484	
-0.398132	
-0.396912	
-0.397095	
-0.396912	
-0.395813	
-0.398193	
-0.397583	
-0.397583	
-0.39679	
-0.397949	
-0.396973	
-0.396301	
-0.398499	
-0.397034	
-0.396912	
-0.396118	
-0.396179	
-0.397156	
-0.396057	
-0.39679	
-0.396484	
-0.396973	
-0.397156	
-0.397217	
-0.398071	
-0.397461	
-0.3974	
-0.397095	
-0.397888	
-0.397949	
-0.397522	
-0.397888	
-0.397217	
-0.397217	
-0.397461	
-0.397827	
-0.396912	
-0.397583	
-0.397339	
-0.395935	
-0.397278	
-0.397034	
-0.396973	
-0.397644	
-0.396729	
-0.397278	
-0.396606	
-0.39679	
-0.396545	
-0.396545	
-0.396423	
-0.394836	
-0.397217	
-0.396423	
-0.396423	
-0.395935	
-0.395264	
-0.394836	
-0.393616	
-0.394409	
-0.393433	
-0.394592	
-0.394104	
-0.39325	
-0.394775	
-0.39447	
-0.395142	
-0.394836	
-0.39624	
-0.395996	
-0.395752	
-0.397217	
-0.396606	
-0.396484	
-0.396179	
-0.395447	
-0.397583	
-0.39679	
-0.397339	
-0.397095	
-0.396545	
-0.397522	
-0.397034	
-0.397766	
-0.397339	
-0.397095	
-0.397095	
-0.397461	
-0.397949	
-0.39679	
-0.397644	
-0.396973	
-0.396912	
-0.396484	
-0.396851	
-0.396667	
-0.396545	
-0.39624	
-0.394653	
-0.395813	
-0.396362	
-0.395996	
-0.396973	
-0.396118	
-0.396118	
-0.396118	
-0.396606	
-0.397278	
-0.396729	
-0.396606	
-0.395935	
-0.397034	
-0.397583	
-0.39679	
-0.396729	
-0.396362	
-0.396179	
-0.394897	
-0.396423	
-0.39563	
-0.395691	
-0.394897	
-0.394592	
-0.394958	
-0.394653	
-0.394226	
-0.393433	
-0.39325	
-0.393555	
-0.392212	
-0.393982	
-0.393066	
-0.3927	
-0.392517	
-0.391907	
-0.393188	
-0.393127	
-0.393311	
-0.392761	
-0.391846	
-0.392761	
-0.392639	
-0.392944	
-0.393127	
-0.392151	
-0.391785	
-0.392212	
-0.393066	
-0.392456	
-0.3927	
-0.392212	
-0.391846	
-0.391479	
-0.391602	
-0.390686	
-0.390869	
-0.390991	
-0.390381	
-0.390747	
-0.391418	
-0.391724	
-0.391602	
-0.391174	
-0.391113	
-0.390503	
-0.390686	
-0.390869	
-0.390076	
-0.390259	
-0.389343	
-0.389893	
-0.390869	
-0.391357	
-0.390747	
-0.391174	
-0.391541	
-0.39209	
-0.392578	
-0.392761	
-0.392212	
-0.392578	
-0.392639	
-0.392578	
-0.393005	
-0.393982	
-0.392822	
-0.394104	
-0.392639	
-0.392883	
-0.392944	
-0.393127	
-0.392639	
-0.3927	
-0.391418	
-0.391785	
-0.392334	
-0.392822	
-0.391785	
-0.392334	
-0.391113	
-0.391724	
-0.391968	
-0.391602	
-0.390686	
-0.390381	
-0.390137	
-0.390808	
-0.39032	
-0.389648	
-0.389282	
-0.389832	
-0.388855	
-0.389771	
-0.389343	
-0.390137	
-0.389526	
-0.389465	
-0.389954	
-0.390442	
-0.390259	
-0.389832	
-0.390198	
-0.389709	
-0.389038	
-0.389526	
-0.389038	
-0.390259	
-0.389038	
-0.388428	
-0.388794	
-0.388916	
-0.389282	
-0.388123	
-0.388733	
-0.388428	
-0.388672	
-0.388611	
-0.387817	
-0.389526	
-0.388489	
-0.38739	
-0.388672	
-0.389587	
-0.389954	
-0.389221	
-0.389343	
-0.38916	
-0.389832	
-0.389526	
-0.389893	
-0.390442	
-0.389587	
-0.388672	
-0.389587	
-0.389648	
-0.389771	
-0.389404	
-0.389038	
-0.388428	
-0.389954	
-0.390564	
-0.390076	
-0.39032	
-0.389648	
-0.389465	
-0.389709	
-0.389954	
-0.388855	
-0.389526	
-0.390015	
-0.388794	
-0.389343	
-0.389893	
-0.389709	
-0.389465	
-0.389343	
-0.390381	
-0.389832	
-0.390625	
-0.390442	
-0.390625	
-0.390625	
-0.391296	
-0.392456	
-0.391479	
-0.392944	
-0.392517	
-0.391479	
-0.391907	
-0.391602	
-0.392212	
-0.391052	
-0.390808	
-0.391296	
-0.391357	
-0.391357	
-0.390259	
-0.391846	
-0.39032	
-0.389221	
-0.390625	
-0.390503	
-0.390991	
-0.390137	
-0.390015	
-0.389832	
-0.390198	
-0.390015	
-0.389954	
-0.390869	
-0.389526	
-0.389404	
-0.39032	
-0.390015	
-0.390442	
-0.389893	
-0.389709	
-0.389587	
-0.390381	
-0.390869	
-0.390015	
-0.390747	
-0.389893	
-0.390503	
-0.391174	
-0.391113	
-0.390625	
-0.390991	
-0.391602	
-0.390015	
-0.391479	
-0.390869	
-0.391418	
-0.392029	
-0.391052	
-0.391296	
-0.391663	
-0.391541	
-0.391296	
-0.391663	
-0.391357	
-0.391052	
-0.391968	
-0.390564	
-0.391785	
-0.391846	
-0.39093	
-0.391907	
-0.391846	
-0.393677	
-0.39209	
-0.391663	
-0.391724	
-0.392517	
-0.392578	
-0.390259	
-0.391602	
-0.391357	
-0.390564	
-0.390442	
-0.390076	
-0.391052	
-0.390747	
-0.390198	
-0.390198	
-0.390564	
-0.391113	
-0.390686	
-0.391113	
-0.390259	
-0.390259	
-0.390747	
-0.390869	
-0.390442	
-0.390808	
-0.390503	
-0.389709	
-0.390686	
-0.391174	
-0.391052	
-0.391113	
-0.390686	
-0.391357	
-0.391541	
-0.392151	
-0.391296	
-0.391479	
-0.391724	
-0.392395	
-0.392822	
-0.392212	
-0.39386	
-0.393494	
-0.393311	
-0.393799	
-0.393372	
-0.394409	
-0.393738	
-0.394287	
-0.392944	
-0.393066	
-0.392395	
-0.392578	
-0.392151	
-0.391724	
-0.390625	
-0.391479	
-0.39209	
-0.391479	
-0.391235	
-0.391174	
-0.390015	
-0.390015	
-0.390503	
-0.390625	
-0.390747	
-0.389832	
-0.389099	
-0.390137	
-0.391296	
-0.390564	
-0.390259	
-0.390503	
-0.390259	
-0.390625	
-0.390076	
-0.391235	
-0.391785	
-0.390747	
-0.390503	
-0.391418	
-0.392578	
-0.391602	
-0.391724	
-0.39209	
-0.391174	
-0.391357	
-0.391357	
-0.391479	
-0.391113	
-0.390503	
-0.390747	
-0.389893	
-0.39209	
-0.390381	
-0.391113	
-0.390686	
-0.391296	
-0.390869	
-0.391357	
-0.391663	
-0.392212	
-0.391907	
-0.392517	
-0.391968	
-0.392822	
-0.3927	
-0.393738	
-0.393066	
-0.393921	
-0.394592	
-0.394531	
	
