E:\DOCUMENTS AND SETTINGS\JPOTAS\MEUS DOCUMENTOS\UFRJ\RSCI-BM 12 WK SERIES\070730-RSCI-BM-09\RSCI-BM-09-LEMG\070730-RSCI-BM-09-LEMG-0008.ACQ
0.025000 msec/sample
1 channel
Analog input
Volts
CH1	
2000	
-0.402222	
-0.402527	
-0.402161	
-0.401917	
-0.401489	
-0.402344	
-0.402222	
-0.403748	
-0.404053	
-0.405334	
-0.405518	
-0.404663	
-0.406738	
-0.40741	
-0.407959	
-0.407715	
-0.407043	
-0.407837	
-0.407715	
-0.409241	
-0.409424	
-0.409729	
-0.409363	
-0.408936	
-0.410278	
-0.410095	
-0.410034	
-0.410461	
-0.408447	
-0.409546	
-0.409912	
-0.410583	
-0.410339	
-0.410706	
-0.410095	
-0.408997	
-0.410034	
-0.408875	
-0.410706	
-0.410278	
-0.408875	
-0.409119	
-0.409363	
-0.409668	
-0.409668	
-0.409729	
-0.408875	
-0.408447	
-0.408142	
-0.407104	
-0.407166	
-0.407593	
-0.405273	
-0.405396	
-0.404968	
-0.405029	
-0.404907	
-0.404907	
-0.403748	
-0.403809	
-0.40387	
-0.404175	
-0.404846	
-0.404297	
-0.403076	
-0.403259	
-0.403137	
-0.403687	
-0.404541	
-0.404114	
-0.403687	
-0.404053	
-0.404663	
-0.40387	
-0.405273	
-0.405151	
-0.404053	
-0.405518	
-0.404297	
-0.405396	
-0.406799	
-0.406494	
-0.406189	
-0.405823	
-0.406372	
-0.40564	
-0.406616	
-0.406494	
-0.405518	
-0.40564	
-0.404541	
-0.405518	
-0.405823	
-0.405701	
-0.405518	
-0.405701	
-0.404663	
-0.405029	
-0.405518	
-0.406433	
-0.405029	
-0.405823	
-0.405273	
-0.405151	
-0.406921	
-0.407532	
-0.40625	
-0.406433	
-0.405823	
-0.406921	
-0.406494	
-0.406677	
-0.405945	
-0.405579	
-0.405518	
-0.404846	
-0.406311	
-0.406189	
-0.405518	
-0.405151	
-0.403992	
-0.404419	
-0.405212	
-0.405701	
-0.40448	
-0.404541	
-0.403687	
-0.40332	
-0.40448	
-0.404358	
-0.403442	
-0.402466	
-0.401733	
-0.403503	
-0.40332	
-0.40387	
-0.402222	
-0.402771	
-0.402405	
-0.401611	
-0.40271	
-0.403381	
-0.402771	
-0.402954	
-0.401611	
-0.403076	
-0.403564	
-0.404053	
-0.403625	
-0.403625	
-0.403625	
-0.403259	
-0.404846	
-0.404846	
-0.404419	
-0.40448	
-0.403137	
-0.405579	
-0.405273	
-0.405945	
-0.405823	
-0.406555	
-0.407104	
-0.405701	
-0.408081	
-0.408508	
-0.408264	
-0.408447	
-0.407532	
-0.408691	
-0.408691	
-0.408875	
-0.409058	
-0.408875	
-0.408691	
-0.407532	
-0.40918	
-0.409485	
-0.40863	
-0.408691	
-0.407349	
-0.408752	
-0.408508	
-0.408386	
-0.40863	
-0.407898	
-0.40802	
-0.40686	
-0.407471	
-0.407349	
-0.407104	
-0.407288	
-0.405579	
-0.405823	
-0.405579	
-0.405334	
-0.406128	
-0.395142	
-0.382385	
-0.380188	
-0.381042	
-0.381531	
-0.38092	
-0.392761	
-0.402527	
-0.404663	
-0.404724	
-0.404602	
-0.404358	
-0.403442	
-0.402893	
-0.401672	
-0.403381	
-0.403259	
-0.403137	
-0.40271	
-0.40271	
-0.403259	
-0.402954	
-0.403625	
-0.404907	
-0.403076	
-0.403259	
-0.403259	
-0.404053	
-0.40387	
-0.40387	
-0.404114	
-0.40387	
-0.404785	
-0.404968	
-0.405212	
-0.406311	
-0.404297	
-0.404907	
-0.404724	
-0.405151	
-0.395264	
-0.38501	
-0.382813	
-0.382263	
-0.384216	
-0.384521	
-0.396912	
-0.409363	
-0.408325	
-0.409729	
-0.40918	
-0.410461	
-0.409851	
-0.409302	
-0.408936	
-0.408508	
-0.408325	
-0.408691	
-0.408508	
-0.409546	
-0.407043	
-0.408752	
-0.408386	
-0.408569	
-0.409729	
-0.412292	
-0.413513	
-0.415955	
-0.419922	
-0.424011	
-0.429749	
-0.436768	
-0.440979	
-0.446594	
-0.452271	
-0.458862	
-0.464355	
-0.467041	
-0.467468	
-0.467712	
-0.467529	
-0.465942	
-0.464355	
-0.460876	
-0.457458	
-0.454102	
-0.451172	
-0.450439	
-0.449341	
-0.447327	
-0.445618	
-0.446777	
-0.447327	
-0.447693	
-0.448853	
-0.450684	
-0.452026	
-0.453369	
-0.454895	
-0.45752	
-0.460083	
-0.461243	
-0.461975	
-0.463379	
-0.464233	
-0.465149	
-0.466675	
-0.465759	
-0.467346	
-0.468018	
-0.46875	
-0.468628	
-0.468567	
-0.467957	
-0.468811	
-0.467896	
-0.468933	
-0.46936	
-0.470276	
-0.467407	
-0.467651	
-0.466736	
-0.464722	
-0.464661	
-0.462646	
-0.460266	
-0.460205	
-0.458191	
-0.456604	
-0.454651	
-0.453918	
-0.450684	
-0.448547	
-0.446167	
-0.444153	
-0.443359	
-0.440552	
-0.437927	
-0.438293	
-0.438232	
-0.437195	
-0.4375	
-0.438477	
-0.435669	
-0.436646	
-0.436218	
-0.435669	
-0.436951	
-0.435913	
-0.436035	
-0.435303	
-0.435669	
-0.434265	
-0.433899	
-0.432983	
-0.429626	
-0.428162	
-0.425415	
-0.422974	
-0.420166	
-0.415466	
-0.410828	
-0.405701	
-0.401184	
-0.395142	
-0.388367	
-0.382507	
-0.37384	
-0.366943	
-0.358765	
-0.351501	
-0.344604	
-0.33606	
-0.328186	
-0.320923	
-0.31366	
-0.307556	
-0.30188	
-0.298096	
-0.291321	
-0.288147	
-0.284241	
-0.281372	
-0.280334	
-0.279297	
-0.279175	
-0.279968	
-0.281799	
-0.283142	
-0.286499	
-0.290161	
-0.294006	
-0.298889	
-0.303833	
-0.309875	
-0.313782	
-0.31842	
-0.323486	
-0.328796	
-0.333374	
-0.338196	
-0.343323	
-0.346802	
-0.351135	
-0.355408	
-0.358093	
-0.362305	
-0.365784	
-0.368164	
-0.370422	
-0.372559	
-0.374573	
-0.376343	
-0.378052	
-0.377869	
-0.378906	
-0.379272	
-0.381042	
-0.380493	
-0.38092	
-0.381836	
-0.382202	
-0.38324	
-0.383118	
-0.384644	
-0.383789	
-0.383728	
-0.383545	
-0.384277	
-0.384521	
-0.38446	
-0.384399	
-0.383972	
-0.384583	
-0.384521	
-0.384949	
-0.384705	
-0.383728	
-0.383606	
-0.383118	
-0.382813	
-0.382019	
-0.381531	
-0.38147	
-0.381104	
-0.380615	
-0.380432	
-0.379517	
-0.379028	
-0.377686	
-0.37738	
-0.376038	
-0.376038	
-0.374695	
-0.373535	
-0.372192	
-0.371277	
-0.36969	
-0.368286	
-0.368164	
-0.364929	
-0.362793	
-0.360657	
-0.358521	
-0.355591	
-0.352417	
-0.350586	
-0.347839	
-0.345093	
-0.342407	
-0.340332	
-0.338135	
-0.336121	
-0.335022	
-0.333008	
-0.331299	
-0.330688	
-0.329712	
-0.330322	
-0.329834	
-0.33075	
-0.330994	
-0.333313	
-0.333557	
-0.335876	
-0.336914	
-0.33905	
-0.341064	
-0.342773	
-0.343994	
-0.346924	
-0.348511	
-0.349976	
-0.352173	
-0.353027	
-0.353882	
-0.355591	
-0.355164	
-0.356689	
-0.3573	
-0.357666	
-0.358765	
-0.359558	
-0.359985	
-0.360474	
-0.363098	
-0.362671	
-0.364075	
-0.364258	
-0.365601	
-0.365845	
-0.365356	
-0.366455	
-0.367798	
-0.368774	
-0.369507	
-0.369751	
-0.371887	
-0.371338	
-0.373596	
-0.37323	
-0.373901	
-0.374451	
-0.375061	
-0.37616	
-0.376404	
-0.37738	
-0.377258	
-0.378723	
-0.379272	
-0.380005	
-0.381104	
-0.380798	
-0.381653	
-0.382019	
-0.382019	
-0.383789	
-0.382874	
-0.383484	
-0.383179	
-0.38501	
-0.384399	
-0.384216	
-0.385071	
-0.384521	
-0.384949	
-0.384216	
-0.383728	
-0.385986	
-0.38501	
-0.385254	
-0.38501	
-0.386047	
-0.385315	
-0.384949	
-0.386536	
-0.384888	
-0.385071	
-0.384827	
-0.384766	
-0.385437	
-0.384888	
-0.384705	
-0.384766	
-0.384949	
-0.383911	
-0.383911	
-0.38446	
-0.38385	
-0.383789	
-0.383545	
-0.384338	
-0.384399	
-0.383972	
-0.383667	
-0.384094	
-0.384521	
-0.38501	
-0.385132	
-0.384033	
-0.385376	
-0.384888	
-0.384216	
-0.386536	
-0.386292	
-0.386169	
-0.38623	
-0.388062	
-0.387085	
-0.387207	
-0.388794	
-0.387939	
-0.388	
-0.388489	
-0.389343	
-0.389465	
-0.389709	
-0.390442	
-0.390808	
-0.390991	
-0.391724	
-0.392029	
-0.391541	
-0.392822	
-0.392395	
-0.391541	
-0.393494	
-0.392944	
-0.392883	
-0.393311	
-0.392395	
-0.393127	
-0.393372	
-0.393677	
-0.393494	
-0.393494	
-0.393372	
-0.394592	
-0.394287	
-0.39386	
-0.394226	
-0.394104	
-0.394531	
-0.394897	
-0.39563	
-0.393555	
-0.394653	
-0.39502	
-0.394348	
-0.395142	
-0.394958	
-0.395264	
-0.395203	
-0.39502	
-0.394897	
-0.395569	
-0.394287	
-0.394836	
-0.394775	
-0.394592	
-0.395752	
-0.394836	
-0.394653	
-0.395142	
-0.39563	
-0.394592	
-0.394592	
-0.394653	
-0.394226	
-0.393738	
-0.392578	
-0.393188	
-0.392212	
-0.391968	
-0.39209	
-0.390747	
-0.391602	
-0.391479	
-0.392151	
-0.390625	
-0.391846	
-0.390991	
-0.391052	
-0.393005	
-0.391602	
-0.391907	
-0.391785	
-0.393188	
-0.392761	
-0.3927	
-0.393738	
-0.393127	
-0.39325	
-0.3927	
-0.395081	
-0.394775	
-0.394775	
-0.395203	
-0.395996	
-0.396484	
-0.397644	
-0.397522	
-0.397766	
-0.398682	
-0.399353	
-0.400391	
-0.400574	
-0.400391	
-0.400757	
-0.401917	
-0.402344	
-0.401855	
-0.402466	
-0.402771	
-0.401123	
-0.402466	
-0.40271	
-0.40387	
-0.403259	
-0.402588	
-0.40271	
-0.403137	
-0.403625	
-0.40332	
-0.404053	
-0.402771	
-0.403015	
-0.402893	
-0.402893	
-0.402832	
-0.403076	
-0.40271	
-0.402161	
-0.402893	
-0.402588	
-0.403015	
-0.4021	
-0.402405	
-0.402161	
-0.400635	
-0.400024	
-0.399536	
-0.399719	
-0.398376	
-0.40033	
-0.399719	
-0.398682	
-0.3974	
-0.39856	
-0.398804	
-0.397705	
-0.397278	
-0.3974	
-0.397644	
-0.397644	
-0.397766	
-0.398987	
-0.398438	
-0.39856	
-0.399353	
-0.398621	
-0.399292	
-0.398743	
-0.399048	
-0.400085	
-0.400146	
-0.400513	
-0.401245	
-0.401794	
-0.402161	
-0.401794	
-0.401855	
-0.400879	
-0.402588	
-0.40271	
-0.401062	
-0.40155	
-0.400513	
-0.40155	
-0.4021	
-0.402222	
-0.400696	
-0.401611	
-0.401489	
-0.401611	
-0.401855	
-0.398438	
-0.399902	
-0.401001	
-0.401184	
-0.401245	
-0.402283	
-0.401917	
-0.402527	
-0.4021	
-0.402344	
-0.404907	
-0.40271	
-0.403992	
-0.403076	
-0.403198	
-0.402466	
-0.403259	
-0.405212	
-0.402893	
-0.403015	
-0.399963	
-0.402832	
-0.401489	
-0.401001	
-0.401978	
-0.401794	
-0.40094	
-0.399109	
-0.398254	
-0.401062	
-0.400452	
-0.400513	
-0.399719	
-0.394348	
-0.398254	
-0.399658	
-0.399658	
-0.399414	
-0.39978	
-0.399475	
-0.400208	
-0.39978	
-0.399536	
-0.399109	
-0.399048	
-0.398987	
-0.397827	
-0.399536	
-0.399414	
-0.398865	
-0.400513	
-0.400513	
-0.40033	
-0.401123	
-0.401672	
-0.400879	
-0.399658	
-0.400269	
-0.401428	
-0.401489	
-0.401306	
-0.401245	
-0.402527	
-0.403564	
-0.403198	
-0.402466	
-0.404602	
-0.404663	
-0.404236	
-0.405823	
-0.405273	
-0.405334	
-0.404968	
-0.405029	
-0.404724	
-0.40625	
-0.405823	
-0.406006	
-0.405396	
-0.405396	
-0.405945	
-0.404663	
-0.405518	
-0.406006	
-0.405029	
-0.405334	
-0.405457	
-0.405151	
-0.405701	
-0.405396	
-0.40448	
-0.403992	
-0.404602	
-0.40332	
-0.404907	
-0.404236	
-0.402466	
-0.403442	
-0.404419	
-0.402161	
-0.402405	
-0.401855	
-0.400513	
-0.399902	
-0.399963	
-0.399902	
-0.399231	
-0.398254	
-0.398804	
-0.399109	
-0.399353	
-0.398438	
-0.398804	
-0.399414	
-0.397888	
-0.398254	
-0.398132	
-0.398376	
-0.397644	
-0.398315	
-0.398315	
-0.399414	
-0.398987	
-0.400085	
-0.399902	
-0.400024	
-0.399353	
-0.399536	
-0.39978	
-0.39978	
-0.40033	
-0.400452	
-0.401184	
-0.402832	
-0.402466	
-0.401855	
-0.401855	
-0.401672	
-0.400818	
-0.401489	
-0.401489	
-0.402039	
-0.401978	
-0.4021	
-0.40271	
-0.402954	
-0.402771	
-0.402527	
-0.402832	
-0.402954	
-0.402222	
-0.40271	
-0.402649	
-0.402893	
-0.403076	
-0.402832	
-0.403748	
-0.403259	
-0.404419	
-0.404236	
-0.401978	
-0.402893	
-0.403442	
-0.403015	
-0.40155	
-0.402222	
-0.402527	
-0.4021	
-0.401978	
-0.402222	
-0.402161	
-0.402466	
-0.401245	
-0.402283	
-0.402527	
-0.403198	
-0.401489	
-0.402039	
-0.401794	
-0.40271	
-0.402649	
-0.402283	
-0.402161	
-0.402527	
-0.402771	
-0.401428	
-0.401978	
-0.402344	
-0.402283	
-0.401611	
-0.400635	
-0.402588	
-0.4021	
-0.4021	
-0.4021	
-0.401855	
-0.402405	
-0.401306	
-0.403076	
-0.401855	
-0.401855	
-0.402161	
-0.402405	
-0.401855	
-0.402466	
-0.402405	
-0.403748	
-0.401855	
-0.403625	
-0.401184	
-0.403259	
-0.402466	
-0.402405	
-0.403076	
-0.403015	
-0.403442	
-0.40387	
-0.404541	
-0.40509	
-0.404419	
-0.404846	
-0.405029	
-0.405823	
-0.405212	
-0.405273	
-0.404236	
-0.406067	
-0.406128	
-0.405762	
-0.406189	
-0.405212	
-0.40564	
-0.406067	
-0.404053	
-0.405823	
-0.405212	
-0.405151	
-0.404297	
-0.404907	
-0.40448	
-0.404419	
-0.405273	
-0.402893	
-0.403381	
-0.402283	
-0.401428	
-0.401917	
-0.400146	
-0.400146	
-0.398987	
-0.399536	
-0.398865	
-0.398926	
-0.399414	
-0.396545	
-0.397156	
-0.396973	
-0.397766	
-0.397461	
-0.395813	
-0.396667	
-0.395996	
-0.397034	
-0.396301	
-0.396606	
-0.397217	
-0.395569	
-0.396606	
-0.39563	
-0.39679	
-0.395874	
-0.395935	
-0.395752	
-0.394958	
-0.396912	
-0.396484	
-0.397217	
-0.397217	
-0.396912	
-0.397949	
-0.395752	
-0.39856	
-0.397644	
-0.397949	
-0.397705	
-0.398071	
-0.400452	
-0.399536	
-0.400879	
-0.400879	
-0.401062	
-0.402161	
-0.399963	
-0.403198	
-0.401978	
-0.402771	
-0.402649	
-0.402832	
-0.402344	
-0.402832	
-0.40387	
-0.402161	
-0.40387	
-0.402771	
-0.401855	
-0.40332	
-0.401306	
-0.403015	
-0.403015	
-0.403748	
-0.402893	
-0.402466	
-0.403503	
-0.400879	
-0.401184	
-0.401245	
-0.400574	
-0.401306	
-0.399963	
-0.400696	
-0.400024	
-0.400574	
-0.401184	
-0.401428	
-0.401672	
-0.39978	
-0.400635	
-0.399902	
-0.400696	
-0.401184	
-0.399963	
-0.40094	
-0.401123	
-0.401306	
-0.400757	
-0.401001	
-0.401855	
-0.400269	
-0.401062	
-0.400391	
-0.400452	
-0.400269	
-0.399414	
-0.400208	
-0.39978	
-0.40155	
-0.400818	
-0.401428	
-0.401611	
-0.400574	
-0.400574	
-0.399475	
-0.401367	
-0.401001	
-0.400269	
-0.401245	
-0.400574	
-0.401855	
-0.402161	
-0.401978	
-0.401978	
-0.400879	
-0.401855	
-0.400269	
-0.402161	
-0.402405	
-0.401611	
-0.403381	
-0.402954	
-0.403564	
-0.403687	
-0.404114	
-0.403748	
-0.403748	
-0.404358	
-0.401733	
-0.404053	
-0.402893	
-0.40271	
-0.403076	
-0.402466	
-0.403076	
-0.402893	
-0.403381	
-0.402405	
-0.40271	
-0.403015	
-0.40155	
-0.40271	
-0.402039	
-0.40155	
-0.401733	
-0.400208	
-0.40271	
-0.401672	
-0.402344	
-0.40033	
-0.400208	
-0.399902	
-0.398743	
-0.39917	
-0.398438	
-0.398132	
-0.397583	
-0.397705	
-0.398376	
-0.397766	
-0.398804	
-0.396973	
-0.397217	
-0.397522	
-0.397156	
-0.397766	
-0.396912	
-0.397034	
-0.396973	
-0.397095	
-0.397522	
-0.3974	
-0.397888	
-0.396667	
-0.397522	
-0.397644	
-0.397644	
-0.398499	
-0.397766	
-0.398376	
-0.398682	
-0.399109	
-0.399658	
-0.400024	
-0.400269	
-0.400146	
-0.401062	
-0.400635	
-0.4021	
-0.402771	
-0.402588	
-0.403198	
-0.403259	
-0.403687	
-0.404785	
-0.404297	
-0.404419	
-0.403992	
-0.404358	
-0.404236	
-0.40448	
-0.40509	
-0.404114	
-0.404175	
-0.40387	
-0.404358	
-0.404785	
-0.405334	
-0.404236	
-0.403259	
-0.403992	
-0.402954	
-0.403748	
-0.403564	
-0.402039	
-0.402893	
-0.402466	
-0.403015	
-0.402588	
-0.402466	
-0.401428	
-0.401001	
-0.401306	
-0.400085	
-0.400696	
-0.401001	
-0.399536	
-0.400269	
-0.399902	
-0.400024	
-0.401123	
-0.400879	
-0.399475	
-0.399231	
-0.400024	
-0.398804	
-0.400208	
-0.39978	
-0.399597	
-0.399353	
-0.398926	
-0.399658	
-0.399841	
-0.400146	
-0.399048	
-0.398743	
-0.399658	
-0.398071	
-0.400391	
-0.400146	
-0.399231	
-0.399658	
-0.399658	
-0.400879	
-0.401672	
-0.401367	
-0.400574	
-0.400146	
-0.400513	
-0.398865	
-0.399902	
-0.399963	
-0.400024	
-0.399597	
-0.399292	
-0.399597	
-0.400452	
-0.400208	
-0.399475	
-0.399536	
-0.400146	
-0.398865	
-0.400146	
-0.400208	
-0.399902	
-0.399414	
-0.399536	
-0.399841	
-0.400208	
-0.400085	
-0.399414	
-0.399353	
-0.399841	
-0.398743	
-0.399536	
-0.399414	
-0.399414	
-0.399475	
-0.399109	
-0.399597	
-0.400269	
-0.399536	
-0.399292	
-0.398682	
-0.398438	
-0.398682	
-0.399353	
-0.399292	
-0.398926	
-0.398682	
-0.398315	
-0.398254	
-0.398315	
-0.39856	
-0.396973	
-0.396301	
-0.396118	
-0.395386	
-0.395691	
-0.395508	
-0.395447	
-0.394714	
-0.394836	
-0.395935	
-0.396118	
-0.395691	
-0.394958	
-0.394897	
-0.395203	
-0.394958	
-0.39502	
-0.394958	
-0.395508	
-0.395691	
-0.395447	
-0.395996	
-0.397461	
-0.397583	
-0.396362	
-0.396362	
-0.3974	
-0.397827	
-0.398743	
-0.399414	
-0.400513	
-0.400574	
-0.40033	
-0.401855	
-0.402649	
-0.402954	
-0.402466	
-0.40271	
-0.403625	
-0.402893	
-0.402954	
-0.402954	
-0.40271	
-0.40332	
-0.403503	
-0.403931	
-0.404724	
-0.404175	
-0.403931	
-0.403503	
-0.40448	
-0.403748	
-0.40387	
-0.403381	
-0.403625	
-0.40332	
-0.403137	
-0.403687	
-0.404114	
-0.404114	
-0.402954	
-0.402649	
-0.402893	
-0.402588	
-0.402954	
-0.401917	
-0.401611	
-0.401367	
-0.400452	
-0.400452	
-0.401428	
-0.39917	
-0.398315	
-0.397766	
-0.397766	
-0.397583	
-0.397278	
-0.396667	
-0.397156	
-0.396667	
-0.395691	
-0.397034	
-0.397583	
-0.396484	
-0.39563	
-0.395752	
-0.396301	
-0.396423	
-0.396667	
-0.395935	
-0.39624	
-0.396606	
-0.395752	
-0.396851	
-0.398865	
-0.397461	
-0.397766	
-0.397522	
-0.397766	
-0.398254	
-0.398376	
-0.398193	
-0.398376	
-0.398621	
-0.397217	
-0.398438	
-0.39917	
-0.398438	
-0.397888	
-0.397095	
-0.397827	
-0.397522	
-0.397583	
-0.397095	
-0.397461	
-0.397034	
-0.395996	
-0.397827	
-0.398499	
-0.3974	
-0.3974	
-0.397095	
-0.397461	
-0.3974	
-0.39801	
-0.398071	
-0.398193	
-0.397705	
-0.396667	
-0.39801	
-0.398987	
-0.397827	
-0.397217	
-0.396362	
-0.396545	
-0.397461	
-0.397461	
-0.395569	
-0.396301	
-0.396057	
-0.395813	
-0.396179	
-0.397583	
-0.395874	
-0.395508	
-0.394775	
-0.395386	
-0.395203	
-0.394958	
-0.393921	
-0.394409	
-0.394287	
-0.3927	
-0.394348	
-0.39502	
-0.393311	
-0.393494	
-0.392822	
-0.392273	
-0.393433	
-0.393799	
-0.393188	
-0.393616	
-0.39325	
-0.393799	
-0.394653	
-0.395996	
-0.39386	
-0.394104	
-0.393188	
-0.394653	
-0.394592	
-0.394775	
-0.39447	
-0.394714	
-0.394836	
-0.394043	
-0.395935	
-0.396362	
-0.395935	
-0.396667	
-0.396362	
-0.397888	
-0.397949	
-0.398865	
-0.397766	
-0.398621	
-0.398682	
-0.398438	
-0.399475	
-0.400146	
-0.398987	
-0.39856	
-0.398438	
-0.399353	
-0.398865	
-0.398987	
-0.39856	
-0.39856	
-0.398071	
-0.3974	
-0.398804	
-0.398743	
-0.398071	
-0.397949	
-0.396301	
-0.398071	
-0.397522	
-0.39801	
-0.396545	
-0.396912	
-0.396606	
-0.395996	
-0.395996	
-0.395996	
-0.395203	
-0.394165	
-0.392273	
-0.393921	
-0.393188	
-0.392761	
-0.392273	
-0.39209	
-0.391785	
-0.390442	
-0.39209	
-0.391724	
-0.391296	
-0.390808	
-0.388672	
-0.391602	
-0.391235	
-0.391418	
-0.390442	
-0.390564	
-0.390808	
-0.391235	
-0.392273	
-0.392273	
-0.391418	
-0.391479	
-0.390869	
-0.392395	
-0.392151	
-0.393005	
-0.392822	
-0.393127	
-0.393433	
-0.392578	
-0.395203	
-0.39447	
-0.394043	
-0.394165	
-0.391663	
-0.395386	
-0.394409	
-0.394775	
-0.394287	
-0.394226	
-0.394409	
-0.394897	
-0.395569	
-0.395874	
-0.39502	
-0.394897	
-0.394226	
-0.396545	
-0.395142	
-0.395508	
-0.39502	
-0.395142	
-0.395203	
-0.395142	
-0.396179	
-0.395508	
-0.395325	
-0.395508	
-0.393433	
-0.396301	
-0.395325	
-0.395813	
-0.39447	
-0.394409	
-0.394226	
-0.393921	
-0.394897	
-0.393738	
-0.394043	
-0.393738	
-0.393005	
-0.394348	
-0.394531	
-0.395203	
-0.394165	
-0.394531	
-0.394348	
-0.394165	
-0.395386	
-0.394653	
-0.393982	
-0.39386	
-0.392578	
-0.394714	
-0.394165	
-0.394714	
-0.394348	
-0.394043	
-0.394104	
-0.394531	
-0.395203	
-0.394348	
-0.394043	
-0.393921	
-0.392883	
-0.39447	
-0.394409	
-0.394714	
-0.394287	
-0.394348	
-0.394226	
-0.394836	
-0.395935	
-0.394775	
-0.394714	
-0.39447	
-0.392944	
-0.395691	
-0.394958	
-0.395508	
-0.394836	
-0.395264	
-0.395386	
-0.39624	
-0.397644	
-0.397156	
-0.397278	
-0.396973	
-0.39624	
-0.398499	
-0.398071	
-0.398193	
-0.397644	
-0.397888	
-0.397095	
-0.398438	
-0.399109	
-0.398132	
-0.398376	
-0.397827	
-0.396179	
-0.398865	
-0.398132	
-0.397949	
-0.396851	
-0.396912	
-0.39624	
-0.396729	
-0.397339	
-0.396362	
-0.395325	
-0.394775	
-0.393494	
-0.394958	
-0.393555	
-0.392395	
-0.391907	
-0.391357	
-0.390015	
-0.391174	
-0.391724	
-0.390503	
-0.389587	
-0.388916	
-0.387695	
-0.390381	
-0.389526	
-0.38916	
-0.388977	
-0.388672	
-0.388672	
-0.389343	
-0.390564	
-0.388672	
-0.388672	
-0.388611	
-0.386536	
-0.388977	
-0.388916	
-0.388489	
-0.388306	
-0.389343	
-0.38855	
-0.390015	
-0.391418	
-0.389954	
-0.39032	
-0.389954	
-0.389038	
-0.390808	
-0.390381	
-0.39209	
-0.392151	
-0.392761	
-0.393066	
-0.39386	
-0.395813	
-0.394043	
-0.394592	
-0.394287	
-0.394531	
-0.395447	
-0.395508	
-0.39563	
-0.394287	
-0.395569	
-0.395203	
-0.396057	
-0.3974	
-0.39624	
-0.39624	
-0.395691	
-0.395508	
-0.396484	
-0.396301	
-0.396484	
-0.395203	
-0.395386	
-0.394653	
-0.395447	
-0.397278	
-0.394409	
-0.393738	
-0.393188	
-0.394165	
-0.393616	
-0.393311	
-0.394226	
-0.392822	
-0.394043	
-0.393616	
-0.394226	
-0.395508	
-0.393982	
-0.394043	
-0.393494	
-0.393494	
-0.394958	
-0.394165	
-0.395264	
-0.394043	
-0.394714	
-0.394165	
-0.394409	
-0.395508	
-0.394409	
-0.39386	
-0.392395	
-0.393921	
-0.393921	
-0.394348	
-0.394775	
-0.393921	
-0.394409	
-0.394409	
-0.39502	
-0.394836	
-0.39447	
-0.394592	
-0.394043	
-0.394348	
-0.396301	
-0.395264	
-0.39624	
-0.395203	
-0.395508	
-0.395569	
-0.397156	
-0.396606	
-0.396179	
-0.395874	
-0.394226	
-0.396667	
-0.397278	
-0.397156	
-0.397522	
-0.397156	
-0.397888	
-0.397888	
-0.399231	
-0.398193	
-0.397461	
-0.397217	
-0.397583	
-0.396667	
-0.398743	
-0.397644	
-0.398193	
-0.397278	
-0.397583	
-0.397461	
-0.399231	
-0.397949	
-0.397217	
-0.396423	
-0.395325	
-0.39624	
-0.396729	
-0.396301	
-0.396362	
-0.395325	
-0.395508	
-0.39563	
-0.396179	
-0.395142	
-0.394043	
-0.39325	
-0.393005	
-0.391846	
-0.393005	
-0.392639	
-0.393127	
-0.392273	
-0.391907	
-0.392151	
-0.394043	
-0.392517	
-0.391602	
-0.391174	
-0.390503	
-0.391235	
-0.391968	
-0.391907	
-0.392334	
-0.391785	
-0.392029	
-0.392212	
-0.39386	
-0.393494	
-0.3927	
-0.392456	
-0.392944	
-0.392639	
-0.393982	
-0.39386	
-0.393921	
-0.394043	
-0.39502	
-0.395508	
-0.397644	
-0.397156	
-0.396606	
-0.397278	
-0.397522	
-0.398132	
-0.398438	
-0.398804	
-0.398987	
-0.398193	
-0.399231	
-0.399109	
-0.400513	
-0.400085	
-0.399536	
-0.398865	
-0.399353	
-0.398804	
-0.399902	
-0.400085	
-0.399963	
-0.398865	
-0.399719	
-0.399048	
-0.400269	
-0.399963	
-0.399048	
-0.398499	
-0.399048	
-0.399109	
-0.398621	
-0.398132	
-0.398254	
-0.396179	
-0.39679	
-0.396729	
-0.398193	
-0.397217	
-0.396362	
-0.395569	
-0.396545	
-0.39563	
-0.395813	
-0.396484	
-0.396179	
-0.395508	
-0.395874	
-0.395813	
-0.396301	
-0.396912	
-0.395874	
-0.395081	
-0.395386	
-0.395935	
-0.395874	
-0.395325	
-0.395508	
-0.394958	
-0.395935	
-0.395569	
-0.396179	
-0.396484	
-0.396118	
-0.394775	
-0.395813	
-0.397156	
-0.396729	
-0.396667	
-0.396851	
-0.397034	
-0.397095	
-0.397888	
-0.397949	
-0.397766	
-0.396851	
-0.39563	
-0.396851	
-0.397766	
-0.396606	
-0.396362	
-0.397034	
-0.396606	
-0.396912	
-0.396912	
-0.397827	
-0.3974	
-0.396667	
-0.396057	
-0.396667	
-0.397095	
-0.397034	
-0.397278	
-0.397034	
-0.396912	
-0.397217	
-0.39801	
-0.397583	
-0.397583	
-0.396545	
-0.396667	
-0.397095	
-0.397339	
-0.39679	
-0.397156	
-0.397217	
-0.396606	
-0.397034	
-0.397278	
-0.397766	
-0.39801	
-0.396667	
-0.396484	
-0.396545	
-0.39563	
-0.396362	
-0.396179	
-0.395569	
-0.395691	
-0.395569	
-0.394775	
-0.395142	
-0.394714	
-0.393616	
-0.392883	
-0.393799	
-0.392883	
-0.393311	
-0.39386	
-0.392883	
-0.393005	
-0.393188	
-0.393494	
-0.393494	
-0.393555	
-0.39325	
-0.392883	
-0.393921	
-0.393005	
	
