E:\DOCUMENTS AND SETTINGS\JPOTAS\MEUS DOCUMENTOS\UFRJ\RSCI-BM 12 WK SERIES\070730-RSCI-BM-09\RSCI-BM-09-LEMG\070730-RSCI-BM-09-LEMG-0015.ACQ
0.025000 msec/sample
1 channel
Analog input
Volts
CH1	
2000	
-0.406616	
-0.406738	
-0.406799	
-0.407104	
-0.407593	
-0.40802	
-0.407654	
-0.40918	
-0.408813	
-0.408447	
-0.408447	
-0.407471	
-0.409607	
-0.408997	
-0.409424	
-0.409302	
-0.409729	
-0.409119	
-0.409546	
-0.410522	
-0.408508	
-0.40918	
-0.408203	
-0.40741	
-0.409241	
-0.407715	
-0.407593	
-0.40741	
-0.407166	
-0.407715	
-0.407227	
-0.407837	
-0.407593	
-0.406982	
-0.406982	
-0.405823	
-0.408386	
-0.40741	
-0.407349	
-0.407227	
-0.408081	
-0.407776	
-0.407837	
-0.408203	
-0.406555	
-0.407532	
-0.407104	
-0.406494	
-0.408875	
-0.407715	
-0.407654	
-0.407593	
-0.408142	
-0.407288	
-0.407349	
-0.407654	
-0.407288	
-0.406982	
-0.406982	
-0.40625	
-0.407959	
-0.407166	
-0.40741	
-0.407593	
-0.408813	
-0.40802	
-0.40863	
-0.409302	
-0.407898	
-0.408997	
-0.407898	
-0.40802	
-0.410339	
-0.409424	
-0.409973	
-0.409912	
-0.411194	
-0.410095	
-0.410278	
-0.410339	
-0.410767	
-0.410156	
-0.40979	
-0.408691	
-0.410461	
-0.410461	
-0.410339	
-0.410156	
-0.410828	
-0.410095	
-0.409485	
-0.409241	
-0.407104	
-0.408081	
-0.40686	
-0.406921	
-0.408264	
-0.40802	
-0.407959	
-0.407715	
-0.408508	
-0.407776	
-0.407959	
-0.408386	
-0.408081	
-0.408203	
-0.407959	
-0.406921	
-0.409119	
-0.408325	
-0.408447	
-0.408569	
-0.40863	
-0.408386	
-0.408569	
-0.409363	
-0.407593	
-0.408508	
-0.407288	
-0.407898	
-0.409302	
-0.407959	
-0.408142	
-0.40802	
-0.408691	
-0.407898	
-0.408569	
-0.408264	
-0.407227	
-0.40741	
-0.406189	
-0.405701	
-0.407776	
-0.406799	
-0.406372	
-0.406128	
-0.406677	
-0.406128	
-0.406494	
-0.407166	
-0.405762	
-0.406006	
-0.405273	
-0.406006	
-0.407471	
-0.407166	
-0.407471	
-0.407349	
-0.408447	
-0.407898	
-0.408447	
-0.409058	
-0.40863	
-0.40863	
-0.40741	
-0.407288	
-0.40918	
-0.409241	
-0.409241	
-0.409424	
-0.410889	
-0.410278	
-0.410767	
-0.411438	
-0.410461	
-0.410706	
-0.409729	
-0.40979	
-0.410645	
-0.410522	
-0.410522	
-0.409546	
-0.410828	
-0.409729	
-0.409363	
-0.409302	
-0.408142	
-0.407532	
-0.407166	
-0.405884	
-0.407043	
-0.406677	
-0.406738	
-0.405945	
-0.406982	
-0.406799	
-0.406006	
-0.407104	
-0.405884	
-0.405701	
-0.404785	
-0.404907	
-0.406128	
-0.405762	
-0.40564	
-0.404846	
-0.406677	
-0.401367	
-0.38501	
-0.383972	
-0.383728	
-0.383606	
-0.383789	
-0.391052	
-0.40686	
-0.409729	
-0.409607	
-0.408081	
-0.408386	
-0.408447	
-0.40863	
-0.408691	
-0.408081	
-0.407837	
-0.406555	
-0.407959	
-0.407959	
-0.408508	
-0.407959	
-0.408081	
-0.40863	
-0.408569	
-0.409058	
-0.40979	
-0.408936	
-0.408813	
-0.407837	
-0.408325	
-0.409058	
-0.409302	
-0.409424	
-0.410034	
-0.410095	
-0.410156	
-0.410339	
-0.409973	
-0.409363	
-0.409607	
-0.407959	
-0.409668	
-0.409424	
-0.409119	
-0.408997	
-0.409241	
-0.409729	
-0.409546	
-0.409607	
-0.409973	
-0.40918	
-0.409607	
-0.409058	
-0.409302	
-0.40979	
-0.40979	
-0.409424	
-0.410217	
-0.410095	
-0.410339	
-0.411255	
-0.411133	
-0.412292	
-0.413269	
-0.414734	
-0.417053	
-0.421753	
-0.42572	
-0.429993	
-0.436768	
-0.442566	
-0.449219	
-0.45636	
-0.462463	
-0.470459	
-0.476257	
-0.482056	
-0.486694	
-0.48999	
-0.492859	
-0.4953	
-0.498108	
-0.497742	
-0.498108	
-0.498291	
-0.497131	
-0.496948	
-0.496094	
-0.495544	
-0.496643	
-0.496277	
-0.495178	
-0.496948	
-0.496765	
-0.496033	
-0.495911	
-0.495483	
-0.494385	
-0.493408	
-0.493103	
-0.491455	
-0.490784	
-0.489624	
-0.488037	
-0.488586	
-0.48761	
-0.487	
-0.486633	
-0.485413	
-0.485901	
-0.484436	
-0.48584	
-0.484802	
-0.484497	
-0.483704	
-0.483582	
-0.483215	
-0.482361	
-0.483093	
-0.4823	
-0.480652	
-0.479919	
-0.478027	
-0.476563	
-0.474915	
-0.473145	
-0.470032	
-0.46814	
-0.466064	
-0.462708	
-0.460815	
-0.458801	
-0.455688	
-0.453369	
-0.451965	
-0.450195	
-0.450012	
-0.448303	
-0.446777	
-0.44751	
-0.447571	
-0.446411	
-0.447876	
-0.447205	
-0.446167	
-0.44519	
-0.445618	
-0.444885	
-0.444153	
-0.442932	
-0.442139	
-0.44104	
-0.439331	
-0.437561	
-0.436401	
-0.432861	
-0.430115	
-0.426331	
-0.422424	
-0.414001	
-0.392029	
-0.38446	
-0.378418	
-0.373352	
-0.367371	
-0.366821	
-0.376709	
-0.369934	
-0.361633	
-0.352173	
-0.344421	
-0.335022	
-0.326477	
-0.318604	
-0.311951	
-0.305298	
-0.298401	
-0.292908	
-0.288879	
-0.284058	
-0.280029	
-0.277832	
-0.275757	
-0.27594	
-0.275269	
-0.274902	
-0.2771	
-0.279236	
-0.279907	
-0.282959	
-0.285034	
-0.286804	
-0.289795	
-0.291626	
-0.295349	
-0.298462	
-0.30127	
-0.305237	
-0.309448	
-0.313171	
-0.317749	
-0.320801	
-0.322937	
-0.326355	
-0.330261	
-0.333984	
-0.337341	
-0.340454	
-0.344055	
-0.347473	
-0.349915	
-0.352783	
-0.354309	
-0.355164	
-0.357422	
-0.359436	
-0.36084	
-0.362	
-0.362854	
-0.364014	
-0.365417	
-0.367065	
-0.370239	
-0.372437	
-0.373596	
-0.377502	
-0.382202	
-0.387329	
-0.393005	
-0.39801	
-0.404053	
-0.409424	
-0.415161	
-0.421692	
-0.428101	
-0.431702	
-0.437256	
-0.440613	
-0.444641	
-0.449219	
-0.452698	
-0.455261	
-0.45752	
-0.459778	
-0.460876	
-0.462952	
-0.463257	
-0.463135	
-0.462891	
-0.461792	
-0.462097	
-0.461243	
-0.459839	
-0.459778	
-0.458618	
-0.458618	
-0.457336	
-0.456299	
-0.453979	
-0.453125	
-0.451843	
-0.449646	
-0.448853	
-0.447571	
-0.44574	
-0.444153	
-0.443237	
-0.441772	
-0.441895	
-0.43866	
-0.435425	
-0.434937	
-0.433655	
-0.431946	
-0.42981	
-0.427917	
-0.426147	
-0.424194	
-0.421692	
-0.419067	
-0.417908	
-0.41333	
-0.408691	
-0.406921	
-0.404358	
-0.402283	
-0.400085	
-0.398315	
-0.397278	
-0.395813	
-0.395569	
-0.395203	
-0.394043	
-0.392151	
-0.392639	
-0.393616	
-0.393372	
-0.393311	
-0.393677	
-0.394348	
-0.394348	
-0.394836	
-0.395203	
-0.393921	
-0.391846	
-0.390564	
-0.389282	
-0.385925	
-0.383301	
-0.379883	
-0.375671	
-0.371033	
-0.367188	
-0.362244	
-0.356567	
-0.350952	
-0.34375	
-0.338074	
-0.333435	
-0.328003	
-0.322998	
-0.317017	
-0.312683	
-0.308105	
-0.304626	
-0.300842	
-0.297974	
-0.295227	
-0.292725	
-0.2901	
-0.289917	
-0.289734	
-0.289978	
-0.2901	
-0.291565	
-0.292603	
-0.294006	
-0.296814	
-0.297791	
-0.298157	
-0.299744	
-0.303162	
-0.305847	
-0.308044	
-0.310791	
-0.313965	
-0.316956	
-0.319824	
-0.324158	
-0.326355	
-0.327515	
-0.331055	
-0.334473	
-0.337097	
-0.338989	
-0.341492	
-0.343567	
-0.345825	
-0.348267	
-0.349976	
-0.350769	
-0.351563	
-0.352661	
-0.35376	
-0.354492	
-0.356079	
-0.356812	
-0.35791	
-0.359253	
-0.360596	
-0.361633	
-0.363037	
-0.363953	
-0.363037	
-0.364014	
-0.36554	
-0.367126	
-0.367859	
-0.367493	
-0.369446	
-0.370117	
-0.371094	
-0.372864	
-0.372559	
-0.371155	
-0.372253	
-0.373962	
-0.373901	
-0.37384	
-0.374084	
-0.373718	
-0.374634	
-0.374817	
-0.37616	
-0.375488	
-0.374329	
-0.375427	
-0.376038	
-0.37616	
-0.376404	
-0.37677	
-0.377441	
-0.378052	
-0.377808	
-0.37915	
-0.378784	
-0.378601	
-0.378784	
-0.378357	
-0.3797	
-0.38031	
-0.380371	
-0.379333	
-0.381653	
-0.381409	
-0.382202	
-0.382813	
-0.383484	
-0.38324	
-0.382935	
-0.382996	
-0.384583	
-0.384583	
-0.384827	
-0.385071	
-0.385498	
-0.385681	
-0.386108	
-0.387146	
-0.386108	
-0.385681	
-0.385864	
-0.387207	
-0.386169	
-0.386414	
-0.387146	
-0.386475	
-0.38623	
-0.387085	
-0.38855	
-0.387024	
-0.386475	
-0.386597	
-0.387085	
-0.38678	
-0.387512	
-0.387207	
-0.387451	
-0.388245	
-0.387756	
-0.388367	
-0.387573	
-0.387207	
-0.387878	
-0.38855	
-0.387939	
-0.388794	
-0.387451	
-0.390137	
-0.389832	
-0.389771	
-0.389587	
-0.389771	
-0.389771	
-0.389832	
-0.389648	
-0.391785	
-0.391968	
-0.390869	
-0.393188	
-0.393372	
-0.393738	
-0.393677	
-0.394775	
-0.394226	
-0.394531	
-0.39502	
-0.39563	
-0.395386	
-0.394836	
-0.39679	
-0.397217	
-0.397156	
-0.396667	
-0.397278	
-0.39624	
-0.396729	
-0.397034	
-0.39679	
-0.39679	
-0.396545	
-0.397217	
-0.397217	
-0.396057	
-0.395325	
-0.396362	
-0.395081	
-0.395569	
-0.395691	
-0.395752	
-0.396057	
-0.395386	
-0.396118	
-0.39624	
-0.396362	
-0.395569	
-0.396057	
-0.394714	
-0.395813	
-0.396118	
-0.397156	
-0.397156	
-0.396973	
-0.39624	
-0.397888	
-0.398071	
-0.397583	
-0.396851	
-0.397217	
-0.396484	
-0.397461	
-0.397827	
-0.396423	
-0.396667	
-0.396118	
-0.397095	
-0.397156	
-0.397461	
-0.396729	
-0.396973	
-0.396484	
-0.396973	
-0.397461	
-0.397034	
-0.398315	
-0.398499	
-0.398743	
-0.39978	
-0.400513	
-0.400574	
-0.399719	
-0.399841	
-0.400085	
-0.400391	
-0.40033	
-0.400635	
-0.40094	
-0.400635	
-0.398987	
-0.400818	
-0.401428	
-0.401672	
-0.401001	
-0.40155	
-0.400696	
-0.401245	
-0.401367	
-0.400452	
-0.400146	
-0.399902	
-0.399475	
-0.399414	
-0.399536	
-0.398926	
-0.397766	
-0.398132	
-0.398804	
-0.398804	
-0.399109	
-0.398743	
-0.398865	
-0.398804	
-0.399841	
-0.399536	
-0.399475	
-0.399597	
-0.397583	
-0.399353	
-0.39978	
-0.400696	
-0.399902	
-0.400513	
-0.399902	
-0.400391	
-0.401428	
-0.400818	
-0.400146	
-0.399597	
-0.399658	
-0.399109	
-0.39978	
-0.400452	
-0.400085	
-0.400024	
-0.400269	
-0.401367	
-0.40033	
-0.400696	
-0.400391	
-0.398926	
-0.398865	
-0.399048	
-0.399414	
-0.398987	
-0.398376	
-0.398621	
-0.399597	
-0.399475	
-0.399597	
-0.398926	
-0.398315	
-0.399353	
-0.39978	
-0.399231	
-0.399902	
-0.400269	
-0.400513	
-0.401001	
-0.402466	
-0.401306	
-0.4021	
-0.401306	
-0.401306	
-0.401367	
-0.401245	
-0.402161	
-0.402039	
-0.402161	
-0.401978	
-0.403381	
-0.403625	
-0.403992	
-0.404236	
-0.402405	
-0.403748	
-0.402649	
-0.403687	
-0.403748	
-0.403381	
-0.402588	
-0.403259	
-0.404053	
-0.40271	
-0.402771	
-0.401672	
-0.400696	
-0.400024	
-0.400757	
-0.399719	
-0.399597	
-0.399414	
-0.399353	
-0.399475	
-0.400269	
-0.399536	
-0.398987	
-0.398254	
-0.398804	
-0.39856	
-0.398376	
-0.398254	
-0.397888	
-0.39801	
-0.398315	
-0.399048	
-0.399353	
-0.399109	
-0.399475	
-0.397156	
-0.398743	
-0.398132	
-0.398621	
-0.398804	
-0.398804	
-0.398743	
-0.398438	
-0.399353	
-0.398743	
-0.399414	
-0.399231	
-0.397217	
-0.399048	
-0.398804	
-0.398865	
-0.398682	
-0.397827	
-0.399292	
-0.399658	
-0.400635	
-0.399719	
-0.400574	
-0.399841	
-0.399841	
-0.40094	
-0.399719	
-0.401611	
-0.401672	
-0.401123	
-0.401794	
-0.401855	
-0.402832	
-0.4021	
-0.402405	
-0.400513	
-0.401978	
-0.40155	
-0.40033	
-0.401367	
-0.400391	
-0.400757	
-0.40094	
-0.400818	
-0.400269	
-0.400452	
-0.400574	
-0.398376	
-0.399963	
-0.39917	
-0.399475	
-0.399658	
-0.399658	
-0.399475	
-0.400024	
-0.401062	
-0.399597	
-0.400391	
-0.399963	
-0.399292	
-0.399536	
-0.39917	
-0.399597	
-0.398865	
-0.400208	
-0.400024	
-0.400208	
-0.401245	
-0.400513	
-0.40033	
-0.399292	
-0.400757	
-0.399841	
-0.399292	
-0.399536	
-0.400024	
-0.400146	
-0.399536	
-0.400146	
-0.400024	
-0.40033	
-0.399963	
-0.398071	
-0.398376	
-0.398315	
-0.39801	
-0.396851	
-0.397644	
-0.397644	
-0.397461	
-0.398071	
-0.397705	
-0.398315	
-0.397705	
-0.397461	
-0.397278	
-0.397034	
-0.397095	
-0.397034	
-0.397583	
-0.397644	
-0.397766	
-0.398499	
-0.398254	
-0.398132	
-0.397949	
-0.3974	
-0.397095	
-0.397461	
-0.398254	
-0.398315	
-0.39801	
-0.398804	
-0.398499	
-0.399048	
-0.398682	
-0.398804	
-0.397644	
-0.397217	
-0.397644	
-0.398132	
-0.397461	
-0.397705	
-0.398132	
-0.398132	
-0.397766	
-0.39801	
-0.398254	
-0.3974	
-0.396423	
-0.396973	
-0.396484	
-0.395569	
-0.395447	
-0.395569	
-0.394836	
-0.394348	
-0.394836	
-0.394226	
-0.393738	
-0.393616	
-0.392822	
-0.392578	
-0.392151	
-0.392517	
-0.391479	
-0.392395	
-0.391968	
-0.39209	
-0.392883	
-0.392822	
-0.392456	
-0.391479	
-0.392273	
-0.391663	
-0.390808	
-0.392395	
-0.392761	
-0.393127	
-0.393433	
-0.394043	
-0.393738	
-0.394348	
-0.39386	
-0.392578	
-0.39325	
-0.393738	
-0.393188	
-0.39325	
-0.393921	
-0.393555	
-0.39386	
-0.394287	
-0.394287	
-0.394287	
-0.394409	
-0.3927	
-0.392456	
-0.393188	
-0.393494	
-0.393311	
-0.393738	
-0.394043	
-0.394287	
-0.394836	
-0.39502	
-0.394836	
-0.394104	
-0.394958	
-0.394104	
-0.393616	
-0.394714	
-0.394592	
-0.394958	
-0.394775	
-0.394714	
-0.39447	
-0.394653	
-0.393982	
-0.392395	
-0.393738	
-0.391418	
-0.392334	
-0.39209	
-0.391785	
-0.392151	
-0.391113	
-0.391602	
-0.391052	
-0.391785	
-0.391541	
-0.390686	
-0.389771	
-0.389282	
-0.391174	
-0.390686	
-0.391357	
-0.391113	
-0.391296	
-0.392334	
-0.39209	
-0.392029	
-0.390564	
-0.391846	
-0.391235	
-0.391724	
-0.392578	
-0.392334	
-0.393311	
-0.392944	
-0.393005	
-0.393311	
-0.393616	
-0.394165	
-0.392456	
-0.393982	
-0.391907	
-0.392212	
-0.392944	
-0.393127	
-0.392883	
-0.392334	
-0.39209	
-0.392273	
-0.393677	
-0.393311	
-0.391785	
-0.392029	
-0.390869	
-0.392029	
-0.390869	
-0.391785	
-0.392212	
-0.392151	
-0.392944	
-0.392517	
-0.393799	
-0.3927	
-0.3927	
-0.39209	
-0.391357	
-0.392517	
-0.391846	
-0.393127	
-0.393311	
-0.393555	
-0.394714	
-0.394104	
-0.395081	
-0.394287	
-0.394653	
-0.393372	
-0.393311	
-0.39386	
-0.394104	
-0.394409	
-0.393738	
-0.39386	
-0.39386	
-0.394287	
-0.393982	
-0.392578	
-0.393127	
-0.391357	
-0.392151	
-0.391907	
-0.391663	
-0.391541	
-0.391296	
-0.392029	
-0.391479	
-0.391663	
-0.392334	
-0.390808	
-0.391174	
-0.390076	
-0.38916	
-0.389404	
-0.389893	
-0.389648	
-0.389648	
-0.390076	
-0.389954	
-0.390869	
-0.390564	
-0.390381	
-0.389526	
-0.390259	
-0.390564	
-0.391174	
-0.392395	
-0.392639	
-0.393066	
-0.394104	
-0.393494	
-0.393921	
-0.394287	
-0.393921	
-0.393188	
-0.393127	
-0.393982	
-0.393555	
-0.394104	
-0.394104	
-0.394226	
-0.395264	
-0.395264	
-0.394958	
-0.394897	
-0.394958	
-0.393433	
-0.39325	
-0.394043	
-0.394165	
-0.393677	
-0.394043	
-0.394226	
-0.394043	
-0.394714	
-0.394592	
-0.393433	
-0.39386	
-0.393799	
-0.39386	
-0.393372	
-0.393616	
-0.393616	
-0.393921	
-0.394043	
-0.393799	
-0.394592	
-0.39447	
-0.393005	
-0.393066	
-0.392822	
-0.392212	
-0.391846	
-0.3927	
-0.392578	
-0.392456	
-0.393005	
-0.392151	
-0.392151	
-0.391846	
-0.391785	
-0.390381	
-0.389832	
-0.389404	
-0.390564	
-0.391174	
-0.391724	
-0.392212	
-0.3927	
-0.392334	
-0.392517	
-0.392456	
-0.392273	
-0.391724	
-0.391357	
-0.3927	
-0.391968	
-0.393005	
-0.393066	
-0.393188	
-0.393799	
-0.39325	
-0.393433	
-0.392883	
-0.393372	
-0.392151	
-0.392578	
-0.392517	
-0.392578	
-0.392578	
-0.392395	
-0.392822	
-0.392273	
-0.393188	
-0.39325	
-0.392029	
-0.393005	
-0.391785	
-0.392273	
-0.392151	
-0.392334	
-0.392822	
-0.393066	
-0.393066	
-0.392578	
-0.393127	
-0.392761	
-0.391541	
-0.392517	
-0.392334	
-0.391968	
-0.392456	
-0.393677	
-0.393921	
-0.394714	
-0.394958	
-0.394714	
-0.395569	
-0.39502	
-0.395142	
-0.394653	
-0.394409	
-0.393982	
-0.393738	
-0.395081	
-0.394409	
-0.394531	
-0.395203	
-0.394775	
-0.39563	
-0.394836	
-0.394165	
-0.393555	
-0.393982	
-0.393982	
-0.392761	
-0.393372	
-0.394043	
-0.393799	
-0.394043	
-0.393616	
-0.394409	
-0.394348	
-0.393616	
-0.392212	
-0.393555	
-0.393555	
-0.394043	
-0.39386	
-0.393494	
-0.393555	
-0.394043	
-0.394409	
-0.393982	
-0.394226	
-0.394714	
-0.392822	
-0.394287	
-0.394287	
-0.394592	
-0.394897	
-0.395142	
-0.396057	
-0.396667	
-0.397217	
-0.397095	
-0.397034	
-0.397278	
-0.397034	
-0.397034	
-0.397278	
-0.397949	
-0.398438	
-0.398315	
-0.39856	
-0.398682	
-0.399536	
-0.399353	
-0.398621	
-0.398499	
-0.398315	
-0.398438	
-0.398621	
-0.398743	
-0.398987	
-0.39856	
-0.398743	
-0.397949	
-0.398071	
-0.397461	
-0.395752	
-0.395752	
-0.395691	
-0.396484	
-0.396179	
-0.396667	
-0.396851	
-0.396973	
-0.397644	
-0.397278	
-0.397278	
-0.397217	
-0.397583	
-0.395935	
-0.396545	
-0.395874	
-0.397278	
-0.39679	
-0.396973	
-0.397278	
-0.398376	
-0.397949	
-0.397583	
-0.397766	
-0.397522	
-0.39624	
-0.395874	
-0.395813	
-0.396179	
-0.395935	
-0.396301	
-0.396301	
-0.397217	
-0.397278	
-0.397217	
-0.396729	
-0.396423	
-0.396667	
-0.396729	
-0.396667	
-0.397705	
-0.397888	
-0.398499	
-0.398438	
-0.398682	
-0.399109	
-0.398804	
-0.398315	
-0.398682	
-0.39856	
-0.398621	
-0.398621	
-0.39917	
-0.398987	
-0.398987	
-0.399353	
-0.399475	
-0.399841	
-0.399902	
-0.398193	
-0.398315	
-0.398193	
-0.397095	
-0.398132	
-0.398193	
-0.397339	
-0.39679	
-0.397827	
-0.397034	
-0.396362	
-0.39624	
-0.397278	
-0.395935	
-0.395996	
-0.394958	
-0.396484	
-0.39624	
-0.396545	
-0.39624	
-0.396545	
-0.396912	
-0.3974	
-0.396667	
-0.397827	
-0.396545	
-0.395691	
-0.396606	
-0.396667	
-0.396912	
-0.396851	
-0.396729	
-0.396545	
-0.396606	
-0.397583	
-0.396362	
-0.396545	
-0.395569	
-0.396301	
-0.395325	
-0.395935	
-0.396057	
-0.395996	
-0.396301	
-0.395386	
-0.395996	
-0.39563	
-0.395508	
-0.394775	
-0.392944	
-0.394043	
-0.39386	
-0.394043	
-0.394165	
-0.394287	
-0.394775	
-0.394958	
-0.395569	
-0.395813	
-0.395142	
-0.395081	
-0.395264	
-0.395508	
-0.394836	
-0.396179	
-0.39624	
-0.396423	
-0.3974	
-0.39679	
-0.397217	
-0.39679	
-0.398071	
-0.39624	
-0.396423	
-0.397339	
-0.397949	
-0.39856	
-0.398499	
-0.398376	
-0.399292	
-0.398743	
-0.399658	
-0.398499	
-0.399109	
-0.397705	
-0.396423	
-0.396484	
-0.397461	
-0.39679	
-0.396484	
-0.396118	
-0.39624	
-0.395508	
-0.395569	
-0.39502	
-0.394958	
-0.393372	
-0.39386	
-0.393066	
-0.394165	
-0.393982	
-0.393616	
-0.393982	
-0.393433	
-0.394348	
-0.394409	
-0.393372	
-0.393921	
-0.391541	
-0.393188	
-0.393005	
-0.393127	
-0.393127	
-0.393311	
-0.394043	
-0.393494	
-0.394043	
-0.394409	
-0.394714	
-0.393494	
-0.393677	
-0.393433	
-0.391785	
-0.393494	
-0.393555	
-0.39386	
-0.394592	
-0.393921	
-0.394897	
-0.393982	
-0.395142	
-0.393677	
-0.393005	
-0.393494	
-0.394531	
-0.394714	
-0.395081	
-0.394958	
-0.395264	
-0.395142	
-0.396423	
-0.396057	
-0.397766	
-0.395569	
-0.395447	
-0.39563	
-0.396179	
-0.396118	
-0.396484	
-0.396667	
-0.39624	
-0.396606	
-0.396179	
-0.394531	
-0.395874	
-0.39502	
-0.393982	
-0.393738	
-0.394104	
-0.394104	
-0.394043	
-0.394836	
-0.393799	
-0.394409	
-0.394348	
-0.393921	
-0.393555	
-0.392273	
-0.392578	
-0.392761	
-0.393494	
-0.393738	
-0.393921	
-0.395142	
-0.394226	
-0.395142	
-0.394531	
-0.394409	
-0.393982	
-0.393494	
-0.393677	
-0.3927	
-0.393982	
-0.39386	
-0.394287	
-0.394958	
-0.394409	
-0.39502	
-0.394226	
-0.395081	
-0.393738	
-0.393616	
-0.393311	
-0.392273	
-0.39325	
-0.392822	
-0.392883	
-0.392944	
-0.392151	
-0.392639	
-0.392334	
-0.393127	
-0.391052	
-0.391296	
-0.39093	
-0.390259	
-0.39093	
-0.391113	
-0.391357	
-0.391296	
-0.391541	
-0.391541	
-0.390259	
-0.392639	
-0.39093	
-0.390564	
-0.39093	
-0.391724	
-0.391785	
-0.391479	
-0.39209	
-0.391663	
-0.391785	
-0.391785	
-0.391724	
-0.392883	
-0.391174	
-0.390991	
-0.390747	
-0.391541	
-0.391418	
-0.391602	
-0.391968	
-0.391785	
-0.392456	
-0.391541	
-0.391418	
-0.391541	
-0.390137	
-0.390381	
-0.388916	
-0.390442	
-0.390015	
-0.390686	
-0.391113	
-0.389893	
-0.390015	
-0.389648	
-0.389404	
-0.388367	
-0.386841	
-0.38678	
-0.386719	
-0.386658	
-0.386597	
-0.386902	
-0.386841	
-0.38623	
-0.386658	
-0.386658	
-0.386414	
-0.384949	
-0.384766	
-0.384644	
-0.38385	
-0.385132	
-0.385193	
-0.385437	
-0.385315	
-0.385681	
-0.386963	
-0.38678	
-0.386963	
-0.386597	
-0.386414	
-0.386963	
-0.385803	
-0.387268	
-0.386963	
-0.387146	
-0.38739	
-0.386963	
-0.387512	
-0.387085	
-0.387146	
-0.386353	
-0.386536	
-0.38623	
-0.386597	
-0.386536	
-0.386475	
-0.386719	
-0.38623	
-0.386475	
-0.386963	
-0.385376	
-0.387085	
-0.385742	
-0.385498	
-0.385925	
-0.387146	
-0.387085	
-0.387085	
-0.387451	
-0.387085	
-0.387268	
-0.387512	
-0.386292	
-0.387146	
-0.386475	
-0.38562	
-0.38501	
-0.386353	
-0.386047	
-0.385376	
-0.385559	
-0.384705	
-0.38501	
-0.38501	
-0.384155	
-0.383606	
-0.383301	
-0.383423	
-0.381653	
-0.383545	
-0.383545	
-0.383728	
-0.384583	
-0.383362	
-0.38446	
-0.384094	
-0.384583	
-0.383179	
-0.382385	
-0.383545	
-0.382629	
-0.383972	
-0.383911	
-0.38501	
-0.386047	
-0.385559	
-0.38623	
-0.385742	
-0.386902	
-0.385437	
-0.384888	
-0.385254	
-0.385193	
-0.385925	
-0.385681	
-0.385559	
-0.385315	
-0.385803	
-0.386047	
-0.384399	
-0.386353	
-0.383484	
-0.384399	
-0.384583	
-0.384521	
-0.384277	
-0.384644	
-0.384583	
-0.384766	
-0.38501	
-0.385315	
-0.38446	
-0.386108	
-0.383484	
-0.384155	
-0.384583	
-0.385193	
-0.385254	
-0.385864	
-0.385376	
-0.385742	
-0.386414	
-0.38623	
-0.38501	
-0.386292	
-0.386047	
-0.38623	
-0.385315	
-0.386536	
-0.386963	
-0.386841	
-0.387939	
-0.387268	
-0.387512	
-0.386719	
-0.386597	
-0.386536	
-0.38562	
-0.385498	
-0.384094	
-0.385559	
-0.385681	
-0.385193	
-0.385864	
-0.384521	
-0.384827	
-0.38446	
-0.384338	
-0.383423	
-0.383362	
-0.383911	
-0.381165	
-0.38324	
-0.382751	
-0.382568	
-0.383179	
-0.382629	
-0.382568	
-0.381836	
-0.383057	
-0.381042	
-0.381531	
-0.381653	
-0.380859	
-0.382568	
-0.382996	
-0.383606	
-0.384949	
-0.384949	
-0.385132	
-0.385376	
-0.386475	
-0.385681	
-0.385254	
-0.38562	
-0.385864	
-0.38623	
-0.386169	
-0.386353	
-0.386292	
-0.387085	
-0.387268	
-0.386047	
-0.386963	
-0.386719	
-0.38678	
-0.385498	
-0.38678	
-0.386597	
-0.386902	
-0.386658	
-0.386963	
-0.386536	
-0.387573	
-0.385925	
-0.386414	
-0.386292	
-0.385986	
-0.384644	
-0.386536	
-0.386841	
-0.386902	
-0.386841	
-0.386719	
-0.386353	
-0.386658	
-0.386658	
-0.385071	
-0.385437	
-0.385864	
-0.385986	
-0.38623	
-0.386414	
-0.38623	
-0.387207	
-0.386963	
-0.385681	
-0.385559	
-0.386475	
-0.384583	
-0.384216	
-0.383911	
-0.384583	
-0.383911	
-0.383911	
-0.384277	
-0.384827	
-0.385315	
-0.384827	
-0.384644	
-0.385925	
-0.384644	
-0.383484	
-0.38385	
-0.385376	
-0.385437	
-0.385986	
-0.386353	
-0.386047	
-0.387085	
-0.386658	
-0.386169	
-0.386108	
-0.38623	
-0.386169	
-0.385132	
-0.386292	
-0.386047	
-0.385986	
-0.387146	
-0.386169	
-0.386536	
-0.386353	
-0.386353	
-0.385376	
-0.385376	
-0.38562	
-0.384583	
-0.385986	
-0.385742	
-0.385803	
-0.386414	
-0.386169	
-0.385803	
-0.386475	
-0.387085	
-0.38501	
-0.384766	
-0.385559	
-0.38562	
-0.386658	
-0.386292	
-0.386841	
-0.387207	
-0.387817	
-0.387695	
-0.387451	
-0.388489	
-0.387451	
-0.38739	
-0.387329	
-0.388	
-0.388428	
-0.388184	
-0.388428	
-0.389526	
-0.38916	
-0.388672	
-0.388	
-0.389099	
-0.387939	
-0.387573	
-0.387268	
-0.387756	
-0.388184	
-0.388123	
-0.387939	
-0.388428	
-0.38855	
-0.388672	
-0.387146	
-0.387939	
-0.387024	
-0.387512	
-0.38623	
-0.38739	
-0.387573	
-0.387878	
-0.388	
-0.388428	
-0.388367	
-0.388428	
-0.387817	
-0.387268	
-0.387146	
-0.387329	
-0.385437	
-0.388	
-0.388184	
-0.388245	
-0.38916	
-0.389282	
-0.389282	
-0.389771	
-0.390259	
-0.389648	
	
