E:\DOCUMENTS AND SETTINGS\JPOTAS\MEUS DOCUMENTOS\UFRJ\RSCI-BM 12 WK SERIES\070730-RSCI-BM-09\RSCI-BM-09-LEMG\070730-RSCI-BM-09-LEMG-0021.ACQ
0.025000 msec/sample
1 channel
Analog input
Volts
CH1	
2000	
-0.40509	
-0.403137	
-0.404663	
-0.404358	
-0.405518	
-0.405823	
-0.406311	
-0.406921	
-0.406921	
-0.407043	
-0.406311	
-0.406433	
-0.407593	
-0.405884	
-0.407166	
-0.407227	
-0.407471	
-0.407654	
-0.408081	
-0.40863	
-0.409119	
-0.408447	
-0.408325	
-0.408569	
-0.409302	
-0.407166	
-0.407898	
-0.407532	
-0.408203	
-0.407837	
-0.407898	
-0.408447	
-0.407898	
-0.407227	
-0.406372	
-0.405762	
-0.406006	
-0.404358	
-0.403687	
-0.40448	
-0.404358	
-0.403931	
-0.404114	
-0.404541	
-0.404602	
-0.40387	
-0.403381	
-0.403259	
-0.403564	
-0.402649	
-0.402344	
-0.402405	
-0.402344	
-0.4021	
-0.402405	
-0.40271	
-0.402649	
-0.402588	
-0.401489	
-0.401428	
-0.402161	
-0.401367	
-0.400391	
-0.401672	
-0.401611	
-0.401367	
-0.401306	
-0.40155	
-0.402161	
-0.40155	
-0.401489	
-0.401611	
-0.401917	
-0.401917	
-0.400879	
-0.401794	
-0.402893	
-0.402832	
-0.403198	
-0.403381	
-0.403687	
-0.403381	
-0.403381	
-0.403381	
-0.403076	
-0.403564	
-0.402771	
-0.404053	
-0.404419	
-0.404053	
-0.404114	
-0.405151	
-0.404846	
-0.403931	
-0.404724	
-0.403992	
-0.40271	
-0.403137	
-0.402588	
-0.40271	
-0.402527	
-0.402344	
-0.4021	
-0.401672	
-0.401917	
-0.401428	
-0.400879	
-0.401184	
-0.400391	
-0.401245	
-0.401489	
-0.401367	
-0.401733	
-0.401733	
-0.401794	
-0.402283	
-0.403198	
-0.4021	
-0.402405	
-0.401611	
-0.402283	
-0.402283	
-0.402405	
-0.40155	
-0.4021	
-0.402222	
-0.402466	
-0.402649	
-0.403687	
-0.402893	
-0.403259	
-0.403259	
-0.40332	
-0.403809	
-0.404968	
-0.403992	
-0.405029	
-0.404968	
-0.405518	
-0.404968	
-0.406128	
-0.404907	
-0.404236	
-0.404907	
-0.405212	
-0.404907	
-0.404968	
-0.404358	
-0.404907	
-0.405029	
-0.406006	
-0.40564	
-0.406677	
-0.40564	
-0.406128	
-0.405823	
-0.406189	
-0.405884	
-0.405945	
-0.405334	
-0.406372	
-0.40625	
-0.406799	
-0.40625	
-0.406128	
-0.40564	
-0.40564	
-0.405579	
-0.405457	
-0.404907	
-0.40509	
-0.404175	
-0.405029	
-0.405151	
-0.405334	
-0.405151	
-0.40509	
-0.403625	
-0.403809	
-0.402588	
-0.402954	
-0.401917	
-0.402588	
-0.401855	
-0.402466	
-0.402283	
-0.402771	
-0.402405	
-0.402771	
-0.402161	
-0.4021	
-0.401855	
-0.402649	
-0.400696	
-0.402649	
-0.4021	
-0.403198	
-0.398315	
-0.391357	
-0.402954	
-0.405334	
-0.404785	
-0.404175	
-0.404053	
-0.404114	
-0.403015	
-0.403809	
-0.403992	
-0.403564	
-0.403259	
-0.403931	
-0.40332	
-0.402283	
-0.401917	
-0.400757	
-0.40155	
-0.401184	
-0.401001	
-0.40094	
-0.400818	
-0.401184	
-0.401184	
-0.40155	
-0.401489	
-0.401367	
-0.401184	
-0.40033	
-0.401001	
-0.400696	
-0.400879	
-0.400574	
-0.401001	
-0.401001	
-0.400574	
-0.401978	
-0.402832	
-0.4021	
-0.40271	
-0.401794	
-0.402649	
-0.40271	
-0.402893	
-0.402832	
-0.403137	
-0.40332	
-0.403259	
-0.404053	
-0.405212	
-0.404419	
-0.40448	
-0.403503	
-0.404419	
-0.404541	
-0.405151	
-0.405945	
-0.407104	
-0.408447	
-0.410217	
-0.41449	
-0.41803	
-0.421814	
-0.42749	
-0.432129	
-0.438354	
-0.445801	
-0.452209	
-0.460144	
-0.468079	
-0.476196	
-0.483215	
-0.489075	
-0.493225	
-0.497681	
-0.499695	
-0.503479	
-0.505188	
-0.506226	
-0.506592	
-0.507141	
-0.50824	
-0.50824	
-0.508484	
-0.508667	
-0.507568	
-0.507813	
-0.507202	
-0.50647	
-0.505737	
-0.505127	
-0.50293	
-0.502258	
-0.501038	
-0.499268	
-0.498474	
-0.496643	
-0.494446	
-0.492676	
-0.492432	
-0.490967	
-0.488953	
-0.488098	
-0.48645	
-0.486389	
-0.485657	
-0.485474	
-0.48468	
-0.483521	
-0.483337	
-0.481323	
-0.481934	
-0.481995	
-0.481689	
-0.481873	
-0.481995	
-0.481873	
-0.480774	
-0.481873	
-0.480591	
-0.478699	
-0.476624	
-0.474976	
-0.471802	
-0.469604	
-0.467712	
-0.464905	
-0.463135	
-0.460876	
-0.45874	
-0.45697	
-0.455139	
-0.453064	
-0.450439	
-0.450989	
-0.449768	
-0.44751	
-0.447632	
-0.447144	
-0.445618	
-0.443726	
-0.442993	
-0.442261	
-0.440247	
-0.438477	
-0.435242	
-0.434448	
-0.432434	
-0.430603	
-0.427856	
-0.425171	
-0.421753	
-0.418335	
-0.414917	
-0.410583	
-0.405579	
-0.399292	
-0.391968	
-0.38623	
-0.378845	
-0.370483	
-0.362854	
-0.354553	
-0.345886	
-0.337219	
-0.329468	
-0.322266	
-0.314514	
-0.309143	
-0.301208	
-0.297607	
-0.292725	
-0.289612	
-0.287048	
-0.285278	
-0.284119	
-0.28363	
-0.284485	
-0.284668	
-0.28418	
-0.284424	
-0.28595	
-0.286499	
-0.288452	
-0.291626	
-0.294922	
-0.297607	
-0.301636	
-0.30603	
-0.31012	
-0.314026	
-0.317444	
-0.321777	
-0.325378	
-0.329651	
-0.333923	
-0.338074	
-0.342285	
-0.345886	
-0.350159	
-0.353271	
-0.356628	
-0.358704	
-0.361206	
-0.362549	
-0.36554	
-0.366882	
-0.368896	
-0.370056	
-0.371765	
-0.373474	
-0.374512	
-0.375366	
-0.375977	
-0.376648	
-0.376709	
-0.378479	
-0.377991	
-0.380127	
-0.381287	
-0.381531	
-0.382629	
-0.382874	
-0.383118	
-0.383423	
-0.383423	
-0.382874	
-0.384705	
-0.383911	
-0.38562	
-0.385498	
-0.385803	
-0.386353	
-0.38739	
-0.38855	
-0.387024	
-0.387024	
-0.386719	
-0.386902	
-0.387024	
-0.387024	
-0.386292	
-0.385925	
-0.38501	
-0.385437	
-0.385071	
-0.383606	
-0.382141	
-0.381714	
-0.380798	
-0.379578	
-0.379822	
-0.379761	
-0.378723	
-0.378357	
-0.378906	
-0.377563	
-0.377869	
-0.376648	
-0.37677	
-0.374023	
-0.374268	
-0.373474	
-0.374084	
-0.373413	
-0.372681	
-0.372498	
-0.372314	
-0.372681	
-0.371643	
-0.372192	
-0.370728	
-0.370483	
-0.370605	
-0.371765	
-0.371704	
-0.371826	
-0.372437	
-0.373352	
-0.373535	
-0.374207	
-0.374695	
-0.374512	
-0.373474	
-0.374573	
-0.375122	
-0.375671	
-0.376404	
-0.376953	
-0.377502	
-0.377686	
-0.378845	
-0.378357	
-0.379456	
-0.379089	
-0.378479	
-0.380188	
-0.380615	
-0.381042	
-0.381714	
-0.382813	
-0.382874	
-0.382996	
-0.38501	
-0.383118	
-0.384094	
-0.383301	
-0.384583	
-0.384033	
-0.385742	
-0.386353	
-0.38678	
-0.38739	
-0.387634	
-0.388977	
-0.388123	
-0.389099	
-0.388611	
-0.389343	
-0.389282	
-0.390442	
-0.39093	
-0.391174	
-0.392029	
-0.391724	
-0.391968	
-0.391968	
-0.391724	
-0.390747	
-0.389526	
-0.391357	
-0.39093	
-0.391052	
-0.390686	
-0.390686	
-0.390747	
-0.390869	
-0.392029	
-0.390015	
-0.391785	
-0.389893	
-0.390808	
-0.390991	
-0.391541	
-0.391968	
-0.392883	
-0.393311	
-0.39325	
-0.395325	
-0.393982	
-0.39447	
-0.394226	
-0.393311	
-0.394531	
-0.393555	
-0.394958	
-0.395142	
-0.396057	
-0.395508	
-0.395874	
-0.396484	
-0.395874	
-0.397034	
-0.395142	
-0.39502	
-0.395996	
-0.396301	
-0.396179	
-0.396301	
-0.397217	
-0.396484	
-0.396423	
-0.396362	
-0.395325	
-0.396118	
-0.394531	
-0.395508	
-0.395203	
-0.395569	
-0.395691	
-0.395752	
-0.395325	
-0.395874	
-0.39679	
-0.394958	
-0.394897	
-0.39386	
-0.393005	
-0.393066	
-0.392578	
-0.392517	
-0.392822	
-0.393005	
-0.391907	
-0.391968	
-0.392212	
-0.392029	
-0.391785	
-0.389465	
-0.391174	
-0.391174	
-0.391174	
-0.391602	
-0.391968	
-0.391296	
-0.391418	
-0.393005	
-0.390381	
-0.391785	
-0.39093	
-0.391296	
-0.392334	
-0.391174	
-0.392517	
-0.392517	
-0.393799	
-0.393311	
-0.39386	
-0.393494	
-0.392944	
-0.393372	
-0.393127	
-0.393066	
-0.392395	
-0.393677	
-0.393982	
-0.395508	
-0.394714	
-0.394897	
-0.396057	
-0.395325	
-0.395752	
-0.395081	
-0.394653	
-0.395142	
-0.39563	
-0.396057	
-0.396606	
-0.396179	
-0.396179	
-0.396912	
-0.3974	
-0.397034	
-0.395569	
-0.396484	
-0.396606	
-0.39624	
-0.397156	
-0.397278	
-0.397095	
-0.397583	
-0.398438	
-0.396851	
-0.396423	
-0.396912	
-0.396667	
-0.395813	
-0.396729	
-0.397095	
-0.397461	
-0.39801	
-0.397278	
-0.398071	
-0.39856	
-0.398254	
-0.397827	
-0.39679	
-0.398193	
-0.398071	
-0.39856	
-0.398254	
-0.398987	
-0.399048	
-0.399475	
-0.400574	
-0.399475	
-0.400879	
-0.400208	
-0.399719	
-0.400574	
-0.400513	
-0.401672	
-0.401672	
-0.402832	
-0.401611	
-0.402771	
-0.402893	
-0.403625	
-0.40271	
-0.40271	
-0.402832	
-0.401978	
-0.401672	
-0.402893	
-0.402832	
-0.403381	
-0.402893	
-0.404236	
-0.40271	
-0.403931	
-0.402832	
-0.400818	
-0.401367	
-0.401184	
-0.40094	
-0.400452	
-0.400391	
-0.399963	
-0.399963	
-0.399658	
-0.399109	
-0.399719	
-0.398499	
-0.397949	
-0.397583	
-0.398254	
-0.398315	
-0.398193	
-0.39917	
-0.398682	
-0.398438	
-0.398499	
-0.398438	
-0.397278	
-0.396912	
-0.397034	
-0.396484	
-0.397766	
-0.396912	
-0.397705	
-0.397644	
-0.398376	
-0.397522	
-0.397156	
-0.397766	
-0.397095	
-0.39624	
-0.396912	
-0.395325	
-0.397522	
-0.397644	
-0.398438	
-0.397827	
-0.39856	
-0.398499	
-0.398987	
-0.399109	
-0.398743	
-0.398621	
-0.398254	
-0.399292	
-0.399475	
-0.399719	
-0.39978	
-0.400818	
-0.400208	
-0.400696	
-0.400818	
-0.400085	
-0.39978	
-0.400269	
-0.399658	
-0.400024	
-0.400085	
-0.400146	
-0.399963	
-0.399536	
-0.399719	
-0.398621	
-0.399902	
-0.398621	
-0.398254	
-0.397339	
-0.398254	
-0.397705	
-0.397766	
-0.398926	
-0.398926	
-0.397766	
-0.398254	
-0.398743	
-0.398254	
-0.39801	
-0.397888	
-0.397583	
-0.398743	
-0.398621	
-0.399231	
-0.398926	
-0.398926	
-0.39856	
-0.39856	
-0.398682	
-0.398804	
-0.398071	
-0.397888	
-0.399048	
-0.399536	
-0.399963	
-0.400757	
-0.401001	
-0.401184	
-0.401123	
-0.400818	
-0.402527	
-0.401306	
-0.400696	
-0.400208	
-0.401794	
-0.401794	
-0.402527	
-0.402222	
-0.401672	
-0.402039	
-0.402283	
-0.402466	
-0.401855	
-0.402039	
-0.402161	
-0.401733	
-0.402527	
-0.402222	
-0.403076	
-0.403076	
-0.40332	
-0.403381	
-0.402588	
-0.404236	
-0.403076	
-0.402222	
-0.402649	
-0.403015	
-0.40332	
-0.402832	
-0.403381	
-0.403687	
-0.402588	
-0.402466	
-0.402588	
-0.403198	
-0.402161	
-0.401489	
-0.40094	
-0.4021	
-0.401733	
-0.401489	
-0.401672	
-0.401123	
-0.400879	
-0.401062	
-0.401123	
-0.399963	
-0.399536	
-0.399231	
-0.398376	
-0.399597	
-0.399902	
-0.40033	
-0.400269	
-0.399963	
-0.400635	
-0.39978	
-0.401367	
-0.400452	
-0.400269	
-0.400269	
-0.400757	
-0.401245	
-0.401306	
-0.401611	
-0.402405	
-0.401123	
-0.401794	
-0.400879	
-0.402161	
-0.400757	
-0.399475	
-0.399414	
-0.400269	
-0.399902	
-0.399963	
-0.399963	
-0.399414	
-0.399048	
-0.399841	
-0.399597	
-0.398621	
-0.398376	
-0.398621	
-0.397705	
-0.398682	
-0.398621	
-0.398804	
-0.399536	
-0.398438	
-0.398926	
-0.398376	
-0.399414	
-0.398621	
-0.397583	
-0.397583	
-0.39801	
-0.398499	
-0.39917	
-0.39978	
-0.400024	
-0.399841	
-0.400269	
-0.398926	
-0.40094	
-0.400208	
-0.399292	
-0.399536	
-0.400635	
-0.401123	
-0.401123	
-0.401489	
-0.40155	
-0.401917	
-0.402649	
-0.402039	
-0.40332	
-0.403381	
-0.40332	
-0.403442	
-0.40448	
-0.404846	
-0.40509	
-0.406677	
-0.405457	
-0.40625	
-0.405945	
-0.406982	
-0.406372	
-0.406433	
-0.406006	
-0.406128	
-0.406738	
-0.407166	
-0.407288	
-0.407593	
-0.406555	
-0.407043	
-0.406494	
-0.407104	
-0.405579	
-0.404297	
-0.405396	
-0.40564	
-0.405762	
-0.405151	
-0.406006	
-0.406128	
-0.405518	
-0.406067	
-0.40509	
-0.406372	
-0.405212	
-0.403625	
-0.404663	
-0.404663	
-0.404663	
-0.40448	
-0.405518	
-0.403687	
-0.403931	
-0.404175	
-0.40448	
-0.404053	
-0.403687	
-0.402954	
-0.403381	
-0.403503	
-0.403381	
-0.403442	
-0.404846	
-0.403687	
-0.403625	
-0.404541	
-0.403564	
-0.403809	
-0.403931	
-0.402893	
-0.403381	
-0.403503	
-0.404053	
-0.40387	
-0.405396	
-0.403687	
-0.404297	
-0.404602	
-0.40448	
-0.403687	
-0.403259	
-0.402039	
-0.403076	
-0.403198	
-0.403137	
-0.403687	
-0.403625	
-0.40271	
-0.402954	
-0.402588	
-0.402466	
-0.402222	
-0.400879	
-0.400879	
-0.401428	
-0.401184	
-0.401367	
-0.401489	
-0.401306	
-0.400452	
-0.401184	
-0.398865	
-0.400085	
-0.399719	
-0.398682	
-0.398804	
-0.399353	
-0.399475	
-0.399841	
-0.399963	
-0.398865	
-0.398682	
-0.399902	
-0.399414	
-0.399414	
-0.399048	
-0.398926	
-0.399658	
-0.399841	
-0.399414	
-0.400085	
-0.40155	
-0.401062	
-0.401489	
-0.402527	
-0.401733	
-0.402161	
-0.400879	
-0.401917	
-0.402771	
-0.402893	
-0.403381	
-0.403992	
-0.404785	
-0.40387	
-0.404846	
-0.403687	
-0.404663	
-0.404602	
-0.402893	
-0.404724	
-0.405212	
-0.405579	
-0.405334	
-0.406189	
-0.405701	
-0.405701	
-0.406982	
-0.405945	
-0.406067	
-0.405701	
-0.405884	
-0.406555	
-0.406677	
-0.406982	
-0.407288	
-0.40741	
-0.406616	
-0.407227	
-0.407654	
-0.405457	
-0.405884	
-0.404419	
-0.40564	
-0.405823	
-0.405396	
-0.404907	
-0.404846	
-0.406555	
-0.40448	
-0.405396	
-0.404236	
-0.40448	
-0.403992	
-0.401794	
-0.402954	
-0.40387	
-0.403748	
-0.403687	
-0.404053	
-0.405029	
-0.404419	
-0.405457	
-0.404541	
-0.404724	
-0.404358	
-0.403931	
-0.404785	
-0.40509	
-0.405396	
-0.405396	
-0.406494	
-0.407227	
-0.407043	
-0.407104	
-0.405762	
-0.406128	
-0.405212	
-0.406128	
-0.406311	
-0.406311	
-0.40625	
-0.405945	
-0.406311	
-0.406372	
-0.405457	
-0.405518	
-0.404968	
-0.405212	
-0.403748	
-0.405029	
-0.404968	
-0.405212	
-0.405396	
-0.405579	
-0.40564	
-0.40509	
-0.40564	
-0.404358	
-0.402222	
-0.40332	
-0.402405	
-0.402344	
-0.402466	
-0.402222	
-0.402466	
-0.402527	
-0.403992	
-0.402405	
-0.403076	
-0.401917	
-0.402039	
-0.401978	
-0.402039	
-0.40094	
-0.401794	
-0.402039	
-0.402161	
-0.401672	
-0.403076	
-0.401733	
-0.4021	
-0.401794	
-0.401184	
-0.399841	
-0.400391	
-0.400879	
-0.400696	
-0.400696	
-0.401062	
-0.40155	
-0.40155	
-0.401794	
-0.4021	
-0.400391	
-0.40094	
-0.400757	
-0.401184	
-0.401367	
-0.401306	
-0.401672	
-0.402283	
-0.403259	
-0.402283	
-0.40271	
-0.403748	
-0.401794	
-0.402161	
-0.403076	
-0.402588	
-0.403931	
-0.403748	
-0.404419	
-0.404846	
-0.406372	
-0.405029	
-0.405029	
-0.405029	
-0.404968	
-0.403625	
-0.403687	
-0.404297	
-0.404419	
-0.404663	
-0.404114	
-0.403931	
-0.403992	
-0.404541	
-0.403992	
-0.402344	
-0.402344	
-0.403137	
-0.401978	
-0.402771	
-0.402771	
-0.403137	
-0.40332	
-0.403687	
-0.403809	
-0.405518	
-0.404663	
-0.403015	
-0.404602	
-0.404785	
-0.404236	
-0.40509	
-0.405334	
-0.404968	
-0.405457	
-0.406311	
-0.405945	
-0.406494	
-0.406433	
-0.405884	
-0.404785	
-0.405396	
-0.405579	
-0.406067	
-0.405579	
-0.405273	
-0.405823	
-0.406372	
-0.405762	
-0.405334	
-0.405334	
-0.404846	
-0.404236	
-0.404297	
-0.403625	
-0.404358	
-0.40448	
-0.404175	
-0.40448	
-0.404968	
-0.404602	
-0.403625	
-0.403625	
-0.402954	
-0.402771	
-0.401672	
-0.401978	
-0.401123	
-0.401428	
-0.40094	
-0.40155	
-0.400635	
-0.400391	
-0.399658	
-0.399109	
-0.39856	
-0.399109	
-0.398438	
-0.398987	
-0.398315	
-0.398376	
-0.398926	
-0.400208	
-0.398987	
-0.398499	
-0.398682	
-0.398376	
-0.398132	
-0.39856	
-0.397705	
-0.398987	
-0.399353	
-0.399414	
-0.399597	
-0.400391	
-0.399536	
-0.39917	
-0.399109	
-0.399109	
-0.398926	
-0.399109	
-0.398682	
-0.39917	
-0.399414	
-0.39978	
-0.400757	
-0.400513	
-0.40094	
-0.400391	
-0.399353	
-0.400513	
-0.40094	
-0.400391	
-0.399841	
-0.400757	
-0.40094	
-0.401367	
-0.4021	
-0.40155	
-0.402222	
-0.401428	
-0.400146	
-0.401367	
-0.40155	
-0.401917	
-0.401184	
-0.402039	
-0.401978	
-0.402161	
-0.403015	
-0.401855	
-0.401794	
-0.401978	
-0.4021	
-0.400574	
-0.401184	
-0.401367	
-0.401611	
-0.40155	
-0.401794	
-0.402161	
-0.4021	
-0.402283	
-0.402039	
-0.401611	
-0.402527	
-0.401001	
-0.4021	
-0.402283	
-0.402527	
-0.402832	
-0.403381	
-0.403992	
-0.404114	
-0.404846	
-0.404724	
-0.40271	
-0.405579	
-0.404602	
-0.404907	
-0.404663	
-0.405151	
-0.405945	
-0.405762	
-0.406921	
-0.406372	
-0.406982	
-0.406311	
-0.406555	
-0.406189	
-0.406372	
-0.406555	
-0.405762	
-0.406494	
-0.406311	
-0.406616	
-0.407959	
-0.406494	
-0.406982	
-0.406616	
-0.406372	
-0.40564	
-0.404907	
-0.404663	
-0.403931	
-0.40387	
-0.403503	
-0.403625	
-0.40448	
-0.40332	
-0.403259	
-0.402222	
-0.402466	
-0.401184	
-0.401245	
-0.401978	
-0.400879	
-0.401917	
-0.401978	
-0.402405	
-0.401428	
-0.401672	
-0.401123	
-0.399048	
-0.401184	
-0.39978	
-0.399902	
-0.400574	
-0.39917	
-0.400391	
-0.400818	
-0.401123	
-0.400696	
-0.400879	
-0.401001	
-0.398315	
-0.40094	
-0.399536	
-0.400208	
-0.400391	
-0.40094	
-0.401245	
-0.401794	
-0.403381	
-0.401611	
-0.40271	
-0.402344	
-0.402344	
-0.402222	
-0.402222	
-0.402588	
-0.401794	
-0.402527	
-0.402832	
-0.403442	
-0.404358	
-0.403137	
-0.404419	
-0.403748	
-0.403625	
-0.40332	
-0.403442	
-0.403503	
-0.401794	
-0.403076	
-0.403015	
-0.403137	
-0.403809	
-0.402588	
-0.403198	
-0.399658	
-0.402466	
-0.401062	
-0.400391	
-0.400879	
-0.401428	
-0.401428	
-0.401367	
-0.401978	
-0.401367	
-0.401001	
-0.402039	
-0.400391	
-0.401794	
-0.401245	
-0.401123	
-0.40155	
-0.401855	
-0.401855	
-0.4021	
-0.402954	
-0.4021	
-0.402649	
-0.402527	
-0.401489	
-0.402161	
-0.401489	
-0.402588	
-0.402344	
-0.403748	
-0.404114	
-0.404358	
-0.405273	
-0.404785	
-0.405518	
-0.404236	
-0.405212	
-0.404541	
-0.403564	
-0.404785	
-0.404968	
-0.405334	
-0.405334	
-0.405518	
-0.406128	
-0.405701	
-0.406372	
-0.405396	
-0.406128	
-0.405457	
-0.405273	
-0.405396	
-0.406067	
-0.406128	
-0.406189	
-0.406738	
-0.406494	
-0.40686	
-0.407349	
-0.40509	
-0.406921	
-0.405579	
-0.405884	
-0.406616	
-0.406555	
-0.406311	
-0.406311	
-0.407104	
-0.405945	
-0.406433	
-0.40686	
-0.403931	
-0.405518	
-0.404419	
-0.404541	
-0.404175	
-0.404663	
-0.404602	
-0.404541	
-0.404846	
-0.403931	
-0.404053	
-0.403625	
-0.401855	
-0.402954	
-0.402344	
-0.403137	
-0.402649	
-0.40332	
-0.403259	
-0.403687	
-0.405151	
-0.403442	
-0.404907	
-0.403809	
-0.40448	
-0.404419	
-0.403992	
-0.404358	
-0.404297	
-0.40448	
-0.404663	
-0.404846	
-0.406189	
-0.404785	
-0.405701	
-0.404053	
-0.404724	
-0.403503	
-0.402161	
-0.403076	
-0.401611	
-0.402527	
-0.402283	
-0.403076	
-0.402954	
-0.402344	
-0.40271	
-0.401184	
-0.402832	
-0.400452	
-0.401306	
-0.401489	
-0.401672	
-0.401672	
-0.402283	
-0.402954	
-0.402893	
-0.402588	
-0.402527	
-0.402039	
-0.402771	
-0.401245	
-0.402344	
-0.402954	
-0.40271	
-0.40332	
-0.403687	
-0.404785	
-0.404236	
-0.404602	
-0.404358	
-0.403137	
-0.403931	
-0.403992	
-0.40448	
-0.403625	
-0.404419	
-0.404846	
-0.406128	
-0.407166	
-0.406616	
-0.408386	
-0.407288	
-0.407043	
-0.407532	
-0.408081	
-0.408325	
-0.408508	
-0.408752	
-0.409485	
-0.409546	
-0.410156	
-0.410095	
-0.410706	
-0.409546	
-0.410034	
-0.40979	
-0.408813	
-0.410034	
-0.410034	
-0.410034	
-0.410156	
-0.410339	
-0.410583	
-0.409607	
-0.409729	
-0.408997	
-0.409851	
-0.408875	
-0.407959	
-0.408691	
-0.409058	
-0.409241	
-0.409241	
-0.409851	
-0.409851	
-0.409058	
-0.409058	
-0.408386	
-0.408325	
-0.406982	
-0.406921	
-0.406982	
-0.407654	
-0.407349	
-0.407471	
-0.40863	
-0.408081	
-0.40802	
-0.407959	
-0.407166	
-0.406494	
-0.40625	
-0.406433	
-0.406677	
-0.40686	
-0.40686	
-0.406982	
-0.407715	
-0.407715	
-0.407837	
-0.407654	
-0.407349	
-0.406982	
-0.406616	
-0.40686	
-0.407104	
-0.407166	
-0.407349	
-0.406921	
-0.407593	
-0.407593	
-0.407898	
-0.406494	
-0.406067	
-0.406006	
-0.405396	
-0.405945	
-0.406494	
-0.406494	
-0.406494	
-0.406677	
-0.40686	
-0.40625	
-0.405762	
-0.404419	
-0.403748	
-0.403931	
-0.403381	
-0.40332	
-0.403748	
-0.403442	
-0.403748	
-0.403687	
-0.404114	
-0.403381	
-0.403503	
-0.402893	
-0.401917	
-0.401367	
-0.401489	
-0.401917	
-0.402344	
-0.401917	
-0.402161	
-0.40271	
-0.403137	
-0.403076	
-0.403259	
-0.402283	
-0.4021	
-0.402344	
-0.402771	
-0.403442	
-0.40387	
-0.404053	
-0.40448	
-0.405334	
-0.40625	
-0.406372	
-0.406677	
-0.404175	
-0.405701	
-0.405762	
-0.405273	
-0.406555	
-0.406555	
-0.407104	
-0.407166	
-0.40802	
-0.408081	
-0.407898	
-0.408203	
-0.407104	
-0.407227	
-0.407043	
-0.407349	
-0.408264	
-0.408264	
-0.408386	
-0.408752	
-0.409729	
-0.409058	
-0.40918	
-0.409241	
-0.40863	
-0.408813	
-0.407898	
-0.409241	
-0.409363	
-0.40979	
-0.40979	
-0.409119	
-0.409607	
-0.408508	
-0.408325	
-0.408691	
-0.406311	
-0.406494	
-0.406494	
-0.406799	
-0.407043	
-0.40686	
-0.406677	
-0.406921	
-0.407898	
-0.407288	
-0.407166	
-0.405701	
-0.40564	
-0.40564	
-0.40564	
-0.40625	
-0.406738	
-0.406311	
-0.406494	
-0.407166	
-0.408142	
-0.40802	
-0.408203	
-0.407043	
-0.407288	
-0.407104	
-0.407715	
-0.407959	
-0.408142	
-0.408508	
-0.408325	
-0.408997	
-0.408875	
-0.40918	
-0.409119	
-0.407837	
-0.407715	
-0.408142	
-0.407898	
-0.408203	
-0.407959	
-0.40741	
-0.407654	
-0.408447	
-0.40918	
-0.40802	
-0.408264	
-0.406006	
-0.407288	
-0.407349	
-0.407043	
-0.407227	
-0.407104	
-0.406738	
-0.406189	
-0.407166	
-0.406372	
-0.405457	
-0.405701	
-0.403381	
-0.404968	
-0.403748	
-0.404419	
-0.404785	
-0.404663	
-0.404663	
-0.404663	
-0.405823	
-0.404358	
-0.404846	
-0.404724	
-0.402466	
-0.404419	
-0.403198	
-0.404053	
-0.403625	
-0.403931	
-0.403931	
-0.404175	
-0.404785	
-0.403564	
-0.404236	
-0.402771	
-0.402649	
-0.403137	
-0.402344	
-0.40332	
-0.403625	
-0.403931	
-0.403809	
-0.403992	
-0.404663	
-0.403931	
-0.405029	
-0.402893	
-0.40387	
-0.403748	
-0.403564	
-0.40448	
-0.40509	
-0.405151	
-0.405151	
-0.406433	
-0.407043	
-0.406372	
-0.407593	
-0.405823	
-0.406799	
-0.406189	
-0.407166	
-0.407898	
-0.407837	
-0.40741	
-0.407837	
-0.408875	
-0.408081	
-0.407288	
-0.407166	
-0.405396	
-0.406555	
-0.405518	
-0.406006	
-0.405823	
-0.406067	
-0.406006	
-0.40564	
-0.406372	
-0.405762	
-0.405945	
-0.404602	
-0.402771	
-0.405457	
-0.40509	
-0.406189	
-0.407043	
-0.407043	
-0.40741	
-0.408203	
-0.408691	
-0.408081	
-0.407898	
-0.406128	
-0.406982	
-0.407532	
-0.405579	
-0.408203	
-0.408752	
-0.40863	
-0.408325	
-0.409485	
-0.409912	
-0.408325	
-0.408447	
-0.40802	
-0.408325	
-0.407959	
-0.406311	
-0.408325	
-0.408264	
-0.407959	
-0.407715	
-0.408447	
-0.408508	
-0.40741	
-0.407715	
-0.406067	
-0.406433	
-0.405884	
-0.405579	
-0.406616	
-0.406372	
-0.405823	
-0.405701	
-0.406677	
-0.406006	
-0.404602	
-0.404236	
-0.403015	
-0.403076	
-0.402771	
-0.401367	
-0.402222	
-0.401733	
-0.401978	
-0.402039	
-0.402649	
-0.401733	
-0.401245	
-0.401123	
-0.399414	
-0.400818	
-0.400757	
-0.401489	
-0.401123	
-0.401001	
-0.40094	
-0.401245	
-0.402222	
-0.401184	
-0.401733	
-0.401184	
-0.400635	
-0.401794	
-0.400208	
-0.401733	
-0.401733	
-0.402039	
-0.401917	
-0.402649	
-0.402527	
-0.401978	
-0.402405	
-0.401489	
-0.402405	
-0.402161	
-0.401672	
-0.402588	
-0.402954	
-0.40332	
-0.40332	
-0.403809	
-0.40448	
-0.403381	
-0.404419	
-0.402283	
-0.403137	
-0.403564	
-0.403198	
-0.403992	
-0.404175	
-0.404358	
-0.404358	
-0.406006	
-0.40564	
-0.40448	
-0.404053	
-0.405334	
-0.404053	
-0.40332	
-0.403931	
-0.404358	
-0.404175	
-0.403748	
-0.404053	
-0.405823	
-0.404419	
-0.404297	
-0.403931	
-0.40387	
-0.404114	
-0.403503	
-0.403748	
-0.404785	
-0.404846	
-0.404663	
-0.404968	
-0.406189	
	
