E:\DOCUMENTS AND SETTINGS\JPOTAS\MEUS DOCUMENTOS\UFRJ\RSCI-BM 12 WK SERIES\070720-RSCI-BM-04\RSCI-BM-04-LEMG\070720-RSCI-BM-LEMG-0006.ACQ
0.025000 msec/sample
1 channel
Analog input
Volts
CH1	
2000	
-0.395264	
-0.397644	
-0.397461	
-0.39624	
-0.396179	
-0.395508	
-0.396973	
-0.396667	
-0.396851	
-0.396057	
-0.396362	
-0.395081	
-0.396606	
-0.396667	
-0.396179	
-0.395447	
-0.394348	
-0.39563	
-0.395325	
-0.395264	
-0.395264	
-0.395142	
-0.394592	
-0.396301	
-0.395752	
-0.395264	
-0.395386	
-0.394592	
-0.395386	
-0.395203	
-0.39563	
-0.39563	
-0.396179	
-0.395874	
-0.396851	
-0.396423	
-0.39624	
-0.395874	
-0.395508	
-0.394958	
-0.39624	
-0.396179	
-0.396179	
-0.395447	
-0.395691	
-0.396118	
-0.396362	
-0.397339	
-0.39624	
-0.395569	
-0.39624	
-0.39624	
-0.396484	
-0.396851	
-0.396545	
-0.396118	
-0.395996	
-0.397217	
-0.39679	
-0.39624	
-0.396179	
-0.396912	
-0.396667	
-0.397339	
-0.397278	
-0.397461	
-0.39801	
-0.397644	
-0.398743	
-0.39856	
-0.397888	
-0.397644	
-0.399231	
-0.397583	
-0.398438	
-0.398376	
-0.397705	
-0.397949	
-0.397888	
-0.398621	
-0.397949	
-0.398376	
-0.396667	
-0.398132	
-0.396179	
-0.396057	
-0.396729	
-0.395752	
-0.395935	
-0.395935	
-0.395996	
-0.395752	
-0.396057	
-0.395203	
-0.396606	
-0.396057	
-0.396606	
-0.396484	
-0.396423	
-0.396729	
-0.396912	
-0.396973	
-0.397278	
-0.398071	
-0.396118	
-0.397522	
-0.39801	
-0.398071	
-0.398621	
-0.397095	
-0.398071	
-0.398682	
-0.39801	
-0.398743	
-0.398804	
-0.397888	
-0.398376	
-0.39917	
-0.39801	
-0.399048	
-0.39917	
-0.39917	
-0.399475	
-0.399109	
-0.39978	
-0.399536	
-0.399048	
-0.398438	
-0.399536	
-0.398132	
-0.399719	
-0.398926	
-0.398438	
-0.398499	
-0.398865	
-0.398804	
-0.397705	
-0.39801	
-0.396912	
-0.397644	
-0.39679	
-0.397644	
-0.397888	
-0.396423	
-0.397156	
-0.396729	
-0.396973	
-0.397034	
-0.396912	
-0.396729	
-0.397217	
-0.396484	
-0.396851	
-0.397217	
-0.395142	
-0.39679	
-0.396545	
-0.397156	
-0.397217	
-0.397888	
-0.396606	
-0.397156	
-0.398071	
-0.397583	
-0.398621	
-0.397156	
-0.398132	
-0.398132	
-0.398743	
-0.398682	
-0.398743	
-0.39679	
-0.398804	
-0.399719	
-0.399597	
-0.399902	
-0.399231	
-0.399536	
-0.399902	
-0.401001	
-0.399719	
-0.400269	
-0.399414	
-0.399231	
-0.401001	
-0.400574	
-0.401062	
-0.399963	
-0.400085	
-0.400146	
-0.401245	
-0.401062	
-0.400696	
-0.400513	
-0.398865	
-0.399231	
-0.398926	
-0.375427	
-0.376831	
-0.381836	
-0.384033	
-0.384888	
-0.385681	
-0.415955	
-0.407837	
-0.401978	
-0.401489	
-0.400146	
-0.400452	
-0.399719	
-0.398865	
-0.399902	
-0.400024	
-0.40094	
-0.400024	
-0.401001	
-0.399841	
-0.398987	
-0.399963	
-0.400024	
-0.400208	
-0.398743	
-0.399597	
-0.399109	
-0.399536	
-0.399536	
-0.399841	
-0.398865	
-0.39801	
-0.371765	
-0.376709	
-0.381592	
-0.383179	
-0.384583	
-0.383911	
-0.417297	
-0.408447	
-0.403442	
-0.400818	
-0.399353	
-0.400513	
-0.399841	
-0.399353	
-0.398926	
-0.399231	
-0.39917	
-0.398865	
-0.399536	
-0.398376	
-0.397522	
-0.39801	
-0.399292	
-0.398743	
-0.400208	
-0.401611	
-0.404114	
-0.40802	
-0.412476	
-0.41803	
-0.422424	
-0.42688	
-0.431274	
-0.436707	
-0.441833	
-0.44751	
-0.452332	
-0.461548	
-0.468811	
-0.476074	
-0.482849	
-0.486328	
-0.489441	
-0.492432	
-0.496399	
-0.498718	
-0.499512	
-0.499878	
-0.500671	
-0.500061	
-0.500305	
-0.50061	
-0.498779	
-0.496521	
-0.494263	
-0.492493	
-0.491028	
-0.48822	
-0.484558	
-0.4823	
-0.478943	
-0.475403	
-0.474121	
-0.469482	
-0.467224	
-0.464417	
-0.463989	
-0.464539	
-0.464111	
-0.463806	
-0.466248	
-0.468323	
-0.470825	
-0.474487	
-0.476013	
-0.477722	
-0.47937	
-0.482788	
-0.483948	
-0.484436	
-0.483704	
-0.484192	
-0.481323	
-0.479431	
-0.477844	
-0.47345	
-0.470398	
-0.465271	
-0.463074	
-0.45874	
-0.456726	
-0.452454	
-0.450745	
-0.447449	
-0.44696	
-0.44635	
-0.443787	
-0.442688	
-0.441528	
-0.442139	
-0.440491	
-0.441406	
-0.439636	
-0.439819	
-0.437866	
-0.43689	
-0.436096	
-0.433533	
-0.431641	
-0.426758	
-0.423645	
-0.418823	
-0.415405	
-0.409668	
-0.404968	
-0.399475	
-0.394287	
-0.388977	
-0.382568	
-0.376709	
-0.370117	
-0.362732	
-0.354797	
-0.348083	
-0.339233	
-0.331726	
-0.32312	
-0.315552	
-0.307068	
-0.299866	
-0.291931	
-0.283386	
-0.275208	
-0.268738	
-0.261841	
-0.25708	
-0.252563	
-0.250671	
-0.250061	
-0.250061	
-0.250183	
-0.250549	
-0.25177	
-0.25238	
-0.255188	
-0.258179	
-0.260254	
-0.262878	
-0.266296	
-0.269592	
-0.274963	
-0.278564	
-0.284241	
-0.287537	
-0.294312	
-0.29834	
-0.303284	
-0.30835	
-0.314026	
-0.318176	
-0.323975	
-0.328857	
-0.332642	
-0.336487	
-0.3396	
-0.342773	
-0.346741	
-0.348328	
-0.349731	
-0.352112	
-0.353394	
-0.356445	
-0.356995	
-0.358643	
-0.358826	
-0.360657	
-0.361328	
-0.363708	
-0.36438	
-0.365479	
-0.36676	
-0.368774	
-0.37085	
-0.371826	
-0.372681	
-0.373413	
-0.376892	
-0.376953	
-0.379272	
-0.380371	
-0.38147	
-0.383484	
-0.385681	
-0.386169	
-0.38739	
-0.387878	
-0.388062	
-0.388855	
-0.389893	
-0.388977	
-0.388672	
-0.389526	
-0.388855	
-0.388428	
-0.387634	
-0.387024	
-0.384888	
-0.383972	
-0.383972	
-0.383545	
-0.382019	
-0.379211	
-0.378662	
-0.378357	
-0.376465	
-0.375366	
-0.374329	
-0.371765	
-0.369507	
-0.36853	
-0.368347	
-0.365906	
-0.364563	
-0.363831	
-0.364502	
-0.363464	
-0.362854	
-0.362976	
-0.362122	
-0.362061	
-0.361877	
-0.363098	
-0.362427	
-0.362671	
-0.363037	
-0.365723	
-0.366272	
-0.366882	
-0.368958	
-0.369751	
-0.371094	
-0.372375	
-0.375122	
-0.374817	
-0.375244	
-0.377136	
-0.379272	
-0.381165	
-0.381226	
-0.381592	
-0.382202	
-0.383667	
-0.382751	
-0.384583	
-0.384949	
-0.384766	
-0.384949	
-0.38678	
-0.386536	
-0.386841	
-0.385925	
-0.384827	
-0.385925	
-0.386536	
-0.386047	
-0.385132	
-0.384399	
-0.385193	
-0.384888	
-0.383789	
-0.383606	
-0.382751	
-0.382935	
-0.382141	
-0.382507	
-0.381409	
-0.379333	
-0.379517	
-0.380493	
-0.380615	
-0.380005	
-0.377869	
-0.377197	
-0.377625	
-0.377625	
-0.376099	
-0.375854	
-0.374878	
-0.375	
-0.374268	
-0.374146	
-0.374756	
-0.372559	
-0.373596	
-0.372803	
-0.373352	
-0.372864	
-0.37323	
-0.373413	
-0.373596	
-0.373962	
-0.374573	
-0.373047	
-0.374084	
-0.374634	
-0.375305	
-0.375671	
-0.375549	
-0.375305	
-0.374329	
-0.377136	
-0.377136	
-0.377563	
-0.377625	
-0.377869	
-0.377991	
-0.378723	
-0.380554	
-0.379883	
-0.380371	
-0.380798	
-0.382568	
-0.382996	
-0.384033	
-0.382019	
-0.38324	
-0.384033	
-0.384277	
-0.386597	
-0.385193	
-0.385376	
-0.385315	
-0.386475	
-0.386414	
-0.386841	
-0.385559	
-0.386414	
-0.386536	
-0.386658	
-0.387268	
-0.386047	
-0.386108	
-0.38623	
-0.386658	
-0.387085	
-0.387756	
-0.385742	
-0.386597	
-0.385742	
-0.386475	
-0.386902	
-0.387024	
-0.387329	
-0.387695	
-0.387451	
-0.388733	
-0.388062	
-0.387085	
-0.388062	
-0.388184	
-0.388916	
-0.388977	
-0.38855	
-0.387817	
-0.38739	
-0.386658	
-0.388977	
-0.387695	
-0.386902	
-0.387268	
-0.387329	
-0.387024	
-0.387634	
-0.387085	
-0.387024	
-0.387268	
-0.386475	
-0.388062	
-0.387329	
-0.387634	
-0.386414	
-0.38739	
-0.387024	
-0.388062	
-0.387024	
-0.386719	
-0.387085	
-0.386169	
-0.387756	
-0.386047	
-0.385803	
-0.385803	
-0.385681	
-0.38623	
-0.387085	
-0.385437	
-0.385315	
-0.385925	
-0.384705	
-0.385986	
-0.385498	
-0.385193	
-0.384888	
-0.38562	
-0.386108	
-0.386597	
-0.386658	
-0.386658	
-0.387024	
-0.387939	
-0.387756	
-0.386841	
-0.38678	
-0.386597	
-0.387634	
-0.388794	
-0.390137	
-0.389465	
-0.389099	
-0.388672	
-0.390686	
-0.390137	
-0.389343	
-0.390381	
-0.390442	
-0.392212	
-0.392273	
-0.392456	
-0.392456	
-0.392273	
-0.39209	
-0.393005	
-0.392456	
-0.393311	
-0.393677	
-0.392883	
-0.393127	
-0.393677	
-0.394409	
-0.393982	
-0.394409	
-0.394104	
-0.39386	
-0.393799	
-0.393311	
-0.39386	
-0.39325	
-0.393982	
-0.393921	
-0.39386	
-0.394226	
-0.393555	
-0.392822	
-0.392517	
-0.392517	
-0.391541	
-0.392639	
-0.392029	
-0.392334	
-0.392822	
-0.393005	
-0.392944	
-0.393127	
-0.392395	
-0.392639	
-0.393311	
-0.392883	
-0.393799	
-0.392822	
-0.394043	
-0.39447	
-0.394043	
-0.39447	
-0.394714	
-0.394287	
-0.392944	
-0.394653	
-0.394043	
-0.39447	
-0.393921	
-0.393799	
-0.395081	
-0.394592	
-0.395447	
-0.395203	
-0.394348	
-0.393677	
-0.394653	
-0.394409	
-0.394958	
-0.394897	
-0.39502	
-0.39563	
-0.395081	
-0.396301	
-0.395081	
-0.394958	
-0.394348	
-0.394287	
-0.395081	
-0.395569	
-0.395325	
-0.395996	
-0.397034	
-0.396423	
-0.397217	
-0.396179	
-0.396606	
-0.396179	
-0.396912	
-0.396973	
-0.396729	
-0.397339	
-0.396973	
-0.396729	
-0.39679	
-0.397339	
-0.396606	
-0.396851	
-0.395508	
-0.396362	
-0.39624	
-0.395386	
-0.395142	
-0.394531	
-0.39447	
-0.394409	
-0.395447	
-0.394836	
-0.39447	
-0.393799	
-0.394714	
-0.394775	
-0.394897	
-0.395264	
-0.39563	
-0.395569	
-0.396301	
-0.397217	
-0.396973	
-0.396423	
-0.394714	
-0.396118	
-0.397095	
-0.397095	
-0.397034	
-0.397217	
-0.397827	
-0.397278	
-0.397705	
-0.398682	
-0.397766	
-0.396301	
-0.397156	
-0.39801	
-0.397949	
-0.398315	
-0.397278	
-0.397705	
-0.398315	
-0.397827	
-0.398987	
-0.398132	
-0.396301	
-0.398132	
-0.39917	
-0.398376	
-0.398804	
-0.397217	
-0.397949	
-0.398071	
-0.398743	
-0.397583	
-0.396973	
-0.395935	
-0.396179	
-0.397522	
-0.397217	
-0.397034	
-0.396362	
-0.396423	
-0.396729	
-0.397583	
-0.397156	
-0.396118	
-0.394287	
-0.395996	
-0.396851	
-0.395996	
-0.396423	
-0.395691	
-0.395569	
-0.395569	
-0.396912	
-0.397156	
-0.39563	
-0.393738	
-0.395325	
-0.396912	
-0.396973	
-0.397644	
-0.396484	
-0.396606	
-0.397827	
-0.397949	
-0.397339	
-0.396545	
-0.39563	
-0.398438	
-0.39856	
-0.398193	
-0.39917	
-0.398071	
-0.397949	
-0.398804	
-0.399902	
-0.399658	
-0.398621	
-0.397583	
-0.399719	
-0.399414	
-0.400085	
-0.400085	
-0.399719	
-0.398682	
-0.399353	
-0.401001	
-0.400146	
-0.399719	
-0.398071	
-0.400085	
-0.398315	
-0.400085	
-0.399719	
-0.399353	
-0.398071	
-0.397949	
-0.399597	
-0.398376	
-0.398926	
-0.397034	
-0.398499	
-0.398071	
-0.399353	
-0.398865	
-0.398499	
-0.39801	
-0.398376	
-0.400024	
-0.399536	
-0.400085	
-0.398193	
-0.399048	
-0.398804	
-0.400452	
-0.399597	
-0.399597	
-0.399292	
-0.399109	
-0.400513	
-0.399353	
-0.399597	
-0.397095	
-0.399109	
-0.399048	
-0.399597	
-0.398743	
-0.398743	
-0.397888	
-0.398926	
-0.399658	
-0.398315	
-0.399414	
-0.397034	
-0.398499	
-0.397949	
-0.399292	
-0.397949	
-0.3974	
-0.3974	
-0.398376	
-0.398926	
-0.398193	
-0.398682	
-0.397217	
-0.397461	
-0.397705	
-0.397949	
-0.397278	
-0.396729	
-0.396362	
-0.395691	
-0.396057	
-0.395996	
-0.395386	
-0.394287	
-0.395386	
-0.395386	
-0.395081	
-0.395264	
-0.395386	
-0.39502	
-0.39386	
-0.395752	
-0.395325	
-0.395081	
-0.394592	
-0.394531	
-0.394531	
-0.393677	
-0.395447	
-0.394714	
-0.394409	
-0.395142	
-0.396545	
-0.396545	
-0.395935	
-0.395447	
-0.395264	
-0.395935	
-0.395935	
-0.3974	
-0.395996	
-0.395813	
-0.39563	
-0.39679	
-0.39679	
-0.396851	
-0.396118	
-0.396118	
-0.397339	
-0.396667	
-0.398132	
-0.397095	
-0.397522	
-0.396301	
-0.398376	
-0.398621	
-0.397217	
-0.396606	
-0.396912	
-0.397278	
-0.396667	
-0.398315	
-0.397278	
-0.39801	
-0.397095	
-0.398071	
-0.397888	
-0.396362	
-0.396423	
-0.3974	
-0.396667	
-0.395264	
-0.397217	
-0.396057	
-0.395386	
-0.395081	
-0.393982	
-0.395752	
-0.39447	
-0.394409	
-0.394104	
-0.394409	
-0.393616	
-0.394653	
-0.393982	
-0.39386	
-0.393127	
-0.3927	
-0.39447	
-0.393555	
-0.3927	
-0.393616	
-0.394043	
-0.392761	
-0.394348	
-0.394043	
-0.393799	
-0.393799	
-0.393616	
-0.393982	
-0.393738	
-0.393982	
-0.394043	
-0.394653	
-0.393494	
-0.395203	
-0.39502	
-0.394226	
-0.394714	
-0.394043	
-0.395264	
-0.394897	
-0.394653	
-0.394714	
-0.394409	
-0.393494	
-0.394287	
-0.394653	
-0.394165	
-0.394348	
-0.3927	
-0.394226	
-0.393982	
-0.394775	
-0.393738	
-0.393616	
-0.393372	
-0.393982	
-0.394348	
-0.393677	
-0.393616	
-0.392517	
-0.394104	
-0.393677	
-0.39386	
-0.393921	
-0.393127	
-0.392578	
-0.394165	
-0.394287	
-0.392944	
-0.393005	
-0.39209	
-0.393066	
-0.39325	
-0.394226	
-0.393127	
-0.392395	
-0.393188	
-0.392944	
-0.393799	
-0.392883	
-0.392822	
-0.391418	
-0.392151	
-0.392273	
-0.391968	
-0.391724	
-0.390564	
-0.391785	
-0.391541	
-0.392456	
-0.391357	
-0.391663	
-0.390747	
-0.391846	
-0.391907	
-0.391418	
-0.391418	
-0.390808	
-0.392273	
-0.392151	
-0.394348	
-0.393188	
-0.39325	
-0.393555	
-0.394165	
-0.395264	
-0.393738	
-0.394592	
-0.393616	
-0.394531	
-0.393677	
-0.39447	
-0.393982	
-0.394226	
-0.393677	
-0.39209	
-0.393677	
-0.392273	
-0.393066	
-0.392273	
-0.39209	
-0.391663	
-0.392517	
-0.391968	
-0.391907	
-0.392456	
-0.390198	
-0.391907	
-0.391235	
-0.391724	
-0.390686	
-0.390869	
-0.390442	
-0.390991	
-0.391357	
-0.390808	
-0.391235	
-0.389954	
-0.390564	
-0.390381	
-0.391357	
-0.390686	
-0.390686	
-0.390015	
-0.390442	
-0.390503	
-0.390198	
-0.391296	
-0.39032	
-0.391418	
-0.391724	
-0.392578	
-0.391846	
-0.392456	
-0.392334	
-0.392944	
-0.393677	
-0.392029	
-0.392517	
-0.392822	
-0.393372	
-0.393188	
-0.393677	
-0.393494	
-0.391968	
-0.39325	
-0.394226	
-0.395203	
-0.394104	
-0.394348	
-0.393799	
-0.393799	
-0.394287	
-0.393066	
-0.393311	
-0.393555	
-0.394043	
-0.39325	
-0.39325	
-0.392334	
-0.392456	
-0.392029	
-0.391846	
-0.392639	
-0.391418	
-0.391907	
-0.391113	
-0.391113	
-0.390808	
-0.391724	
-0.391602	
-0.391052	
-0.390808	
-0.390625	
-0.391907	
-0.39093	
-0.390564	
-0.389526	
-0.389221	
-0.389465	
-0.391296	
-0.389221	
-0.389343	
-0.389771	
-0.390076	
-0.390747	
-0.390137	
-0.390076	
-0.389709	
-0.390198	
-0.389709	
-0.391296	
-0.390503	
-0.390747	
-0.390198	
-0.391479	
-0.391418	
-0.391479	
-0.39093	
-0.390808	
-0.390869	
-0.390625	
-0.392151	
-0.390686	
-0.39032	
-0.389771	
-0.390747	
-0.39032	
-0.390381	
-0.389587	
-0.39032	
-0.389709	
-0.389465	
-0.390808	
-0.389282	
-0.389465	
-0.388062	
-0.390503	
-0.390198	
-0.390686	
-0.390564	
-0.390259	
-0.389099	
-0.389771	
-0.391724	
-0.390259	
-0.390686	
-0.389587	
-0.391357	
-0.390747	
-0.391357	
-0.391479	
-0.391052	
-0.389648	
-0.390991	
-0.392456	
-0.391296	
-0.391663	
-0.390686	
-0.391724	
-0.391418	
-0.391602	
-0.391174	
-0.391113	
-0.39032	
-0.391541	
-0.393005	
-0.391663	
-0.392456	
-0.392456	
-0.39325	
-0.394104	
-0.394714	
-0.394836	
-0.394165	
-0.393311	
-0.393494	
-0.39502	
-0.393738	
-0.393616	
-0.393677	
-0.394226	
-0.394287	
-0.394897	
-0.394653	
-0.393433	
-0.394104	
-0.394104	
-0.394836	
-0.394226	
-0.39502	
-0.394104	
-0.39325	
-0.394104	
-0.394775	
-0.394104	
-0.392212	
-0.3927	
-0.392578	
-0.393494	
-0.393127	
-0.392578	
-0.392334	
-0.391724	
-0.392883	
-0.393982	
-0.393311	
-0.390869	
-0.391724	
-0.391907	
-0.392029	
-0.392334	
-0.391968	
-0.391418	
-0.390747	
-0.392334	
-0.39209	
-0.392395	
-0.390137	
-0.391418	
-0.391296	
-0.391663	
-0.392761	
-0.391479	
-0.391174	
-0.391113	
-0.392944	
-0.393066	
-0.393188	
-0.391846	
-0.39209	
-0.391968	
-0.392944	
-0.394531	
-0.393127	
-0.393188	
-0.393188	
-0.395081	
-0.394104	
-0.394714	
-0.394165	
-0.394348	
-0.394653	
-0.395264	
-0.396362	
-0.39502	
-0.395203	
-0.394165	
-0.396179	
-0.396118	
-0.396667	
-0.395996	
-0.395752	
-0.395081	
-0.395874	
-0.397095	
-0.396057	
-0.395142	
-0.395081	
-0.39679	
-0.395935	
-0.396423	
-0.395142	
-0.394836	
-0.394287	
-0.395264	
-0.395935	
-0.394714	
-0.39447	
-0.394226	
-0.394897	
-0.39447	
-0.395081	
-0.394165	
-0.39386	
-0.393799	
-0.395081	
-0.396057	
-0.394348	
-0.394958	
-0.395386	
-0.39563	
-0.395691	
-0.396057	
-0.394897	
-0.395264	
-0.395081	
-0.395264	
-0.396057	
-0.395203	
-0.395813	
-0.395386	
-0.394653	
-0.395447	
-0.395508	
-0.395203	
-0.394897	
-0.394897	
-0.395569	
-0.395935	
-0.395935	
-0.395813	
-0.396118	
-0.395203	
-0.395935	
-0.396606	
-0.395386	
-0.395264	
-0.395264	
-0.395996	
-0.396423	
-0.396423	
-0.396118	
-0.396423	
-0.396179	
-0.397034	
-0.397827	
-0.396912	
-0.396057	
-0.396729	
-0.397644	
-0.397827	
-0.398254	
-0.397583	
-0.397217	
-0.397034	
-0.397827	
-0.398315	
-0.397034	
-0.396423	
-0.396606	
-0.397156	
-0.397583	
-0.397339	
-0.396484	
-0.39563	
-0.394592	
-0.395935	
-0.395325	
-0.394836	
-0.393982	
-0.393433	
-0.394592	
-0.395447	
-0.39563	
-0.395264	
-0.395447	
-0.39447	
-0.395325	
-0.396912	
-0.39624	
-0.396118	
-0.394958	
-0.396362	
-0.39679	
-0.397705	
-0.397583	
-0.397217	
-0.396362	
-0.397034	
-0.398438	
-0.3974	
-0.397705	
-0.396667	
-0.397888	
-0.398071	
-0.398315	
-0.398865	
-0.397461	
-0.397156	
-0.397766	
-0.399109	
-0.398193	
-0.398376	
-0.396729	
-0.397156	
-0.398987	
-0.399109	
-0.399048	
-0.398132	
-0.39679	
-0.397949	
-0.399231	
-0.397766	
-0.396545	
-0.395996	
-0.396118	
-0.39679	
-0.397095	
-0.397461	
-0.396301	
-0.395142	
-0.396729	
-0.398438	
-0.396606	
-0.39624	
-0.395447	
-0.394958	
-0.395874	
-0.395996	
-0.395508	
-0.396179	
-0.395447	
-0.395813	
-0.396912	
-0.396301	
-0.395874	
-0.395081	
-0.394897	
-0.395874	
-0.396851	
-0.397156	
-0.397278	
-0.39563	
-0.396545	
-0.397461	
-0.398254	
-0.397095	
-0.397217	
-0.396729	
-0.398254	
-0.39856	
-0.398376	
-0.39856	
-0.397644	
-0.398743	
-0.398254	
-0.399658	
-0.398743	
-0.399231	
-0.398743	
-0.399353	
-0.399597	
-0.399231	
-0.400269	
-0.398987	
-0.399475	
-0.399231	
-0.400818	
-0.400146	
-0.399475	
-0.399109	
-0.399719	
-0.40033	
-0.399597	
-0.400269	
-0.398499	
-0.39917	
-0.398438	
-0.398621	
-0.398193	
-0.39801	
-0.397522	
-0.397217	
-0.398804	
-0.398804	
-0.399353	
-0.3974	
-0.398315	
-0.398376	
-0.399109	
-0.398987	
-0.398315	
-0.397583	
-0.397339	
-0.399719	
-0.399536	
-0.399902	
-0.398376	
-0.399292	
-0.399109	
-0.39978	
-0.399536	
-0.398376	
-0.396912	
-0.397339	
-0.399902	
-0.398621	
-0.399048	
-0.39801	
-0.397766	
-0.397949	
-0.399109	
-0.399841	
-0.397827	
-0.396667	
-0.397461	
-0.398804	
-0.397522	
-0.398193	
-0.396851	
-0.3974	
-0.397583	
-0.398193	
-0.399536	
-0.397888	
-0.396667	
-0.397278	
-0.398193	
-0.397156	
-0.397034	
-0.396362	
-0.396057	
-0.395996	
-0.395691	
-0.396667	
-0.394836	
-0.394348	
-0.394775	
-0.395325	
-0.395081	
-0.395142	
-0.394775	
-0.394714	
-0.394775	
-0.394714	
-0.395447	
-0.39447	
-0.394226	
-0.394226	
-0.393616	
-0.394104	
-0.394348	
-0.394897	
-0.394287	
-0.395081	
-0.395752	
-0.395203	
-0.395996	
-0.395569	
-0.395752	
-0.394653	
-0.395691	
-0.395447	
-0.396362	
-0.39563	
-0.395996	
-0.396912	
-0.395935	
-0.397217	
-0.396545	
-0.39624	
-0.395813	
-0.397095	
-0.397034	
-0.396851	
-0.396057	
-0.397888	
-0.397888	
-0.396057	
-0.398193	
-0.396973	
-0.396912	
-0.396423	
-0.39801	
-0.397034	
-0.397156	
-0.397156	
-0.397339	
-0.397156	
-0.395569	
-0.3974	
-0.396484	
-0.397278	
-0.396057	
-0.396851	
-0.395691	
-0.395813	
-0.395813	
-0.394836	
-0.395142	
-0.394226	
-0.39563	
-0.393982	
-0.393555	
-0.393677	
-0.394287	
-0.393738	
-0.393433	
-0.394165	
-0.393311	
-0.394165	
-0.393311	
-0.393738	
-0.392883	
-0.393494	
-0.39325	
-0.392334	
-0.393311	
-0.393677	
-0.394043	
-0.392395	
-0.394104	
-0.393127	
-0.393677	
-0.393738	
-0.393555	
-0.39386	
-0.393616	
-0.394836	
-0.39447	
-0.394104	
-0.394165	
-0.395203	
-0.394592	
-0.394836	
-0.395142	
-0.394226	
-0.393188	
-0.393555	
-0.394897	
-0.394104	
-0.39386	
-0.393799	
-0.393982	
-0.393311	
-0.393799	
-0.394653	
-0.39325	
-0.393311	
-0.393066	
-0.39386	
-0.392944	
-0.393494	
-0.393677	
-0.394531	
-0.393799	
-0.392761	
-0.393616	
-0.393982	
-0.393127	
-0.391907	
-0.393494	
-0.393188	
-0.392517	
-0.393188	
-0.393066	
-0.392639	
-0.392578	
-0.393066	
-0.393005	
-0.392944	
-0.391846	
-0.3927	
-0.392517	
-0.392517	
-0.393005	
-0.391785	
-0.392395	
-0.391235	
-0.392212	
-0.391113	
-0.39093	
-0.390381	
-0.390808	
-0.391418	
-0.390991	
-0.391907	
-0.390442	
-0.391235	
-0.390564	
-0.391846	
-0.391602	
-0.391541	
-0.391052	
-0.391663	
-0.393005	
-0.3927	
-0.393921	
-0.39325	
-0.393616	
-0.393738	
-0.394653	
-0.39325	
-0.394287	
-0.393616	
-0.393005	
-0.394226	
-0.393372	
-0.394226	
-0.392822	
-0.393494	
-0.392395	
-0.392334	
-0.391418	
-0.3927	
-0.391907	
-0.39032	
-0.392273	
-0.391602	
-0.391479	
-0.390808	
-0.391235	
-0.390076	
-0.391296	
-0.390869	
-0.39032	
-0.39032	
-0.388672	
-0.390564	
-0.390198	
-0.391174	
-0.390198	
-0.390808	
-0.389709	
-0.389832	
-0.390869	
-0.389404	
-0.389709	
-0.388733	
-0.389465	
-0.390259	
-0.390747	
-0.390259	
-0.391296	
-0.390808	
-0.391235	
-0.391907	
-0.391296	
-0.391541	
-0.391174	
-0.391357	
-0.392151	
-0.392761	
-0.391968	
-0.392212	
-0.392395	
-0.392761	
-0.393799	
-0.393127	
-0.39325	
-0.393311	
-0.39325	
-0.393066	
-0.393372	
-0.392883	
-0.392395	
-0.393616	
-0.394226	
-0.394226	
-0.392456	
-0.392944	
-0.392639	
-0.391846	
-0.392273	
-0.391724	
-0.392212	
-0.391174	
-0.39209	
-0.390991	
-0.391418	
-0.391418	
-0.390991	
-0.390625	
-0.389954	
-0.390869	
-0.390686	
-0.390625	
-0.389709	
-0.390686	
-0.389099	
-0.390015	
-0.389954	
-0.389343	
-0.38916	
-0.389282	
-0.390076	
-0.389038	
-0.388855	
-0.388672	
-0.389465	
-0.387817	
-0.389709	
-0.389465	
-0.389099	
-0.389526	
-0.389343	
-0.390015	
-0.389832	
-0.390503	
-0.389893	
-0.390442	
-0.389587	
-0.390564	
-0.390991	
-0.390015	
-0.390564	
-0.38916	
-0.39032	
-0.390503	
-0.390625	
-0.390015	
-0.390015	
-0.389038	
-0.389648	
-0.389893	
-0.38855	
-0.389343	
-0.388733	
-0.388306	
-0.389099	
-0.389771	
-0.389099	
-0.389221	
-0.389099	
-0.389771	
-0.39032	
-0.389709	
-0.389465	
-0.388489	
-0.388916	
-0.390137	
-0.391235	
-0.389587	
-0.389038	
-0.390137	
-0.390076	
-0.390381	
-0.391113	
-0.390381	
-0.389404	
-0.390137	
-0.391235	
-0.391357	
-0.390747	
-0.389832	
-0.390564	
-0.390503	
-0.391174	
-0.391479	
-0.390442	
-0.389404	
-0.391235	
-0.392639	
-0.392273	
-0.39209	
-0.392578	
-0.392456	
-0.393372	
-0.393799	
-0.393433	
-0.39209	
-0.392151	
-0.393066	
-0.394287	
-0.394165	
-0.393555	
-0.393127	
-0.393311	
-0.394653	
-0.394409	
-0.393799	
-0.39325	
-0.392517	
-0.393921	
-0.39386	
-0.394165	
-0.39325	
-0.39325	
-0.393494	
-0.394409	
-0.393738	
-0.392761	
-0.391968	
-0.391846	
-0.392273	
-0.3927	
-0.392151	
-0.391846	
-0.391968	
-0.391785	
-0.392273	
-0.392761	
-0.391602	
-0.391174	
-0.39093	
-0.390747	
-0.391052	
-0.391357	
-0.391296	
-0.390442	
-0.390686	
-0.391235	
-0.391663	
-0.390686	
-0.390747	
-0.390625	
-0.390503	
-0.390808	
-0.391724	
-0.391052	
-0.391357	
-0.390503	
-0.391296	
-0.392334	
-0.391479	
-0.391418	
-0.391357	
-0.392151	
-0.391907	
-0.393311	
-0.393311	
-0.393494	
-0.392944	
-0.392578	
-0.394165	
-0.394104	
-0.394165	
-0.392639	
-0.393799	
-0.392395	
-0.395813	
-0.395813	
-0.394653	
-0.394104	
-0.394958	
-0.397095	
	
