E:\DOCUMENTS AND SETTINGS\JPOTAS\MEUS DOCUMENTOS\UFRJ\RSCI-BM 12 WK SERIES\070720-RSCI-BM-04\RSCI-BM-04-LEMG\070720-RSCI-BM-LEMG-0010.ACQ
0.025000 msec/sample
1 channel
Analog input
Volts
CH1	
2000	
-0.403259	
-0.403198	
-0.402344	
-0.402161	
-0.401978	
-0.402588	
-0.402283	
-0.402893	
-0.40271	
-0.401917	
-0.402588	
-0.403198	
-0.403198	
-0.402588	
-0.402222	
-0.402344	
-0.400818	
-0.401428	
-0.400757	
-0.400024	
-0.398132	
-0.398621	
-0.399231	
-0.398621	
-0.397766	
-0.397034	
-0.396667	
-0.396057	
-0.397522	
-0.396851	
-0.397034	
-0.395935	
-0.396423	
-0.3974	
-0.397583	
-0.396179	
-0.395508	
-0.395569	
-0.394775	
-0.397034	
-0.395935	
-0.395081	
-0.395325	
-0.395935	
-0.396606	
-0.396729	
-0.396057	
-0.395386	
-0.395813	
-0.395508	
-0.397339	
-0.396118	
-0.395996	
-0.396301	
-0.396484	
-0.397095	
-0.398376	
-0.398193	
-0.396973	
-0.39679	
-0.397095	
-0.398804	
-0.398132	
-0.396851	
-0.398193	
-0.398315	
-0.39856	
-0.398926	
-0.39917	
-0.398926	
-0.397888	
-0.398743	
-0.399414	
-0.399231	
-0.397766	
-0.399109	
-0.399597	
-0.399414	
-0.400513	
-0.399963	
-0.39917	
-0.398926	
-0.398926	
-0.399658	
-0.39917	
-0.398376	
-0.398865	
-0.398132	
-0.398193	
-0.399292	
-0.398132	
-0.397827	
-0.397339	
-0.39679	
-0.397644	
-0.397034	
-0.396667	
-0.396973	
-0.395569	
-0.396912	
-0.3974	
-0.395935	
-0.395508	
-0.395569	
-0.395386	
-0.395325	
-0.395264	
-0.394531	
-0.394592	
-0.393799	
-0.395081	
-0.395264	
-0.394897	
-0.394836	
-0.394104	
-0.393799	
-0.394836	
-0.394775	
-0.394409	
-0.394226	
-0.394043	
-0.394531	
-0.39502	
-0.395081	
-0.394348	
-0.394043	
-0.391724	
-0.394531	
-0.39502	
-0.394226	
-0.394226	
-0.393555	
-0.394592	
-0.395386	
-0.39624	
-0.395691	
-0.395569	
-0.393311	
-0.396301	
-0.3974	
-0.3974	
-0.398193	
-0.399048	
-0.399353	
-0.400269	
-0.402039	
-0.400146	
-0.400452	
-0.399048	
-0.40033	
-0.401367	
-0.400513	
-0.400574	
-0.400269	
-0.399841	
-0.400696	
-0.402588	
-0.400085	
-0.39978	
-0.399048	
-0.400024	
-0.400391	
-0.399048	
-0.399292	
-0.398743	
-0.398438	
-0.399841	
-0.39978	
-0.397644	
-0.397217	
-0.396118	
-0.396057	
-0.396057	
-0.395264	
-0.394409	
-0.394653	
-0.394897	
-0.394226	
-0.394836	
-0.394043	
-0.393738	
-0.393066	
-0.393311	
-0.393616	
-0.393738	
-0.393127	
-0.392578	
-0.392578	
-0.393188	
-0.39386	
-0.393127	
-0.3927	
-0.391785	
-0.391663	
-0.393066	
-0.393005	
-0.393372	
-0.36676	
-0.370667	
-0.376343	
-0.378723	
-0.379272	
-0.379456	
-0.4104	
-0.400391	
-0.3974	
-0.396423	
-0.395569	
-0.396057	
-0.395691	
-0.396484	
-0.395386	
-0.397156	
-0.395691	
-0.395691	
-0.395325	
-0.396667	
-0.396301	
-0.395386	
-0.396423	
-0.395508	
-0.396851	
-0.397217	
-0.399109	
-0.396545	
-0.39563	
-0.397034	
-0.397583	
-0.397339	
-0.395447	
-0.39679	
-0.396057	
-0.397705	
-0.398193	
-0.398865	
-0.397522	
-0.396912	
-0.396851	
-0.396973	
-0.397705	
-0.396118	
-0.396667	
-0.39502	
-0.395386	
-0.396179	
-0.396484	
-0.394897	
-0.394409	
-0.393921	
-0.394592	
-0.395996	
-0.395935	
-0.397949	
-0.398132	
-0.4021	
-0.406006	
-0.411194	
-0.414307	
-0.419373	
-0.42334	
-0.428894	
-0.433167	
-0.438843	
-0.444275	
-0.450745	
-0.458313	
-0.466919	
-0.474915	
-0.480591	
-0.460022	
-0.467285	
-0.479492	
-0.484497	
-0.489197	
-0.492004	
-0.52478	
-0.51709	
-0.51239	
-0.510193	
-0.509827	
-0.508789	
-0.506226	
-0.506165	
-0.503418	
-0.502991	
-0.500854	
-0.498596	
-0.496582	
-0.494934	
-0.491638	
-0.488098	
-0.485535	
-0.482422	
-0.481873	
-0.478699	
-0.478821	
-0.478455	
-0.479553	
-0.480652	
-0.482056	
-0.482849	
-0.484131	
-0.487	
-0.488708	
-0.491821	
-0.491516	
-0.49353	
-0.493286	
-0.494141	
-0.493225	
-0.491516	
-0.488647	
-0.485291	
-0.481934	
-0.477783	
-0.474304	
-0.468628	
-0.465515	
-0.461609	
-0.458496	
-0.455688	
-0.453247	
-0.449402	
-0.447021	
-0.44458	
-0.443115	
-0.442627	
-0.439514	
-0.439209	
-0.437439	
-0.437317	
-0.437195	
-0.436523	
-0.43396	
-0.432251	
-0.431519	
-0.429565	
-0.428101	
-0.424683	
-0.422729	
-0.419861	
-0.417908	
-0.41571	
-0.413147	
-0.410095	
-0.406616	
-0.403748	
-0.399536	
-0.39679	
-0.391968	
-0.388306	
-0.383179	
-0.379272	
-0.37439	
-0.370056	
-0.364258	
-0.357544	
-0.351135	
-0.345215	
-0.342529	
-0.336365	
-0.331787	
-0.327515	
-0.32428	
-0.322388	
-0.320801	
-0.319519	
-0.318481	
-0.319641	
-0.317627	
-0.320007	
-0.319641	
-0.320374	
-0.321106	
-0.322205	
-0.324036	
-0.325134	
-0.32666	
-0.330872	
-0.335083	
-0.337769	
-0.34314	
-0.346069	
-0.352112	
-0.355713	
-0.360901	
-0.365295	
-0.370789	
-0.37384	
-0.377869	
-0.38147	
-0.385864	
-0.389282	
-0.391235	
-0.393433	
-0.395569	
-0.398315	
-0.399536	
-0.402039	
-0.402466	
-0.404053	
-0.403015	
-0.404724	
-0.403625	
-0.403931	
-0.403809	
-0.403931	
-0.404968	
-0.405029	
-0.406433	
-0.406067	
-0.407715	
-0.407471	
-0.408875	
-0.407227	
-0.407959	
-0.408264	
-0.408386	
-0.408203	
-0.40741	
-0.406799	
-0.404724	
-0.403748	
-0.401062	
-0.39917	
-0.394775	
-0.392639	
-0.388	
-0.384399	
-0.380493	
-0.375427	
-0.370178	
-0.363525	
-0.359131	
-0.352844	
-0.347717	
-0.339294	
-0.33374	
-0.326782	
-0.320496	
-0.314026	
-0.307739	
-0.301208	
-0.294189	
-0.290771	
-0.28656	
-0.282288	
-0.277771	
-0.276123	
-0.27301	
-0.271118	
-0.269165	
-0.268921	
-0.268066	
-0.267334	
-0.267273	
-0.267273	
-0.268555	
-0.269043	
-0.270935	
-0.270813	
-0.274109	
-0.275635	
-0.277771	
-0.279053	
-0.282471	
-0.284546	
-0.286621	
-0.289063	
-0.29303	
-0.295593	
-0.298706	
-0.301208	
-0.30426	
-0.30542	
-0.308655	
-0.310181	
-0.313293	
-0.315491	
-0.318665	
-0.320679	
-0.323059	
-0.326111	
-0.328552	
-0.330933	
-0.33374	
-0.335876	
-0.338562	
-0.339722	
-0.342041	
-0.344238	
-0.346619	
-0.348877	
-0.349915	
-0.352844	
-0.352905	
-0.355713	
-0.356323	
-0.357971	
-0.360046	
-0.361145	
-0.362854	
-0.364319	
-0.365601	
-0.366943	
-0.368408	
-0.369263	
-0.370361	
-0.369995	
-0.371582	
-0.372192	
-0.373108	
-0.374207	
-0.374634	
-0.375	
-0.375671	
-0.375916	
-0.377441	
-0.376892	
-0.376221	
-0.37677	
-0.377136	
-0.377075	
-0.37738	
-0.375916	
-0.37738	
-0.377441	
-0.375488	
-0.377258	
-0.376343	
-0.376038	
-0.375793	
-0.375977	
-0.375671	
-0.376221	
-0.375122	
-0.375793	
-0.375305	
-0.375427	
-0.376953	
-0.375183	
-0.37439	
-0.375305	
-0.375366	
-0.375244	
-0.376099	
-0.375244	
-0.375793	
-0.375977	
-0.37616	
-0.377625	
-0.376709	
-0.37677	
-0.377625	
-0.37677	
-0.377197	
-0.377502	
-0.377869	
-0.378235	
-0.378662	
-0.378845	
-0.380737	
-0.380005	
-0.380432	
-0.379211	
-0.380981	
-0.381775	
-0.382935	
-0.382263	
-0.382813	
-0.382263	
-0.383179	
-0.38385	
-0.384338	
-0.384949	
-0.385071	
-0.385742	
-0.385315	
-0.386536	
-0.386719	
-0.387146	
-0.387817	
-0.389465	
-0.387024	
-0.388672	
-0.387329	
-0.388611	
-0.388489	
-0.389771	
-0.389526	
-0.389954	
-0.38855	
-0.391602	
-0.390198	
-0.390869	
-0.390503	
-0.39093	
-0.390747	
-0.390991	
-0.391113	
-0.39093	
-0.391602	
-0.391968	
-0.392151	
-0.39032	
-0.391113	
-0.390198	
-0.39032	
-0.389343	
-0.391174	
-0.390015	
-0.390381	
-0.388245	
-0.389648	
-0.389099	
-0.390076	
-0.388184	
-0.388733	
-0.388489	
-0.388672	
-0.38739	
-0.387146	
-0.387024	
-0.387329	
-0.387085	
-0.386292	
-0.385742	
-0.38501	
-0.385437	
-0.38562	
-0.386108	
-0.385498	
-0.386536	
-0.385071	
-0.386108	
-0.385742	
-0.386597	
-0.386353	
-0.385498	
-0.386475	
-0.38739	
-0.387268	
-0.38739	
-0.387451	
-0.388428	
-0.388184	
-0.388306	
-0.388733	
-0.389099	
-0.38916	
-0.388916	
-0.390686	
-0.390381	
-0.391113	
-0.390564	
-0.391602	
-0.391602	
-0.3927	
-0.391663	
-0.393311	
-0.394348	
-0.395203	
-0.395874	
-0.396057	
-0.395691	
-0.395935	
-0.396484	
-0.3974	
-0.397766	
-0.3974	
-0.397217	
-0.397522	
-0.398743	
-0.398438	
-0.399109	
-0.398682	
-0.398926	
-0.397827	
-0.399719	
-0.399597	
-0.398438	
-0.398071	
-0.397827	
-0.398315	
-0.397583	
-0.3974	
-0.39563	
-0.396545	
-0.394409	
-0.39563	
-0.394653	
-0.394104	
-0.393311	
-0.393311	
-0.39447	
-0.394653	
-0.394104	
-0.393738	
-0.39386	
-0.394165	
-0.394165	
-0.392517	
-0.393616	
-0.392212	
-0.393616	
-0.394226	
-0.394775	
-0.392761	
-0.393921	
-0.393311	
-0.394043	
-0.393677	
-0.393799	
-0.393921	
-0.394104	
-0.394775	
-0.394226	
-0.39447	
-0.393738	
-0.395996	
-0.395142	
-0.395691	
-0.395996	
-0.395386	
-0.39502	
-0.396179	
-0.396667	
-0.397461	
-0.396851	
-0.396851	
-0.396423	
-0.396667	
-0.3974	
-0.39679	
-0.397156	
-0.396851	
-0.396606	
-0.397461	
-0.397888	
-0.396606	
-0.397278	
-0.396912	
-0.398193	
-0.398193	
-0.397949	
-0.398071	
-0.397522	
-0.396851	
-0.398193	
-0.397339	
-0.397522	
-0.398315	
-0.398071	
-0.397644	
-0.396912	
-0.396423	
-0.396484	
-0.396423	
-0.395813	
-0.396057	
-0.395508	
-0.396057	
-0.395691	
-0.395264	
-0.395874	
-0.394531	
-0.394836	
-0.394348	
-0.394592	
-0.395081	
-0.395386	
-0.393799	
-0.394775	
-0.393799	
-0.393494	
-0.394043	
-0.393311	
-0.39325	
-0.393494	
-0.393982	
-0.39386	
-0.394165	
-0.393921	
-0.393921	
-0.393677	
-0.393921	
-0.393982	
-0.393555	
-0.393433	
-0.394165	
-0.393005	
-0.392639	
-0.393311	
-0.393555	
-0.393738	
-0.393433	
-0.394104	
-0.393311	
-0.394104	
-0.39447	
-0.394348	
-0.393921	
-0.394043	
-0.393738	
-0.395142	
-0.396179	
-0.395813	
-0.39679	
-0.3974	
-0.39801	
-0.398254	
-0.398438	
-0.398804	
-0.398499	
-0.399841	
-0.399536	
-0.400452	
-0.399292	
-0.399597	
-0.399536	
-0.398804	
-0.400513	
-0.39917	
-0.398499	
-0.397339	
-0.399292	
-0.399292	
-0.39978	
-0.398865	
-0.397461	
-0.397339	
-0.397949	
-0.398926	
-0.396545	
-0.395874	
-0.395264	
-0.396301	
-0.39563	
-0.396179	
-0.394592	
-0.393127	
-0.393188	
-0.393982	
-0.39447	
-0.392944	
-0.393066	
-0.392273	
-0.39325	
-0.393311	
-0.392578	
-0.392212	
-0.391357	
-0.392944	
-0.392273	
-0.393555	
-0.391785	
-0.391968	
-0.390808	
-0.392273	
-0.392517	
-0.392029	
-0.391968	
-0.390381	
-0.393005	
-0.392395	
-0.394104	
-0.392456	
-0.392639	
-0.392456	
-0.394043	
-0.395081	
-0.394287	
-0.393738	
-0.392761	
-0.395203	
-0.394775	
-0.394958	
-0.393677	
-0.39502	
-0.395447	
-0.395813	
-0.396729	
-0.395935	
-0.395935	
-0.394104	
-0.396667	
-0.396667	
-0.395996	
-0.395813	
-0.396362	
-0.396729	
-0.396545	
-0.397156	
-0.396667	
-0.396973	
-0.395203	
-0.397156	
-0.398071	
-0.397339	
-0.396729	
-0.396667	
-0.396423	
-0.396362	
-0.397217	
-0.396362	
-0.396423	
-0.395447	
-0.395874	
-0.39563	
-0.395203	
-0.395264	
-0.394897	
-0.394836	
-0.394226	
-0.395203	
-0.394836	
-0.394653	
-0.394287	
-0.395142	
-0.395325	
-0.393982	
-0.394775	
-0.394775	
-0.394287	
-0.394043	
-0.394775	
-0.394165	
-0.393005	
-0.393616	
-0.394287	
-0.393738	
-0.393738	
-0.39447	
-0.393677	
-0.393677	
-0.392517	
-0.394104	
-0.393311	
-0.392456	
-0.393188	
-0.393982	
-0.393982	
-0.393372	
-0.394531	
-0.393616	
-0.394104	
-0.393982	
-0.394653	
-0.394165	
-0.394165	
-0.39386	
-0.394592	
-0.39563	
-0.39563	
-0.396851	
-0.39679	
-0.397888	
-0.397644	
-0.398621	
-0.398132	
-0.398438	
-0.398376	
-0.398438	
-0.398804	
-0.398987	
-0.39917	
-0.398743	
-0.39978	
-0.398987	
-0.398743	
-0.398499	
-0.398682	
-0.398376	
-0.398438	
-0.398254	
-0.398132	
-0.398193	
-0.397339	
-0.398499	
-0.39679	
-0.396851	
-0.395996	
-0.396179	
-0.395996	
-0.395874	
-0.395508	
-0.39447	
-0.395264	
-0.394348	
-0.394348	
-0.393494	
-0.392639	
-0.391418	
-0.391663	
-0.390869	
-0.39093	
-0.390625	
-0.389221	
-0.390869	
-0.390076	
-0.389832	
-0.389587	
-0.388733	
-0.388672	
-0.389221	
-0.388123	
-0.388794	
-0.389587	
-0.387634	
-0.389221	
-0.389893	
-0.389099	
-0.389832	
-0.389709	
-0.390076	
-0.390503	
-0.390503	
-0.391052	
-0.391052	
-0.392029	
-0.393127	
-0.394348	
-0.393799	
-0.393494	
-0.394165	
-0.394165	
-0.394775	
-0.394348	
-0.394531	
-0.39502	
-0.395203	
-0.395264	
-0.395569	
-0.395447	
-0.395874	
-0.395813	
-0.395569	
-0.396301	
-0.395142	
-0.395935	
-0.395752	
-0.395447	
-0.39563	
-0.396729	
-0.395935	
-0.396118	
-0.395569	
-0.39447	
-0.396179	
-0.395996	
-0.396057	
-0.395081	
-0.394897	
-0.395325	
-0.396362	
-0.395813	
-0.394775	
-0.394226	
-0.39386	
-0.394104	
-0.393127	
-0.393616	
-0.393677	
-0.393677	
-0.393921	
-0.393921	
-0.393066	
-0.392578	
-0.393188	
-0.392273	
-0.3927	
-0.391968	
-0.392578	
-0.393311	
-0.392456	
-0.392395	
-0.393188	
-0.393372	
-0.392761	
-0.392517	
-0.392212	
-0.39325	
-0.3927	
-0.392578	
-0.393616	
-0.392456	
-0.392883	
-0.393799	
-0.394409	
-0.394043	
-0.393311	
-0.393738	
-0.39447	
-0.394348	
-0.394592	
-0.395691	
-0.394897	
-0.394653	
-0.395752	
-0.395752	
-0.395447	
-0.395325	
-0.395447	
-0.395447	
-0.395935	
-0.395752	
-0.397461	
-0.396912	
-0.397217	
-0.397095	
-0.397949	
-0.397034	
-0.396484	
-0.396423	
-0.397461	
-0.396729	
-0.396423	
-0.397583	
-0.397217	
-0.397461	
-0.397827	
-0.398254	
-0.397644	
-0.397766	
-0.396973	
-0.397095	
-0.396667	
-0.396362	
-0.397949	
-0.397217	
-0.397583	
-0.396912	
-0.397888	
-0.397095	
-0.39679	
-0.396484	
-0.396423	
-0.395203	
-0.394958	
-0.395691	
-0.39447	
-0.393921	
-0.392578	
-0.393188	
-0.392212	
-0.391968	
-0.390808	
-0.391113	
-0.390991	
-0.390503	
-0.391785	
-0.391357	
-0.391174	
-0.390747	
-0.392151	
-0.391235	
-0.390991	
-0.390686	
-0.391785	
-0.391357	
-0.391052	
-0.3927	
-0.392334	
-0.392883	
-0.392639	
-0.393677	
-0.393616	
-0.393982	
-0.393677	
-0.394287	
-0.394226	
-0.394348	
-0.397095	
-0.396362	
-0.396729	
-0.396973	
-0.398193	
-0.397339	
-0.397644	
-0.396851	
-0.397583	
-0.397827	
-0.397095	
-0.399353	
-0.398743	
-0.398804	
-0.398132	
-0.399414	
-0.399414	
-0.399414	
-0.398865	
-0.399231	
-0.398499	
-0.398254	
-0.400391	
-0.399231	
-0.399414	
-0.398499	
-0.399475	
-0.398193	
-0.399414	
-0.398987	
-0.398071	
-0.397156	
-0.397034	
-0.39856	
-0.397644	
-0.397888	
-0.396973	
-0.397156	
-0.396606	
-0.396729	
-0.395386	
-0.395569	
-0.394958	
-0.395691	
-0.395996	
-0.395203	
-0.395935	
-0.395203	
-0.395264	
-0.394287	
-0.39563	
-0.394836	
-0.394653	
-0.394287	
-0.394348	
-0.394836	
-0.394348	
-0.39502	
-0.394348	
-0.395081	
-0.394958	
-0.395508	
-0.395325	
-0.395203	
-0.393799	
-0.394836	
-0.396606	
-0.395264	
-0.396606	
-0.396118	
-0.39624	
-0.39563	
-0.39679	
-0.396301	
-0.396484	
-0.396118	
-0.397278	
-0.397583	
-0.396606	
-0.397095	
-0.396606	
-0.397461	
-0.396545	
-0.396362	
-0.396851	
-0.397522	
-0.396851	
-0.397217	
-0.397644	
-0.397156	
-0.398193	
-0.397522	
-0.398315	
-0.397766	
-0.39801	
-0.397583	
-0.397949	
-0.398193	
-0.397766	
-0.398804	
-0.397827	
-0.399048	
-0.397949	
-0.398254	
-0.39856	
-0.397766	
-0.396912	
-0.397461	
-0.397522	
-0.397522	
-0.398193	
-0.397766	
-0.398254	
-0.396301	
-0.39624	
-0.396362	
-0.394897	
-0.393799	
-0.394043	
-0.394226	
-0.392944	
-0.393616	
-0.393005	
-0.393616	
-0.392578	
-0.3927	
-0.393677	
-0.392761	
-0.3927	
-0.392883	
-0.392883	
-0.3927	
-0.393616	
-0.39325	
-0.393616	
-0.393005	
-0.394043	
-0.394104	
-0.393738	
-0.393127	
-0.393738	
-0.394348	
-0.394653	
-0.39624	
-0.395264	
-0.39563	
-0.39563	
-0.396973	
-0.3974	
-0.397095	
-0.397034	
-0.397217	
-0.398376	
-0.399048	
-0.399292	
-0.400269	
-0.401123	
-0.40033	
-0.402283	
-0.402039	
-0.40155	
-0.401672	
-0.401672	
-0.402344	
-0.402893	
-0.402954	
-0.40332	
-0.40332	
-0.402161	
-0.403992	
-0.403625	
-0.401428	
-0.40271	
-0.40155	
-0.402283	
-0.402588	
-0.402405	
-0.401794	
-0.401367	
-0.400452	
-0.400513	
-0.399902	
-0.397949	
-0.398071	
-0.396973	
-0.397278	
-0.39679	
-0.397339	
-0.396484	
-0.397278	
-0.396912	
-0.396545	
-0.396851	
-0.395813	
-0.396118	
-0.39502	
-0.396057	
-0.395996	
-0.396606	
-0.396118	
-0.395569	
-0.395752	
-0.396362	
-0.396301	
-0.394775	
-0.395569	
-0.394714	
-0.395935	
-0.395447	
-0.396057	
-0.396118	
-0.395996	
-0.396118	
-0.397095	
-0.396851	
-0.395996	
-0.396729	
-0.395325	
-0.396851	
-0.397705	
-0.39801	
-0.397583	
-0.397888	
-0.397583	
-0.398193	
-0.398315	
-0.398254	
-0.398499	
-0.397095	
-0.398376	
-0.398438	
-0.39917	
-0.39917	
-0.398315	
-0.399597	
-0.399414	
-0.399902	
-0.398865	
-0.399231	
-0.3974	
-0.399475	
-0.399719	
-0.399048	
-0.398865	
-0.398865	
-0.399597	
-0.399719	
-0.39978	
-0.39801	
-0.397827	
-0.396729	
-0.397949	
-0.397583	
-0.397034	
-0.396851	
-0.39679	
-0.397522	
-0.397156	
-0.397827	
-0.396423	
-0.396362	
-0.394836	
-0.395996	
-0.396423	
-0.395569	
-0.395325	
-0.394958	
-0.395264	
-0.394836	
-0.395142	
-0.394104	
-0.394409	
-0.393738	
-0.394897	
-0.39502	
-0.394104	
-0.394592	
-0.393921	
-0.394348	
-0.395142	
-0.395142	
-0.393738	
-0.393921	
-0.39386	
-0.394165	
-0.394653	
-0.394043	
-0.393921	
-0.393311	
-0.39447	
-0.394409	
-0.394714	
-0.394043	
-0.393494	
-0.393799	
-0.394836	
-0.395203	
-0.394592	
-0.39563	
-0.394714	
-0.396606	
-0.397705	
-0.398376	
-0.397949	
-0.397766	
-0.398865	
-0.399719	
-0.399719	
-0.398499	
-0.399963	
-0.398743	
-0.400391	
-0.401733	
-0.401184	
-0.400085	
-0.399414	
-0.400085	
-0.399719	
-0.400208	
-0.39917	
-0.399231	
-0.398376	
-0.399658	
-0.399963	
-0.398926	
-0.398376	
-0.397583	
-0.398193	
-0.397888	
-0.397461	
-0.396423	
-0.396667	
-0.39624	
-0.395752	
-0.396729	
-0.395447	
-0.394836	
-0.393311	
-0.393799	
-0.394348	
-0.393616	
-0.393188	
-0.392883	
-0.393005	
-0.3927	
-0.394775	
-0.39447	
-0.392578	
-0.391663	
-0.392578	
-0.392761	
-0.392395	
-0.392151	
-0.392334	
-0.392334	
-0.391968	
-0.393799	
-0.393127	
-0.393005	
-0.392639	
-0.394226	
-0.393616	
-0.393494	
-0.393433	
-0.393677	
-0.393921	
-0.393921	
-0.395874	
-0.395386	
-0.39502	
-0.394653	
-0.395691	
-0.395874	
-0.395874	
-0.394958	
-0.39502	
-0.394897	
-0.396362	
-0.398254	
-0.396851	
-0.396057	
-0.395996	
-0.397522	
-0.397095	
-0.396667	
-0.395935	
-0.396851	
-0.396484	
-0.397278	
-0.398926	
-0.398315	
-0.396606	
-0.396667	
-0.397888	
-0.396851	
-0.397156	
-0.396484	
-0.396729	
-0.396057	
-0.396301	
-0.397095	
-0.397217	
-0.396179	
-0.394531	
-0.396179	
-0.39563	
-0.395752	
-0.394531	
-0.394714	
-0.394653	
-0.394592	
-0.395874	
-0.396423	
-0.394531	
-0.392639	
-0.394897	
-0.394531	
-0.395569	
-0.394043	
-0.394348	
-0.393982	
-0.394836	
-0.395264	
-0.394287	
-0.393494	
-0.392761	
-0.394287	
-0.393311	
-0.393738	
-0.393494	
-0.393433	
-0.392883	
-0.393555	
-0.39386	
-0.394592	
-0.393372	
-0.393494	
-0.392883	
-0.393311	
-0.394165	
-0.393921	
-0.393616	
-0.393799	
-0.394348	
-0.394409	
-0.395081	
-0.395447	
-0.394958	
-0.396179	
-0.396484	
-0.396912	
-0.39679	
-0.397522	
-0.397461	
-0.398132	
-0.398804	
-0.399109	
-0.397949	
-0.39856	
-0.398926	
-0.398865	
-0.398987	
-0.398071	
-0.39856	
-0.398315	
-0.398621	
-0.398376	
-0.399292	
-0.398499	
-0.397827	
-0.397766	
-0.397705	
-0.397766	
-0.396973	
-0.397156	
-0.396667	
-0.396606	
-0.396118	
-0.397339	
-0.394836	
-0.394714	
-0.394653	
-0.394165	
-0.394043	
-0.393066	
-0.393127	
-0.392883	
-0.391541	
-0.391296	
-0.391541	
-0.390198	
-0.390137	
-0.390686	
-0.389587	
-0.389099	
-0.388611	
-0.388855	
-0.388489	
-0.388123	
-0.388855	
-0.389709	
-0.388184	
-0.38916	
-0.38916	
-0.388428	
-0.38916	
-0.388611	
-0.388916	
-0.389099	
-0.388855	
-0.389465	
-0.390625	
-0.390747	
-0.391235	
-0.392151	
-0.392456	
-0.393311	
-0.392822	
-0.393921	
-0.394165	
-0.393494	
-0.393982	
-0.394226	
-0.393616	
-0.394409	
-0.395081	
-0.39325	
-0.394897	
-0.394104	
-0.394958	
-0.394897	
-0.394165	
-0.395691	
-0.395813	
-0.396118	
-0.395508	
-0.395325	
-0.394104	
-0.395691	
-0.394836	
-0.395203	
-0.395081	
-0.394226	
-0.395508	
-0.395386	
-0.395874	
-0.394897	
-0.39502	
-0.393982	
-0.395203	
-0.395264	
-0.394043	
-0.393738	
-0.392944	
-0.394287	
-0.394043	
-0.394043	
-0.392151	
-0.392822	
-0.39093	
-0.392029	
-0.393066	
-0.393066	
-0.392334	
-0.391418	
-0.393005	
-0.3927	
-0.393311	
-0.391602	
-0.391907	
-0.391235	
-0.392517	
-0.39325	
-0.392944	
-0.392334	
-0.391357	
-0.393127	
-0.392395	
-0.392883	
-0.391418	
-0.3927	
-0.391968	
-0.393066	
-0.393677	
-0.393188	
-0.39386	
-0.393311	
-0.394775	
-0.394348	
-0.395691	
-0.394287	
-0.39386	
-0.393799	
-0.394836	
-0.394836	
-0.395264	
-0.395569	
-0.394836	
-0.396179	
-0.396301	
-0.397156	
-0.396606	
-0.396729	
-0.395264	
-0.39624	
-0.396973	
-0.396423	
-0.396729	
-0.395996	
-0.397583	
-0.396973	
-0.397888	
-0.396545	
-0.396545	
-0.39563	
-0.395813	
-0.397339	
-0.396667	
-0.396973	
-0.39624	
-0.397644	
-0.396912	
-0.398254	
-0.3974	
-0.397644	
-0.396545	
-0.395569	
-0.396667	
-0.396179	
-0.395935	
-0.395142	
-0.396057	
-0.395752	
-0.396057	
-0.394287	
-0.393677	
-0.392517	
-0.391479	
-0.392151	
-0.392151	
-0.391541	
-0.390625	
-0.391479	
-0.391479	
-0.391846	
-0.390747	
-0.389587	
-0.390015	
-0.390259	
-0.392029	
-0.391174	
-0.390991	
-0.390686	
-0.391846	
-0.391907	
-0.392212	
-0.392639	
-0.390686	
-0.391357	
-0.391663	
-0.393494	
-0.393311	
-0.393555	
-0.392822	
-0.394165	
-0.395203	
-0.39563	
-0.396118	
-0.39447	
-0.395142	
-0.396301	
-0.397888	
-0.397583	
-0.39679	
-0.39679	
-0.398254	
-0.398132	
-0.397461	
-0.398682	
-0.396423	
-0.397949	
-0.398438	
-0.399231	
-0.39917	
-0.398132	
-0.398315	
-0.398926	
-0.399292	
-0.399353	
-0.399414	
-0.397095	
-0.398438	
-0.397766	
-0.398621	
-0.398621	
-0.398193	
-0.397766	
-0.397827	
-0.39917	
-0.398315	
-0.397522	
-0.39563	
-0.396912	
-0.396179	
-0.396362	
-0.396362	
-0.395935	
-0.395264	
-0.395996	
-0.39679	
-0.395569	
-0.395264	
-0.394165	
-0.394958	
-0.394775	
-0.394897	
-0.393921	
-0.394592	
-0.394409	
-0.394226	
-0.395203	
-0.394714	
-0.39447	
-0.393799	
-0.394287	
-0.394897	
-0.393433	
-0.394226	
-0.394958	
-0.394775	
-0.39447	
-0.39624	
-0.396057	
-0.395386	
-0.394653	
-0.395508	
-0.395264	
-0.39563	
-0.396423	
-0.396484	
-0.395996	
-0.396118	
-0.397705	
-0.397095	
-0.396423	
-0.395874	
-0.396179	
-0.39679	
-0.396301	
-0.396667	
-0.396362	
-0.396423	
-0.397156	
-0.397888	
-0.397522	
-0.396912	
-0.397095	
-0.396912	
-0.397644	
-0.397217	
-0.397278	
-0.397888	
-0.397949	
-0.396851	
-0.39856	
-0.39801	
-0.397888	
-0.396912	
-0.397461	
-0.39801	
-0.397888	
-0.39801	
-0.397461	
-0.398071	
-0.396973	
-0.398865	
-0.3974	
-0.397461	
-0.396484	
-0.396667	
-0.396606	
-0.395813	
-0.394958	
-0.394958	
-0.394836	
-0.393494	
-0.394897	
-0.393555	
-0.392883	
-0.392151	
-0.3927	
-0.392761	
-0.392761	
-0.392639	
-0.392822	
-0.392883	
-0.39325	
-0.39386	
-0.393066	
-0.392883	
-0.392456	
-0.3927	
-0.393494	
-0.393433	
-0.393494	
-0.393555	
-0.393738	
-0.394104	
-0.396423	
-0.395081	
-0.394836	
-0.39502	
-0.395996	
-0.39624	
-0.396423	
-0.396851	
-0.396851	
-0.397217	
-0.398071	
-0.400024	
-0.398743	
-0.399719	
-0.399536	
-0.400635	
-0.400879	
-0.401062	
-0.401917	
-0.402405	
	
