E:\DOCUMENTS AND SETTINGS\JPOTAS\MEUS DOCUMENTOS\UFRJ\RSCI-BM 12 WK SERIES\070720-RSCI-BM-04\RSCI-BM-04-LEMG\070720-RSCI-BM-LEMG-0018.ACQ
0.025000 msec/sample
1 channel
Analog input
Volts
CH1	
2000	
-0.397766	
-0.3974	
-0.39856	
-0.398743	
-0.397888	
-0.397034	
-0.396973	
-0.39856	
-0.397705	
-0.397888	
-0.396606	
-0.397156	
-0.396851	
-0.398438	
-0.397522	
-0.396851	
-0.397034	
-0.397156	
-0.397522	
-0.396545	
-0.397339	
-0.396606	
-0.397217	
-0.396729	
-0.397522	
-0.397034	
-0.396606	
-0.396118	
-0.39624	
-0.397827	
-0.396973	
-0.397278	
-0.395996	
-0.396545	
-0.396729	
-0.397705	
-0.397095	
-0.397217	
-0.396484	
-0.396667	
-0.397705	
-0.397034	
-0.397888	
-0.396667	
-0.396667	
-0.396912	
-0.398254	
-0.397339	
-0.39624	
-0.395203	
-0.395752	
-0.396545	
-0.395813	
-0.396729	
-0.39502	
-0.394592	
-0.394897	
-0.395996	
-0.395081	
-0.394104	
-0.392822	
-0.394165	
-0.39447	
-0.393738	
-0.39447	
-0.39325	
-0.394043	
-0.393494	
-0.394592	
-0.394409	
-0.394043	
-0.392578	
-0.393555	
-0.394714	
-0.393738	
-0.394287	
-0.393372	
-0.393433	
-0.392395	
-0.394409	
-0.394043	
-0.393555	
-0.392883	
-0.393494	
-0.394348	
-0.393677	
-0.394104	
-0.393677	
-0.394287	
-0.393433	
-0.395081	
-0.394592	
-0.393982	
-0.393677	
-0.393921	
-0.394775	
-0.394836	
-0.394287	
-0.394043	
-0.394592	
-0.396179	
-0.396851	
-0.396729	
-0.397522	
-0.397095	
-0.397522	
-0.398254	
-0.397949	
-0.397827	
-0.397522	
-0.397339	
-0.397705	
-0.398499	
-0.398071	
-0.397095	
-0.397095	
-0.397339	
-0.398254	
-0.397156	
-0.396362	
-0.395386	
-0.395447	
-0.395447	
-0.394897	
-0.394409	
-0.393616	
-0.393555	
-0.39386	
-0.395264	
-0.394897	
-0.393982	
-0.393311	
-0.393188	
-0.393982	
-0.393799	
-0.394165	
-0.393005	
-0.392883	
-0.392761	
-0.394348	
-0.39386	
-0.392639	
-0.392395	
-0.392578	
-0.39386	
-0.393494	
-0.393738	
-0.393066	
-0.392883	
-0.392822	
-0.393494	
-0.392944	
-0.392334	
-0.391602	
-0.392151	
-0.393433	
-0.393311	
-0.39386	
-0.393188	
-0.393799	
-0.393433	
-0.394226	
-0.393921	
-0.394104	
-0.393066	
-0.39447	
-0.394714	
-0.395325	
-0.395935	
-0.395264	
-0.395447	
-0.395325	
-0.39624	
-0.396179	
-0.395752	
-0.39447	
-0.396362	
-0.39679	
-0.396667	
-0.397095	
-0.395508	
-0.395691	
-0.39563	
-0.396667	
-0.395325	
-0.395081	
-0.394043	
-0.395142	
-0.395142	
-0.394714	
-0.395142	
-0.393799	
-0.394226	
-0.394165	
-0.394592	
-0.393616	
-0.394043	
-0.364441	
-0.403503	
-0.398865	
-0.39563	
-0.395081	
-0.393677	
-0.393433	
-0.393799	
-0.393188	
-0.393188	
-0.392944	
-0.392883	
-0.392578	
-0.392883	
-0.393372	
-0.393372	
-0.392334	
-0.392151	
-0.393555	
-0.392517	
-0.3927	
-0.391541	
-0.392334	
-0.391968	
-0.392029	
-0.392517	
-0.392151	
-0.391541	
-0.39209	
-0.392761	
-0.391113	
-0.390869	
-0.388794	
-0.390808	
-0.391113	
-0.391174	
-0.391785	
-0.391541	
-0.391052	
-0.390991	
-0.391968	
-0.390808	
-0.391602	
-0.390259	
-0.392029	
-0.392517	
-0.39325	
-0.393738	
-0.39325	
-0.393188	
-0.393616	
-0.395935	
-0.396606	
-0.398315	
-0.398438	
-0.403076	
-0.407166	
-0.411743	
-0.416504	
-0.422913	
-0.42804	
-0.434265	
-0.439331	
-0.445923	
-0.45105	
-0.457764	
-0.46521	
-0.47406	
-0.483276	
-0.490173	
-0.49762	
-0.502502	
-0.510071	
-0.513123	
-0.517822	
-0.520264	
-0.52417	
-0.525757	
-0.52655	
-0.52771	
-0.528198	
-0.527405	
-0.526428	
-0.527039	
-0.524841	
-0.523376	
-0.520325	
-0.518982	
-0.516296	
-0.513123	
-0.510132	
-0.506775	
-0.502197	
-0.498901	
-0.49707	
-0.495117	
-0.493774	
-0.491882	
-0.493347	
-0.494141	
-0.495178	
-0.495483	
-0.498169	
-0.498718	
-0.501343	
-0.502747	
-0.504822	
-0.505676	
-0.506348	
-0.506592	
-0.505371	
-0.504456	
-0.502319	
-0.50061	
-0.496216	
-0.495239	
-0.490356	
-0.487732	
-0.48407	
-0.480713	
-0.477295	
-0.474243	
-0.472412	
-0.469116	
-0.467468	
-0.464539	
-0.465332	
-0.461304	
-0.460693	
-0.457947	
-0.457581	
-0.455505	
-0.453735	
-0.451416	
-0.447449	
-0.44397	
-0.439392	
-0.436279	
-0.428894	
-0.4245	
-0.418274	
-0.412781	
-0.40625	
-0.400269	
-0.394226	
-0.387085	
-0.381104	
-0.372925	
-0.367615	
-0.358643	
-0.351135	
-0.343506	
-0.336914	
-0.329041	
-0.320862	
-0.313538	
-0.304443	
-0.296021	
-0.286194	
-0.279724	
-0.269531	
-0.261841	
-0.253784	
-0.247253	
-0.242371	
-0.238647	
-0.23584	
-0.233276	
-0.233337	
-0.233215	
-0.234863	
-0.234863	
-0.237305	
-0.238342	
-0.24292	
-0.24646	
-0.251343	
-0.255371	
-0.259888	
-0.264832	
-0.272034	
-0.275757	
-0.281677	
-0.286499	
-0.293091	
-0.298096	
-0.303772	
-0.30896	
-0.31366	
-0.316589	
-0.321838	
-0.326111	
-0.329773	
-0.33313	
-0.336548	
-0.339478	
-0.342529	
-0.344482	
-0.346802	
-0.349365	
-0.35083	
-0.352173	
-0.353638	
-0.354919	
-0.356079	
-0.3573	
-0.358521	
-0.359436	
-0.360413	
-0.361084	
-0.361511	
-0.36377	
-0.362549	
-0.363403	
-0.362976	
-0.364563	
-0.365479	
-0.365845	
-0.366516	
-0.366455	
-0.367249	
-0.366272	
-0.367554	
-0.366333	
-0.367188	
-0.368103	
-0.368225	
-0.369141	
-0.368896	
-0.36853	
-0.368958	
-0.369629	
-0.370911	
-0.368896	
-0.370056	
-0.368896	
-0.369751	
-0.369324	
-0.368896	
-0.369324	
-0.367798	
-0.368774	
-0.367859	
-0.368408	
-0.367676	
-0.368347	
-0.368042	
-0.369263	
-0.370239	
-0.369202	
-0.369446	
-0.369507	
-0.36969	
-0.369873	
-0.370789	
-0.370422	
-0.370667	
-0.372009	
-0.372375	
-0.373047	
-0.373169	
-0.372986	
-0.372742	
-0.373474	
-0.37439	
-0.37323	
-0.373352	
-0.372498	
-0.373901	
-0.374451	
-0.374084	
-0.374268	
-0.373901	
-0.374878	
-0.374451	
-0.374756	
-0.374329	
-0.374939	
-0.37439	
-0.375488	
-0.375793	
-0.375793	
-0.377258	
-0.376038	
-0.376221	
-0.376953	
-0.376831	
-0.377136	
-0.377258	
-0.378418	
-0.378723	
-0.378479	
-0.379211	
-0.378784	
-0.379089	
-0.378906	
-0.378967	
-0.378662	
-0.379089	
-0.379333	
-0.379333	
-0.380066	
-0.379089	
-0.379395	
-0.379333	
-0.379089	
-0.378906	
-0.377625	
-0.37854	
-0.376709	
-0.378845	
-0.379272	
-0.379761	
-0.379333	
-0.379578	
-0.379578	
-0.380493	
-0.380066	
-0.379883	
-0.379395	
-0.380432	
-0.381531	
-0.381836	
-0.381104	
-0.382568	
-0.381226	
-0.382629	
-0.381775	
-0.382568	
-0.382874	
-0.382935	
-0.383362	
-0.383789	
-0.383728	
-0.384155	
-0.384216	
-0.384277	
-0.384949	
-0.383728	
-0.385071	
-0.384216	
-0.385132	
-0.38562	
-0.386536	
-0.386414	
-0.386902	
-0.385498	
-0.386597	
-0.386658	
-0.386658	
-0.386169	
-0.386597	
-0.387024	
-0.387329	
-0.387085	
-0.387146	
-0.388184	
-0.386902	
-0.388428	
-0.387695	
-0.387878	
-0.387268	
-0.388367	
-0.389221	
-0.390137	
-0.390137	
-0.390259	
-0.390381	
-0.390564	
-0.390137	
-0.389709	
-0.390503	
-0.389954	
-0.389099	
-0.39032	
-0.390808	
-0.39032	
-0.390869	
-0.389648	
-0.390259	
-0.38855	
-0.387573	
-0.38739	
-0.387817	
-0.387451	
-0.388	
-0.387329	
-0.387451	
-0.387695	
-0.387085	
-0.387085	
-0.387939	
-0.387207	
-0.387695	
-0.388062	
-0.388306	
-0.389526	
-0.388672	
-0.389954	
-0.389771	
-0.390198	
-0.389954	
-0.390808	
-0.389526	
-0.390564	
-0.390381	
-0.391357	
-0.391724	
-0.391907	
-0.392578	
-0.3927	
-0.3927	
-0.392212	
-0.391785	
-0.392151	
-0.392029	
-0.392517	
-0.3927	
-0.3927	
-0.393799	
-0.393555	
-0.394104	
-0.393921	
-0.394043	
-0.393127	
-0.394958	
-0.393677	
-0.39502	
-0.395203	
-0.395203	
-0.396301	
-0.395935	
-0.39563	
-0.395569	
-0.395813	
-0.396606	
-0.39563	
-0.396667	
-0.396973	
-0.396301	
-0.396301	
-0.396362	
-0.397461	
-0.396423	
-0.396362	
-0.393738	
-0.395386	
-0.394165	
-0.395691	
-0.394714	
-0.39502	
-0.395508	
-0.395386	
-0.39502	
-0.395142	
-0.394714	
-0.395081	
-0.395752	
-0.395386	
-0.395935	
-0.395081	
-0.395813	
-0.39624	
-0.397705	
-0.395325	
-0.395813	
-0.394836	
-0.395752	
-0.395203	
-0.395874	
-0.395264	
-0.395935	
-0.395996	
-0.395935	
-0.396729	
-0.396057	
-0.395142	
-0.393921	
-0.395752	
-0.395508	
-0.396362	
-0.39624	
-0.396423	
-0.395691	
-0.395264	
-0.395508	
-0.395569	
-0.395142	
-0.393799	
-0.395447	
-0.395142	
-0.395935	
-0.395569	
-0.394836	
-0.394714	
-0.395325	
-0.395935	
-0.395813	
-0.395447	
-0.395081	
-0.395691	
-0.39563	
-0.394714	
-0.395264	
-0.395813	
-0.396057	
-0.395874	
-0.396667	
-0.396667	
-0.39563	
-0.394531	
-0.39502	
-0.396667	
-0.395996	
-0.396057	
-0.394714	
-0.396118	
-0.395752	
-0.395752	
-0.395081	
-0.394775	
-0.393738	
-0.394775	
-0.394409	
-0.394226	
-0.393982	
-0.393555	
-0.394897	
-0.394226	
-0.394165	
-0.392883	
-0.392761	
-0.391602	
-0.393738	
-0.392517	
-0.392517	
-0.3927	
-0.393188	
-0.394531	
-0.394043	
-0.393433	
-0.391846	
-0.392334	
-0.391907	
-0.393127	
-0.392944	
-0.392822	
-0.393494	
-0.393372	
-0.392578	
-0.394104	
-0.392944	
-0.392578	
-0.391724	
-0.393616	
-0.393372	
-0.39325	
-0.393066	
-0.393494	
-0.393738	
-0.393555	
-0.394897	
-0.392944	
-0.393127	
-0.392944	
-0.393982	
-0.39325	
-0.393677	
-0.39325	
-0.394775	
-0.396484	
-0.396362	
-0.397949	
-0.39624	
-0.396606	
-0.395508	
-0.396912	
-0.397156	
-0.396973	
-0.396973	
-0.396973	
-0.398193	
-0.397888	
-0.396973	
-0.39679	
-0.396484	
-0.396667	
-0.396057	
-0.395752	
-0.395142	
-0.395081	
-0.394653	
-0.395447	
-0.396545	
-0.394531	
-0.39386	
-0.392639	
-0.393616	
-0.394043	
-0.393494	
-0.391907	
-0.393311	
-0.393372	
-0.39386	
-0.394409	
-0.393311	
-0.392456	
-0.391479	
-0.393127	
-0.392944	
-0.392517	
-0.392273	
-0.393005	
-0.393494	
-0.394104	
-0.393494	
-0.392639	
-0.392273	
-0.391724	
-0.392273	
-0.392273	
-0.392517	
-0.392456	
-0.392456	
-0.392639	
-0.394531	
-0.393494	
-0.392578	
-0.393433	
-0.392395	
-0.393127	
-0.392761	
-0.393188	
-0.394287	
-0.393982	
-0.394165	
-0.396484	
-0.395203	
-0.39502	
-0.393372	
-0.394775	
-0.395569	
-0.395447	
-0.395203	
-0.395447	
-0.395813	
-0.396484	
-0.396912	
-0.396118	
-0.395752	
-0.393616	
-0.395508	
-0.395264	
-0.395264	
-0.39502	
-0.395508	
-0.394775	
-0.39502	
-0.395264	
-0.39447	
-0.39447	
-0.392334	
-0.39447	
-0.393555	
-0.393616	
-0.393188	
-0.393616	
-0.394226	
-0.39502	
-0.394836	
-0.393555	
-0.392395	
-0.391418	
-0.393311	
-0.393127	
-0.393127	
-0.391357	
-0.392822	
-0.393066	
-0.393066	
-0.39447	
-0.392578	
-0.391541	
-0.390686	
-0.392883	
-0.392517	
-0.392456	
-0.391235	
-0.392761	
-0.393127	
-0.3927	
-0.393433	
-0.39209	
-0.391602	
-0.389771	
-0.391846	
-0.391418	
-0.390991	
-0.389954	
-0.39093	
-0.391479	
-0.391113	
-0.39093	
-0.390137	
-0.390198	
-0.388977	
-0.390747	
-0.391052	
-0.39093	
-0.390381	
-0.391418	
-0.39209	
-0.393005	
-0.392578	
-0.392944	
-0.3927	
-0.393677	
-0.393738	
-0.39447	
-0.394409	
-0.394409	
-0.395264	
-0.395081	
-0.395874	
-0.394958	
-0.394653	
-0.394104	
-0.395081	
-0.394409	
-0.394043	
-0.393921	
-0.39386	
-0.394287	
-0.393677	
-0.394592	
-0.392456	
-0.392639	
-0.390869	
-0.392395	
-0.392151	
-0.391846	
-0.392212	
-0.391479	
-0.391907	
-0.391113	
-0.392395	
-0.391052	
-0.391541	
-0.390747	
-0.393127	
-0.3927	
-0.391907	
-0.391235	
-0.391296	
-0.391602	
-0.391235	
-0.391296	
-0.389038	
-0.389648	
-0.38916	
-0.390564	
-0.390076	
-0.389709	
-0.389038	
-0.389832	
-0.389343	
-0.390015	
-0.390381	
-0.388733	
-0.388794	
-0.388245	
-0.389954	
-0.389465	
-0.389893	
-0.388794	
-0.389526	
-0.389221	
-0.390198	
-0.390442	
-0.390015	
-0.389587	
-0.38916	
-0.390625	
-0.390503	
-0.390381	
-0.389587	
-0.390503	
-0.390686	
-0.391418	
-0.390808	
-0.390198	
-0.389038	
-0.389587	
-0.390686	
-0.390503	
-0.390564	
-0.390076	
-0.391174	
-0.390686	
-0.390747	
-0.391113	
-0.390381	
-0.389893	
-0.39093	
-0.391174	
-0.390991	
-0.390625	
-0.391846	
-0.392456	
-0.391785	
-0.39209	
-0.39209	
-0.391479	
-0.391541	
-0.391724	
-0.391968	
-0.391968	
-0.391785	
-0.391846	
-0.393005	
-0.393372	
-0.392761	
-0.392151	
-0.391174	
-0.391846	
-0.391113	
-0.391602	
-0.392212	
-0.39209	
-0.392151	
-0.392822	
-0.391907	
-0.392761	
-0.391174	
-0.390015	
-0.391235	
-0.391357	
-0.391296	
-0.391602	
-0.391296	
-0.391663	
-0.392639	
-0.391663	
-0.392395	
-0.390747	
-0.390991	
-0.390076	
-0.391724	
-0.391602	
-0.391968	
-0.39093	
-0.392212	
-0.394104	
-0.392395	
-0.393066	
-0.391602	
-0.392517	
-0.392334	
-0.393555	
-0.393677	
-0.393372	
-0.392822	
-0.394226	
-0.395569	
-0.394653	
-0.394287	
-0.39209	
-0.394226	
-0.394897	
-0.39502	
-0.394043	
-0.394287	
-0.394348	
-0.394653	
-0.394775	
-0.394531	
-0.394409	
-0.393188	
-0.393921	
-0.394409	
-0.394653	
-0.394653	
-0.394226	
-0.394714	
-0.394653	
-0.394104	
-0.395447	
-0.394592	
-0.393799	
-0.394043	
-0.394714	
-0.394104	
-0.39386	
-0.393677	
-0.393799	
-0.394958	
-0.394104	
-0.394775	
-0.394043	
-0.393066	
-0.393311	
-0.393738	
-0.393066	
-0.392151	
-0.391174	
-0.391602	
-0.392029	
-0.390869	
-0.391235	
-0.39032	
-0.390686	
-0.389404	
-0.389709	
-0.390503	
-0.390503	
-0.389282	
-0.390259	
-0.391785	
-0.390869	
-0.391174	
-0.390869	
-0.39209	
-0.391479	
-0.392822	
-0.39325	
-0.393005	
-0.391907	
-0.393188	
-0.394775	
-0.394165	
-0.394287	
-0.392761	
-0.393738	
-0.394287	
-0.394531	
-0.394165	
-0.39447	
-0.393799	
-0.39447	
-0.395935	
-0.395264	
-0.39563	
-0.393311	
-0.394958	
-0.394836	
-0.394592	
-0.393982	
-0.394592	
-0.39386	
-0.394836	
-0.396118	
-0.395935	
-0.395142	
-0.393372	
-0.394653	
-0.393738	
-0.395142	
-0.395203	
-0.394897	
-0.395081	
-0.395264	
-0.396301	
-0.39563	
-0.394836	
-0.393311	
-0.393494	
-0.394958	
-0.394775	
-0.39386	
-0.393433	
-0.393555	
-0.393982	
-0.393677	
-0.39386	
-0.392334	
-0.39093	
-0.392456	
-0.393066	
-0.391846	
-0.392395	
-0.392212	
-0.392456	
-0.392822	
-0.393005	
-0.394226	
-0.392395	
-0.392517	
-0.391907	
-0.394104	
-0.39325	
-0.393677	
-0.39386	
-0.393799	
-0.394409	
-0.394287	
-0.394226	
-0.393555	
-0.394165	
-0.393616	
-0.395264	
-0.393921	
-0.393921	
-0.393738	
-0.394897	
-0.395752	
-0.395508	
-0.394836	
-0.39447	
-0.394958	
-0.395508	
-0.396057	
-0.395081	
-0.395508	
-0.394409	
-0.395569	
-0.3974	
-0.396667	
-0.395508	
-0.394104	
-0.394592	
-0.395874	
-0.395325	
-0.395142	
-0.396057	
-0.39563	
-0.396179	
-0.397156	
-0.397766	
-0.395752	
-0.394287	
-0.395691	
-0.397156	
-0.397034	
-0.397339	
-0.397339	
-0.397339	
-0.397339	
-0.39801	
-0.398499	
-0.396729	
-0.396179	
-0.394836	
-0.396851	
-0.396851	
-0.39624	
-0.395813	
-0.396118	
-0.395813	
-0.394836	
-0.394348	
-0.393555	
-0.392944	
-0.391724	
-0.392822	
-0.392822	
-0.392578	
-0.392456	
-0.393494	
-0.393311	
-0.393188	
-0.392822	
-0.393127	
-0.393188	
-0.392944	
-0.39447	
-0.394043	
-0.393799	
-0.394104	
-0.39447	
-0.395691	
-0.395386	
-0.395447	
-0.394897	
-0.394958	
-0.395691	
-0.39679	
-0.395752	
-0.396362	
-0.396301	
-0.396179	
-0.397644	
-0.396057	
-0.395569	
-0.395142	
-0.395447	
-0.396057	
-0.396851	
-0.396667	
-0.396973	
-0.396973	
-0.397522	
-0.398438	
-0.398499	
-0.397705	
-0.397278	
-0.397583	
-0.398315	
-0.398132	
-0.398132	
-0.398438	
-0.397034	
-0.398499	
-0.399658	
-0.399597	
-0.398804	
-0.397644	
-0.398132	
-0.398926	
-0.398743	
-0.398438	
-0.398071	
-0.397949	
-0.398132	
-0.398743	
-0.39801	
-0.39679	
-0.395569	
-0.396606	
-0.397095	
-0.396667	
-0.396423	
-0.396851	
-0.397095	
-0.397583	
-0.398132	
-0.397095	
-0.396606	
-0.395508	
-0.39624	
-0.397705	
-0.396851	
-0.396912	
-0.396729	
-0.396912	
-0.396973	
-0.397705	
-0.398376	
-0.396851	
-0.395569	
-0.396606	
-0.396851	
-0.396545	
-0.397217	
-0.395874	
-0.396729	
-0.397644	
-0.39801	
-0.397644	
-0.396301	
-0.395691	
-0.395935	
-0.39624	
-0.39563	
-0.395874	
-0.395813	
-0.396179	
-0.396301	
-0.396484	
-0.397034	
-0.395935	
-0.395325	
-0.395813	
-0.395325	
-0.395508	
-0.395447	
-0.395752	
-0.395813	
-0.396973	
-0.396423	
-0.397522	
-0.396179	
-0.394714	
-0.395752	
-0.395813	
-0.396057	
-0.395264	
-0.395935	
-0.39624	
-0.3974	
-0.396729	
-0.397949	
-0.395203	
-0.394958	
-0.395813	
-0.395447	
-0.395264	
-0.394348	
-0.395508	
-0.394836	
-0.395386	
-0.394287	
-0.395325	
-0.392578	
-0.39447	
-0.39325	
-0.393433	
-0.39325	
-0.393005	
-0.392761	
-0.392822	
-0.393738	
-0.392761	
-0.394348	
-0.391357	
-0.393127	
-0.391663	
-0.392456	
-0.392883	
-0.392761	
-0.392334	
-0.393066	
-0.393982	
-0.392456	
-0.39386	
-0.391846	
-0.393494	
-0.391846	
-0.393188	
-0.391907	
-0.392761	
-0.392761	
-0.392944	
-0.39386	
-0.393127	
-0.393372	
-0.392029	
-0.393555	
-0.391602	
-0.392517	
-0.391846	
-0.392944	
-0.39325	
-0.393494	
-0.393799	
-0.393433	
-0.394714	
-0.39325	
-0.395264	
-0.394287	
-0.396057	
-0.39624	
-0.396362	
-0.396423	
-0.39679	
-0.396667	
-0.396912	
-0.397156	
-0.395874	
-0.396729	
-0.39563	
-0.396423	
-0.395935	
-0.396118	
-0.395996	
-0.395691	
-0.394958	
-0.394775	
-0.39447	
-0.393982	
-0.393921	
-0.392944	
-0.393311	
-0.39325	
-0.393066	
-0.393311	
-0.393555	
-0.392639	
-0.392883	
-0.393005	
-0.393433	
-0.392517	
-0.39209	
-0.391907	
-0.392151	
-0.392273	
-0.392334	
-0.393188	
-0.391724	
-0.392273	
-0.392517	
-0.392944	
-0.392395	
-0.391907	
-0.392212	
-0.391663	
-0.391724	
-0.391907	
-0.392883	
-0.391541	
-0.391602	
-0.391602	
-0.392761	
-0.391968	
-0.391357	
-0.391724	
-0.392822	
-0.392944	
-0.392822	
-0.393738	
-0.392822	
-0.393494	
-0.392273	
-0.394226	
-0.393494	
-0.392944	
-0.393616	
-0.394531	
-0.395142	
-0.394226	
-0.394958	
-0.394775	
-0.395447	
-0.394592	
-0.395874	
-0.394348	
-0.394348	
-0.39502	
-0.394592	
-0.394104	
-0.394958	
-0.395569	
-0.39447	
-0.394348	
-0.392883	
-0.394226	
-0.392944	
-0.393066	
-0.392639	
-0.392334	
-0.393188	
-0.393311	
-0.392944	
-0.392334	
-0.393066	
-0.392456	
-0.393372	
-0.392212	
-0.391907	
-0.391968	
-0.392273	
-0.392029	
-0.392822	
-0.391907	
-0.391907	
-0.392151	
-0.39093	
-0.392456	
-0.390869	
-0.391602	
-0.391541	
-0.391663	
-0.392029	
-0.391968	
-0.391357	
-0.391541	
-0.391296	
-0.390503	
-0.391846	
-0.390686	
-0.390991	
-0.390076	
-0.390808	
-0.391113	
-0.390747	
-0.389771	
-0.389709	
-0.39093	
-0.389526	
-0.390198	
-0.389038	
-0.389282	
-0.38855	
-0.389771	
-0.390991	
-0.390076	
-0.390076	
-0.390198	
-0.391663	
-0.391113	
-0.391418	
-0.391418	
-0.391602	
-0.391968	
-0.393494	
-0.393799	
-0.393616	
-0.394043	
-0.393616	
-0.394775	
-0.394165	
-0.393921	
-0.393494	
-0.393738	
-0.39386	
-0.393616	
-0.393921	
-0.393921	
-0.393005	
-0.391663	
-0.393494	
-0.39325	
-0.392212	
-0.390991	
-0.391174	
-0.391418	
-0.391541	
-0.391174	
-0.391418	
-0.390625	
-0.389465	
-0.390991	
-0.390869	
-0.390137	
-0.389954	
-0.390686	
-0.391296	
-0.391235	
-0.391235	
-0.391663	
-0.390808	
-0.390198	
-0.391052	
-0.390625	
-0.389221	
-0.388855	
-0.388794	
-0.389099	
-0.388855	
-0.388977	
-0.389099	
-0.388245	
-0.388428	
-0.38855	
-0.389099	
-0.388	
-0.387939	
-0.387939	
-0.388428	
-0.388733	
-0.388916	
-0.388794	
-0.387329	
-0.388489	
-0.389771	
-0.38916	
-0.388428	
-0.38855	
-0.388367	
-0.389221	
-0.390137	
-0.389526	
-0.389526	
-0.389465	
-0.389526	
-0.390808	
-0.389526	
-0.389526	
-0.388977	
-0.388794	
-0.389709	
-0.390381	
-0.39032	
-0.389526	
-0.389587	
-0.389282	
-0.391235	
-0.389832	
-0.389587	
-0.388916	
-0.389771	
-0.390198	
-0.390869	
-0.391052	
-0.39093	
-0.390259	
-0.39093	
-0.392517	
-0.390869	
-0.390625	
-0.390137	
-0.39093	
-0.391235	
-0.392029	
-0.391785	
-0.390991	
-0.391541	
-0.391052	
-0.3927	
-0.390625	
-0.391296	
-0.39032	
-0.391479	
-0.390747	
-0.391113	
-0.391541	
-0.391235	
-0.390808	
-0.389709	
-0.392517	
-0.391235	
-0.390747	
-0.389526	
-0.391052	
-0.39093	
-0.391113	
-0.390869	
-0.391174	
-0.391235	
-0.390503	
-0.392883	
-0.390625	
-0.390564	
-0.389771	
-0.390503	
-0.390686	
-0.391663	
-0.391174	
-0.391357	
-0.391602	
-0.392212	
-0.393005	
-0.391846	
-0.392212	
-0.391602	
-0.392517	
-0.393188	
-0.393799	
-0.39325	
-0.393005	
-0.393188	
-0.394592	
-0.394531	
-0.393616	
-0.393066	
-0.392212	
-0.394226	
-0.394104	
-0.395081	
-0.394287	
-0.394043	
-0.392883	
-0.394958	
-0.394531	
-0.393738	
-0.392639	
-0.391907	
-0.394287	
-0.394165	
-0.395142	
-0.39386	
-0.393616	
-0.392456	
-0.394775	
-0.394104	
-0.393982	
-0.39209	
-0.392334	
-0.393738	
-0.393738	
-0.394653	
-0.39386	
-0.39386	
-0.392273	
-0.393494	
-0.393494	
-0.393311	
-0.392883	
-0.391907	
-0.392944	
-0.392822	
-0.3927	
-0.391357	
-0.390747	
-0.389648	
-0.39093	
-0.390259	
-0.390015	
-0.39032	
-0.389648	
-0.390015	
-0.390442	
-0.390808	
-0.389465	
-0.390137	
-0.390198	
-0.391724	
-0.390747	
-0.39093	
-0.391418	
-0.39209	
-0.392029	
-0.392456	
-0.393738	
-0.392944	
-0.393127	
-0.393555	
-0.394775	
-0.393799	
-0.393127	
-0.39325	
-0.393677	
-0.39325	
-0.39386	
-0.394958	
-0.393982	
-0.394043	
-0.39386	
-0.394714	
-0.394592	
-0.392883	
-0.392883	
-0.394287	
-0.394287	
-0.39502	
-0.394714	
-0.394043	
-0.394043	
-0.393982	
-0.394592	
-0.394043	
-0.393738	
-0.394104	
-0.395203	
-0.395142	
-0.39502	
-0.395264	
-0.394897	
-0.395081	
-0.393494	
-0.39502	
-0.394409	
-0.394714	
-0.393921	
-0.393982	
-0.394165	
-0.394653	
-0.393738	
-0.39325	
-0.39386	
-0.391968	
-0.39325	
-0.391785	
-0.392517	
-0.392212	
-0.391846	
-0.392029	
-0.392822	
-0.392761	
-0.392273	
-0.393188	
-0.393066	
-0.393616	
-0.392273	
-0.392334	
-0.391541	
-0.393127	
-0.393372	
-0.394165	
-0.393433	
-0.393982	
-0.39447	
-0.394714	
-0.39447	
-0.393005	
-0.393494	
-0.393433	
-0.394409	
-0.394104	
-0.394775	
-0.394592	
-0.394958	
-0.394226	
-0.39502	
-0.395203	
-0.394043	
-0.393982	
-0.394409	
-0.395386	
-0.395447	
-0.396179	
-0.395569	
-0.395569	
-0.395264	
-0.39563	
-0.395264	
-0.394226	
-0.394958	
-0.395447	
-0.395752	
-0.396606	
-0.397034	
-0.395874	
-0.396179	
-0.39624	
-0.396484	
-0.396423	
-0.396179	
-0.396606	
-0.397583	
-0.397522	
-0.397278	
-0.398193	
-0.3974	
-0.397583	
-0.397766	
-0.397583	
-0.397034	
-0.397278	
-0.396729	
-0.396484	
-0.396851	
-0.396606	
-0.397644	
-0.395752	
-0.395447	
-0.394714	
-0.394897	
-0.393555	
-0.392883	
-0.392883	
-0.393311	
-0.393677	
-0.393311	
-0.394104	
-0.392883	
-0.393616	
-0.392578	
-0.393677	
-0.39325	
-0.392639	
-0.393555	
-0.394165	
-0.393982	
-0.394226	
-0.395142	
-0.395081	
-0.396179	
-0.394348	
-0.395752	
-0.395386	
-0.39502	
-0.394775	
-0.396179	
-0.396179	
-0.396729	
-0.397766	
-0.396362	
-0.397156	
-0.394775	
-0.395996	
-0.395447	
-0.395752	
-0.395264	
-0.396729	
-0.396667	
-0.397644	
-0.398621	
-0.396851	
-0.398315	
-0.39679	
-0.397949	
-0.397522	
-0.398193	
-0.398499	
-0.39856	
-0.398254	
-0.398926	
-0.400269	
-0.399475	
-0.399841	
-0.397522	
-0.398621	
-0.398315	
-0.398804	
-0.398682	
-0.398987	
-0.398621	
-0.398438	
-0.39917	
-0.398499	
-0.398621	
-0.396301	
-0.3974	
-0.396667	
-0.395996	
-0.396912	
-0.396912	
-0.397217	
-0.397583	
-0.398193	
-0.397339	
-0.397522	
-0.39679	
-0.39679	
-0.396057	
-0.396301	
-0.397278	
-0.397583	
-0.397156	
-0.3974	
-0.398071	
-0.397278	
-0.397461	
	
