E:\DOCUMENTS AND SETTINGS\JPOTAS\MEUS DOCUMENTOS\UFRJ\RSCI-BM 12 WK SERIES\070720-RSCI-BM-04\RSCI-BM-04-LEMG\070720-RSCI-BM-LEMG-0004.ACQ
0.025000 msec/sample
1 channel
Analog input
Volts
CH1	
2000	
-0.393738	
-0.394287	
-0.393799	
-0.394897	
-0.393677	
-0.393127	
-0.393677	
-0.394226	
-0.394165	
-0.393005	
-0.391785	
-0.393005	
-0.393799	
-0.393616	
-0.394348	
-0.393616	
-0.393433	
-0.39386	
-0.395081	
-0.394531	
-0.393921	
-0.392883	
-0.393127	
-0.394409	
-0.394409	
-0.394653	
-0.394714	
-0.394958	
-0.395874	
-0.395569	
-0.396545	
-0.396118	
-0.395264	
-0.396423	
-0.395996	
-0.39624	
-0.397156	
-0.39679	
-0.397217	
-0.397522	
-0.397278	
-0.398254	
-0.397827	
-0.396057	
-0.395996	
-0.396423	
-0.397095	
-0.397339	
-0.397949	
-0.397461	
-0.397278	
-0.397339	
-0.397705	
-0.397888	
-0.396484	
-0.395203	
-0.395935	
-0.396118	
-0.395813	
-0.39624	
-0.395935	
-0.395264	
-0.396362	
-0.396729	
-0.396912	
-0.395386	
-0.395203	
-0.393616	
-0.394958	
-0.395325	
-0.395264	
-0.395142	
-0.395996	
-0.396179	
-0.394592	
-0.395935	
-0.395325	
-0.395081	
-0.394287	
-0.394653	
-0.394409	
-0.394592	
-0.395386	
-0.394348	
-0.394897	
-0.394287	
-0.395203	
-0.394348	
-0.394531	
-0.393555	
-0.392395	
-0.393433	
-0.394043	
-0.394653	
-0.393677	
-0.393677	
-0.394226	
-0.393372	
-0.393616	
-0.39325	
-0.392822	
-0.392456	
-0.39386	
-0.394043	
-0.394104	
-0.394348	
-0.394348	
-0.394592	
-0.394897	
-0.396423	
-0.39447	
-0.394775	
-0.395264	
-0.396912	
-0.396973	
-0.397827	
-0.399231	
-0.398499	
-0.399353	
-0.398682	
-0.400513	
-0.397583	
-0.397949	
-0.398132	
-0.398315	
-0.398438	
-0.398193	
-0.398499	
-0.398132	
-0.398071	
-0.397583	
-0.398315	
-0.396912	
-0.396057	
-0.396301	
-0.396362	
-0.395569	
-0.395081	
-0.395386	
-0.394592	
-0.394714	
-0.39386	
-0.393555	
-0.3927	
-0.391846	
-0.391785	
-0.390015	
-0.391113	
-0.391479	
-0.391479	
-0.39032	
-0.391052	
-0.39093	
-0.389709	
-0.391968	
-0.389587	
-0.390137	
-0.388672	
-0.389404	
-0.390076	
-0.389954	
-0.389893	
-0.389648	
-0.390625	
-0.390076	
-0.39209	
-0.390015	
-0.39032	
-0.391418	
-0.392029	
-0.391907	
-0.392639	
-0.393372	
-0.392761	
-0.393799	
-0.393188	
-0.392761	
-0.392883	
-0.3927	
-0.393433	
-0.393066	
-0.394653	
-0.393921	
-0.394165	
-0.394653	
-0.395142	
-0.39502	
-0.394653	
-0.395996	
-0.393982	
-0.394287	
-0.393616	
-0.394775	
-0.394775	
-0.394775	
-0.395203	
-0.394958	
-0.369934	
-0.370605	
-0.378784	
-0.378723	
-0.380188	
-0.379883	
-0.41217	
-0.403015	
-0.397705	
-0.39679	
-0.395447	
-0.395508	
-0.394165	
-0.394531	
-0.392151	
-0.392517	
-0.361633	
-0.368958	
-0.374268	
-0.376648	
-0.378235	
-0.377441	
-0.410889	
-0.400024	
-0.397034	
-0.393311	
-0.39209	
-0.391968	
-0.393005	
-0.392395	
-0.392639	
-0.392944	
-0.392578	
-0.393311	
-0.393066	
-0.393982	
-0.393005	
-0.392029	
-0.393005	
-0.39386	
-0.39386	
-0.393677	
-0.39386	
-0.394043	
-0.394104	
-0.395325	
-0.394043	
-0.39386	
-0.392212	
-0.39325	
-0.392212	
-0.39325	
-0.393433	
-0.39386	
-0.395508	
-0.396118	
-0.39856	
-0.39917	
-0.402344	
-0.404358	
-0.40979	
-0.413635	
-0.419312	
-0.424072	
-0.429382	
-0.434998	
-0.439636	
-0.446289	
-0.452332	
-0.45929	
-0.465027	
-0.4729	
-0.478699	
-0.483215	
-0.486633	
-0.489502	
-0.491699	
-0.494446	
-0.49585	
-0.496094	
-0.495667	
-0.492981	
-0.493835	
-0.492493	
-0.491821	
-0.489929	
-0.488281	
-0.486389	
-0.484314	
-0.482788	
-0.478455	
-0.47467	
-0.470337	
-0.467773	
-0.463745	
-0.461609	
-0.458923	
-0.456787	
-0.455383	
-0.454773	
-0.4552	
-0.454407	
-0.455627	
-0.45575	
-0.458435	
-0.460266	
-0.464905	
-0.467651	
-0.470276	
-0.473145	
-0.47467	
-0.476929	
-0.476379	
-0.477112	
-0.47467	
-0.47345	
-0.470215	
-0.468018	
-0.465515	
-0.461548	
-0.458313	
-0.454895	
-0.45343	
-0.449097	
-0.447266	
-0.443726	
-0.4422	
-0.439941	
-0.439026	
-0.437805	
-0.437195	
-0.436584	
-0.435425	
-0.435974	
-0.434326	
-0.435364	
-0.433228	
-0.430969	
-0.428711	
-0.428528	
-0.425537	
-0.422546	
-0.419434	
-0.414917	
-0.410889	
-0.406006	
-0.40094	
-0.393921	
-0.387268	
-0.380798	
-0.374146	
-0.36792	
-0.360596	
-0.352234	
-0.343933	
-0.335571	
-0.327637	
-0.317749	
-0.310181	
-0.300049	
-0.292603	
-0.283447	
-0.276367	
-0.266724	
-0.25885	
-0.251526	
-0.245117	
-0.239868	
-0.233765	
-0.231812	
-0.229675	
-0.230042	
-0.230042	
-0.231445	
-0.233643	
-0.236511	
-0.239258	
-0.243469	
-0.247681	
-0.251404	
-0.256042	
-0.26062	
-0.26593	
-0.271179	
-0.276978	
-0.282288	
-0.288208	
-0.293457	
-0.299988	
-0.304932	
-0.31012	
-0.313354	
-0.319092	
-0.322937	
-0.328125	
-0.331238	
-0.335327	
-0.338745	
-0.342102	
-0.345154	
-0.346069	
-0.348633	
-0.350586	
-0.352783	
-0.354309	
-0.356995	
-0.357788	
-0.35907	
-0.360046	
-0.362366	
-0.362427	
-0.363892	
-0.36377	
-0.364685	
-0.365173	
-0.367065	
-0.368652	
-0.369202	
-0.370117	
-0.3703	
-0.37146	
-0.371765	
-0.372681	
-0.372253	
-0.372864	
-0.37323	
-0.374329	
-0.374634	
-0.375122	
-0.376221	
-0.375977	
-0.376892	
-0.37677	
-0.376404	
-0.376099	
-0.376221	
-0.375732	
-0.376221	
-0.376099	
-0.376587	
-0.37738	
-0.376404	
-0.377258	
-0.376343	
-0.375122	
-0.374512	
-0.374451	
-0.374756	
-0.375122	
-0.374512	
-0.374573	
-0.375366	
-0.373657	
-0.372437	
-0.373596	
-0.372925	
-0.371765	
-0.372131	
-0.373047	
-0.372925	
-0.372864	
-0.37323	
-0.374146	
-0.37323	
-0.373352	
-0.372681	
-0.373535	
-0.372009	
-0.371033	
-0.373535	
-0.373962	
-0.373657	
-0.374695	
-0.376099	
-0.375122	
-0.375183	
-0.374023	
-0.374695	
-0.37384	
-0.374939	
-0.375427	
-0.375	
-0.375427	
-0.37561	
-0.375916	
-0.375183	
-0.375854	
-0.373901	
-0.375	
-0.375	
-0.37561	
-0.376343	
-0.376709	
-0.377563	
-0.378845	
-0.378479	
-0.380127	
-0.379883	
-0.379639	
-0.379456	
-0.379272	
-0.38031	
-0.380615	
-0.380493	
-0.381287	
-0.381592	
-0.381592	
-0.382751	
-0.380981	
-0.381287	
-0.380615	
-0.38147	
-0.381714	
-0.382202	
-0.382263	
-0.382324	
-0.383179	
-0.382385	
-0.382568	
-0.383179	
-0.382446	
-0.381531	
-0.381592	
-0.382629	
-0.382385	
-0.38324	
-0.384949	
-0.383972	
-0.384338	
-0.383545	
-0.383057	
-0.383606	
-0.383972	
-0.384583	
-0.384338	
-0.38501	
-0.385681	
-0.386658	
-0.386658	
-0.38739	
-0.385742	
-0.386475	
-0.387512	
-0.387573	
-0.387024	
-0.388306	
-0.388611	
-0.389526	
-0.389832	
-0.390076	
-0.391357	
-0.389771	
-0.390259	
-0.39032	
-0.390991	
-0.390869	
-0.391174	
-0.391113	
-0.391418	
-0.391602	
-0.391785	
-0.392883	
-0.391418	
-0.391113	
-0.391052	
-0.391235	
-0.390259	
-0.391602	
-0.391357	
-0.391907	
-0.39209	
-0.390991	
-0.39209	
-0.391174	
-0.391968	
-0.391052	
-0.390564	
-0.390442	
-0.391479	
-0.391541	
-0.391602	
-0.392639	
-0.391846	
-0.392273	
-0.391663	
-0.392517	
-0.391357	
-0.390686	
-0.391235	
-0.391724	
-0.391846	
-0.392822	
-0.392883	
-0.391663	
-0.392395	
-0.391113	
-0.39209	
-0.390808	
-0.389648	
-0.389954	
-0.390869	
-0.390381	
-0.390747	
-0.391052	
-0.390747	
-0.390198	
-0.389465	
-0.390747	
-0.390015	
-0.389465	
-0.389771	
-0.391113	
-0.390869	
-0.39093	
-0.390198	
-0.390442	
-0.391357	
-0.391174	
-0.391479	
-0.390503	
-0.391846	
-0.390686	
-0.392334	
-0.393616	
-0.39325	
-0.393311	
-0.393433	
-0.39386	
-0.394287	
-0.39386	
-0.394348	
-0.395264	
-0.395752	
-0.396851	
-0.397583	
-0.398071	
-0.397644	
-0.397461	
-0.3974	
-0.398132	
-0.397705	
-0.397888	
-0.3974	
-0.397949	
-0.398438	
-0.397705	
-0.39679	
-0.397156	
-0.397949	
-0.397888	
-0.397644	
-0.39624	
-0.395996	
-0.39624	
-0.396545	
-0.396545	
-0.396057	
-0.394897	
-0.393982	
-0.394897	
-0.394531	
-0.394165	
-0.392944	
-0.392517	
-0.393311	
-0.393188	
-0.392822	
-0.393372	
-0.392456	
-0.39209	
-0.39209	
-0.392883	
-0.392822	
-0.391357	
-0.391785	
-0.392578	
-0.392578	
-0.392578	
-0.392212	
-0.392029	
-0.392273	
-0.392578	
-0.393188	
-0.392822	
-0.391541	
-0.39209	
-0.392639	
-0.393311	
-0.393188	
-0.393311	
-0.393188	
-0.393494	
-0.393616	
-0.394104	
-0.394104	
-0.393616	
-0.39325	
-0.394958	
-0.395142	
-0.394958	
-0.39502	
-0.395691	
-0.396362	
-0.396362	
-0.39679	
-0.39624	
-0.396484	
-0.396118	
-0.396851	
-0.396973	
-0.397827	
-0.397034	
-0.396423	
-0.397583	
-0.396729	
-0.397827	
-0.397278	
-0.397766	
-0.397156	
-0.396912	
-0.396729	
-0.397766	
-0.397217	
-0.396118	
-0.397278	
-0.396545	
-0.39624	
-0.395508	
-0.397034	
-0.39624	
-0.395935	
-0.395935	
-0.396362	
-0.395691	
-0.395386	
-0.39624	
-0.395447	
-0.395569	
-0.394836	
-0.395874	
-0.395508	
-0.395508	
-0.39679	
-0.39624	
-0.395264	
-0.395203	
-0.395508	
-0.395447	
-0.395203	
-0.394104	
-0.395569	
-0.395203	
-0.394043	
-0.39502	
-0.395142	
-0.394531	
-0.39447	
-0.394165	
-0.394348	
-0.394653	
-0.393799	
-0.394653	
-0.394165	
-0.393372	
-0.394714	
-0.394775	
-0.393738	
-0.393433	
-0.393433	
-0.394104	
-0.394043	
-0.393982	
-0.395447	
-0.394043	
-0.394104	
-0.395447	
-0.395142	
-0.395325	
-0.39563	
-0.395142	
-0.396362	
-0.396423	
-0.397766	
-0.398071	
-0.398254	
-0.398376	
-0.39978	
-0.399414	
-0.399414	
-0.399292	
-0.398621	
-0.399475	
-0.399048	
-0.399536	
-0.399841	
-0.399231	
-0.398804	
-0.399292	
-0.398499	
-0.398071	
-0.398438	
-0.398193	
-0.397888	
-0.397522	
-0.397583	
-0.396851	
-0.396362	
-0.39624	
-0.395752	
-0.394104	
-0.395386	
-0.394775	
-0.393677	
-0.393066	
-0.392822	
-0.392761	
-0.393433	
-0.393005	
-0.392517	
-0.391296	
-0.391418	
-0.391907	
-0.391418	
-0.390442	
-0.391235	
-0.391113	
-0.39093	
-0.391602	
-0.391296	
-0.390564	
-0.390503	
-0.390259	
-0.391113	
-0.391663	
-0.390747	
-0.391968	
-0.39209	
-0.392822	
-0.39386	
-0.394104	
-0.393677	
-0.394043	
-0.394287	
-0.393921	
-0.394653	
-0.393066	
-0.394409	
-0.394104	
-0.394409	
-0.395569	
-0.395935	
-0.395569	
-0.395569	
-0.396301	
-0.395996	
-0.396301	
-0.395691	
-0.396301	
-0.396179	
-0.395813	
-0.395752	
-0.396973	
-0.396362	
-0.396118	
-0.396729	
-0.396545	
-0.396729	
-0.396179	
-0.396545	
-0.395752	
-0.39563	
-0.395935	
-0.397156	
-0.395996	
-0.395874	
-0.394958	
-0.395203	
-0.395874	
-0.394043	
-0.394775	
-0.39386	
-0.394531	
-0.394043	
-0.39447	
-0.393372	
-0.393433	
-0.392822	
-0.393799	
-0.393188	
-0.391968	
-0.393616	
-0.392761	
-0.393433	
-0.393921	
-0.39502	
-0.394165	
-0.394409	
-0.394348	
-0.39386	
-0.394104	
-0.39325	
-0.394104	
-0.393982	
-0.394653	
-0.394714	
-0.395935	
-0.394592	
-0.394836	
-0.395752	
-0.395447	
-0.39502	
-0.394592	
-0.39386	
-0.394165	
-0.394836	
-0.395325	
-0.396729	
-0.395447	
-0.395264	
-0.395386	
-0.396362	
-0.396057	
-0.394775	
-0.394592	
-0.395264	
-0.395813	
-0.395813	
-0.397644	
-0.396606	
-0.396484	
-0.397339	
-0.398376	
-0.3974	
-0.397217	
-0.397461	
-0.397827	
-0.398254	
-0.398682	
-0.400085	
-0.398499	
-0.398682	
-0.398376	
-0.399475	
-0.39856	
-0.398499	
-0.397644	
-0.39801	
-0.399841	
-0.399231	
-0.39978	
-0.39856	
-0.398376	
-0.398193	
-0.399292	
-0.398193	
-0.39801	
-0.396423	
-0.396545	
-0.397095	
-0.396912	
-0.397034	
-0.396545	
-0.396301	
-0.395813	
-0.39679	
-0.395142	
-0.394348	
-0.3927	
-0.392944	
-0.393494	
-0.393127	
-0.394043	
-0.39325	
-0.393127	
-0.3927	
-0.394348	
-0.393555	
-0.393372	
-0.392761	
-0.39209	
-0.393677	
-0.394165	
-0.39447	
-0.393921	
-0.393921	
-0.394653	
-0.394958	
-0.396179	
-0.395874	
-0.395874	
-0.394592	
-0.397095	
-0.397461	
-0.397827	
-0.397766	
-0.398071	
-0.397949	
-0.39679	
-0.399536	
-0.398438	
-0.397888	
-0.397339	
-0.398743	
-0.39856	
-0.39856	
-0.39917	
-0.399109	
-0.39856	
-0.397644	
-0.399658	
-0.399231	
-0.399353	
-0.398865	
-0.399048	
-0.398865	
-0.399719	
-0.399719	
-0.39917	
-0.399109	
-0.39801	
-0.399475	
-0.398804	
-0.398987	
-0.398499	
-0.397888	
-0.398743	
-0.39917	
-0.398376	
-0.398438	
-0.39801	
-0.396973	
-0.397705	
-0.397644	
-0.397888	
-0.397034	
-0.395569	
-0.396362	
-0.397339	
-0.396301	
-0.395874	
-0.39563	
-0.395081	
-0.396545	
-0.395874	
-0.395203	
-0.395752	
-0.395081	
-0.395813	
-0.396484	
-0.396057	
-0.395874	
-0.396057	
-0.395508	
-0.396362	
-0.397339	
-0.396179	
-0.396118	
-0.39502	
-0.396973	
-0.396973	
-0.397156	
-0.397461	
-0.396423	
-0.395874	
-0.3974	
-0.398926	
-0.397339	
-0.396667	
-0.39624	
-0.397766	
-0.398071	
-0.398315	
-0.39801	
-0.397095	
-0.396484	
-0.398071	
-0.399475	
-0.397583	
-0.396484	
-0.397339	
-0.397827	
-0.398254	
-0.399048	
-0.398071	
-0.398438	
-0.397644	
-0.399292	
-0.399597	
-0.39856	
-0.39801	
-0.398071	
-0.398804	
-0.399292	
-0.400085	
-0.399231	
-0.399353	
-0.398071	
-0.400024	
-0.400452	
-0.399292	
-0.39917	
-0.399231	
-0.399048	
-0.399841	
-0.400085	
-0.399109	
-0.398743	
-0.397827	
-0.39978	
-0.399658	
-0.398376	
-0.398193	
-0.397644	
-0.397156	
-0.39801	
-0.398682	
-0.396484	
-0.395813	
-0.394836	
-0.395508	
-0.394775	
-0.394775	
-0.393982	
-0.394348	
-0.394165	
-0.394897	
-0.395691	
-0.394897	
-0.394897	
-0.393982	
-0.395508	
-0.395874	
-0.396057	
-0.395508	
-0.395142	
-0.394836	
-0.396423	
-0.398132	
-0.397278	
-0.397461	
-0.397461	
-0.398132	
-0.399292	
-0.399536	
-0.399292	
-0.399231	
-0.398438	
-0.400574	
-0.402466	
-0.401245	
-0.401245	
-0.402039	
-0.401917	
-0.403015	
-0.403564	
-0.402893	
-0.402344	
-0.401489	
-0.402954	
-0.403564	
-0.403442	
-0.403381	
-0.40332	
-0.402771	
-0.404663	
-0.404846	
-0.40271	
-0.402222	
-0.401428	
-0.402161	
-0.402344	
-0.401978	
-0.401611	
-0.401245	
-0.400635	
-0.401367	
-0.402039	
-0.40033	
-0.400208	
-0.399353	
-0.40033	
-0.400085	
-0.400818	
-0.399536	
-0.398926	
-0.397644	
-0.399231	
-0.399475	
-0.398438	
-0.398254	
-0.396973	
-0.39801	
-0.398621	
-0.400024	
-0.398438	
-0.398743	
-0.397461	
-0.398376	
-0.398865	
-0.398071	
-0.397705	
-0.39679	
-0.397766	
-0.398987	
-0.40033	
-0.399231	
-0.398682	
-0.398926	
-0.399536	
-0.400513	
-0.399414	
-0.399475	
-0.398315	
-0.39978	
-0.400757	
-0.400879	
-0.401367	
-0.401733	
-0.401306	
-0.400574	
-0.403198	
-0.40155	
-0.401489	
-0.400452	
-0.400513	
-0.40155	
-0.401733	
-0.40155	
-0.401245	
-0.401245	
-0.398682	
-0.402588	
-0.401306	
-0.400818	
-0.399597	
-0.399841	
-0.400818	
-0.400513	
-0.401672	
-0.39978	
-0.399719	
-0.398987	
-0.401184	
-0.400391	
-0.399963	
-0.399292	
-0.399536	
-0.399658	
-0.400146	
-0.401245	
-0.399597	
-0.399414	
-0.398682	
-0.400269	
-0.400391	
-0.399292	
-0.398071	
-0.39856	
-0.398926	
-0.398926	
-0.400024	
-0.39856	
-0.397583	
-0.397156	
-0.39856	
-0.397949	
-0.397644	
-0.396301	
-0.395935	
-0.396851	
-0.39679	
-0.396912	
-0.396301	
-0.396545	
-0.395691	
-0.396179	
-0.397034	
-0.39624	
-0.395691	
-0.394714	
-0.395264	
-0.395874	
-0.396301	
-0.396667	
-0.396973	
-0.396851	
-0.396301	
-0.397095	
-0.396912	
-0.396912	
-0.39624	
-0.396545	
-0.398193	
-0.398743	
-0.399353	
-0.39856	
-0.398743	
-0.398926	
-0.400757	
-0.401123	
-0.400757	
-0.400574	
-0.401367	
-0.402283	
-0.4021	
-0.402588	
-0.402405	
-0.402039	
-0.401123	
-0.402588	
-0.402405	
-0.401001	
-0.399719	
-0.400635	
-0.401062	
-0.401001	
-0.401733	
-0.400879	
-0.399719	
-0.39917	
-0.400635	
-0.399658	
-0.398987	
-0.396729	
-0.397766	
-0.397522	
-0.397705	
-0.397766	
-0.397278	
-0.396118	
-0.395874	
-0.397034	
-0.396423	
-0.395935	
-0.394653	
-0.396118	
-0.394592	
-0.396057	
-0.396851	
-0.396118	
-0.395386	
-0.395386	
-0.396484	
-0.39502	
-0.395447	
-0.394348	
-0.395264	
-0.394836	
-0.395386	
-0.395813	
-0.395874	
-0.395447	
-0.395691	
-0.396667	
-0.395813	
-0.39624	
-0.39502	
-0.395142	
-0.395752	
-0.396362	
-0.396606	
-0.396301	
-0.39624	
-0.396851	
-0.397888	
-0.397034	
-0.397888	
-0.396912	
-0.397522	
-0.398071	
-0.39856	
-0.399048	
-0.398682	
-0.398376	
-0.398315	
-0.399719	
-0.397705	
-0.399414	
-0.398499	
-0.398315	
-0.398926	
-0.39917	
-0.399414	
-0.399292	
-0.399841	
-0.398621	
-0.39856	
-0.39856	
-0.398804	
-0.398193	
-0.397461	
-0.398071	
-0.397278	
-0.398193	
-0.397949	
-0.398254	
-0.397827	
-0.397156	
-0.397583	
-0.397278	
-0.397156	
-0.39624	
-0.396851	
-0.395813	
-0.39679	
-0.397278	
-0.397522	
-0.3974	
-0.396484	
-0.397705	
-0.396362	
-0.396729	
-0.396484	
-0.396179	
-0.395813	
-0.396667	
-0.396912	
-0.396362	
-0.396729	
-0.396057	
-0.396484	
-0.394897	
-0.395386	
-0.394897	
-0.395081	
-0.394409	
-0.39563	
-0.395691	
-0.395569	
-0.39624	
-0.395569	
-0.395752	
-0.394592	
-0.395264	
-0.39447	
-0.39502	
-0.394226	
-0.395142	
-0.395203	
-0.394775	
-0.396057	
-0.396057	
-0.395325	
-0.39563	
-0.396362	
-0.396057	
-0.39679	
-0.395813	
-0.397461	
-0.398621	
-0.399353	
-0.399414	
-0.400085	
-0.399658	
-0.39978	
-0.400757	
-0.399719	
-0.399658	
-0.399658	
-0.39978	
-0.400146	
-0.400574	
-0.399536	
-0.39917	
-0.399048	
-0.398743	
-0.399231	
-0.397949	
-0.397827	
-0.397888	
-0.397156	
-0.397217	
-0.397461	
-0.396606	
-0.396545	
-0.396179	
-0.395691	
-0.395691	
-0.39386	
-0.392761	
-0.393494	
-0.39325	
-0.392883	
-0.393677	
-0.393005	
-0.392151	
-0.392883	
-0.392395	
-0.390808	
-0.39093	
-0.39032	
-0.391052	
-0.391357	
-0.391235	
-0.391235	
-0.391113	
-0.391846	
-0.391663	
-0.390869	
-0.391479	
-0.391663	
-0.391418	
-0.392334	
-0.39209	
-0.392517	
-0.393311	
-0.394165	
-0.394409	
-0.394287	
-0.393311	
-0.393677	
-0.394226	
-0.393982	
-0.394165	
-0.393188	
-0.394531	
-0.395386	
-0.395264	
-0.395752	
-0.395508	
-0.394775	
-0.396179	
-0.395508	
-0.395386	
-0.395935	
-0.39502	
-0.395813	
-0.395996	
-0.395935	
-0.395874	
-0.397034	
-0.396179	
-0.396057	
-0.395447	
-0.395325	
-0.395447	
-0.395264	
-0.395508	
-0.395813	
-0.396301	
-0.395935	
-0.396301	
-0.395325	
-0.395813	
-0.39563	
-0.394592	
-0.393677	
-0.393982	
-0.393738	
-0.393066	
-0.393921	
-0.393188	
-0.394287	
-0.393372	
-0.393372	
-0.393127	
-0.392334	
-0.392517	
-0.392761	
-0.393372	
-0.393433	
-0.394531	
-0.39325	
-0.393982	
-0.393738	
-0.39447	
-0.393677	
-0.393372	
-0.392639	
-0.393799	
-0.393677	
-0.394165	
-0.395081	
-0.394836	
-0.394958	
-0.394287	
-0.394897	
-0.394104	
-0.3927	
-0.392944	
-0.39447	
-0.394348	
-0.394348	
-0.394714	
-0.394592	
-0.394775	
-0.395447	
-0.39624	
-0.395081	
-0.394592	
-0.394836	
-0.395081	
-0.394714	
-0.395325	
-0.39563	
-0.39563	
-0.396179	
-0.396729	
-0.397583	
-0.396729	
-0.396973	
-0.3974	
-0.396301	
-0.396729	
-0.397827	
-0.398132	
-0.397583	
-0.3974	
-0.398376	
-0.3974	
-0.397766	
-0.39801	
-0.397644	
-0.396851	
-0.397278	
-0.39801	
-0.397949	
-0.397888	
-0.397217	
-0.397339	
-0.39679	
-0.398438	
-0.397156	
-0.395569	
-0.395203	
-0.395264	
-0.395447	
-0.396118	
-0.396301	
-0.395142	
-0.395325	
-0.394409	
-0.395081	
-0.394348	
-0.391541	
-0.391235	
-0.391663	
-0.392273	
-0.392395	
-0.393066	
-0.391968	
-0.391968	
-0.392639	
-0.393433	
-0.393127	
-0.392334	
-0.391907	
-0.392395	
-0.393066	
-0.392944	
-0.393494	
-0.393494	
-0.394043	
-0.394653	
-0.395203	
-0.39563	
-0.394836	
-0.395569	
-0.39502	
-0.396423	
-0.396545	
-0.397339	
-0.397095	
-0.397034	
-0.397705	
-0.397522	
-0.398193	
-0.397461	
-0.397217	
-0.397217	
-0.397095	
-0.397766	
-0.398254	
-0.397827	
-0.397766	
-0.39856	
-0.39856	
-0.399353	
-0.397949	
-0.397827	
-0.397583	
-0.396851	
-0.397583	
-0.398499	
-0.397949	
-0.397644	
-0.398315	
-0.397888	
-0.398376	
-0.398621	
-0.397949	
-0.397034	
-0.397095	
-0.397217	
-0.397522	
-0.397705	
-0.3974	
-0.396851	
-0.39624	
-0.3974	
-0.397339	
-0.395447	
-0.394226	
-0.394226	
-0.395325	
-0.395691	
-0.39502	
-0.395325	
-0.395508	
-0.393738	
-0.395142	
-0.395691	
-0.393738	
-0.394409	
-0.39447	
-0.394165	
-0.394897	
-0.394897	
-0.395569	
-0.395508	
-0.394226	
-0.395569	
-0.395874	
-0.394958	
-0.395081	
-0.395569	
-0.395203	
-0.395752	
-0.395691	
-0.395508	
-0.395813	
-0.395813	
-0.396667	
-0.396545	
-0.396057	
-0.39624	
-0.395874	
-0.396118	
-0.396851	
-0.396545	
-0.395874	
-0.39624	
-0.395935	
-0.396667	
-0.396606	
-0.396301	
-0.396362	
-0.39502	
-0.396301	
-0.397583	
-0.398071	
-0.397095	
-0.396973	
-0.397461	
-0.397644	
-0.39801	
-0.3974	
-0.398193	
-0.396912	
-0.396301	
-0.396912	
-0.399109	
-0.398132	
-0.397461	
-0.398682	
-0.398193	
-0.398926	
-0.398682	
-0.398315	
-0.397766	
-0.397278	
-0.397278	
-0.398804	
-0.397949	
-0.397949	
-0.398499	
-0.39801	
-0.397766	
-0.397949	
-0.3974	
-0.396423	
-0.39624	
-0.395264	
-0.395203	
-0.394836	
-0.394165	
-0.394043	
-0.393005	
-0.393799	
-0.394409	
-0.393799	
-0.39325	
-0.392639	
-0.393066	
-0.393433	
-0.393982	
-0.393494	
-0.394348	
-0.393005	
-0.394287	
-0.395752	
-0.395081	
-0.39447	
-0.394287	
-0.395874	
-0.395752	
-0.397034	
-0.396667	
-0.397217	
-0.39679	
-0.397888	
-0.399414	
-0.398621	
-0.399414	
-0.399109	
-0.399658	
-0.399353	
-0.401428	
-0.400574	
-0.400574	
-0.401062	
-0.401367	
-0.401672	
-0.400818	
-0.401978	
-0.401184	
-0.401184	
-0.401123	
-0.402649	
-0.401917	
-0.402527	
-0.402832	
-0.401794	
-0.401733	
-0.40094	
-0.401733	
-0.400452	
-0.398987	
-0.400024	
-0.399902	
-0.399963	
-0.399719	
-0.400085	
-0.398743	
-0.39978	
-0.399658	
-0.399353	
-0.399353	
-0.396606	
-0.397461	
-0.398071	
-0.398438	
-0.397827	
-0.397278	
-0.396729	
-0.397278	
-0.398315	
-0.397827	
-0.396912	
-0.396179	
-0.397278	
-0.3974	
-0.397583	
-0.396667	
-0.396057	
-0.396667	
-0.396973	
-0.398071	
-0.395752	
-0.396912	
-0.397034	
-0.397827	
-0.397034	
-0.397522	
-0.397949	
-0.398254	
-0.398621	
-0.397766	
-0.399414	
-0.398254	
-0.39917	
-0.399292	
-0.399658	
-0.398682	
-0.400513	
-0.400146	
-0.399902	
-0.401184	
-0.399475	
-0.401428	
-0.400085	
-0.401123	
-0.399475	
-0.399719	
-0.399658	
-0.399475	
-0.400635	
-0.39978	
-0.400452	
-0.398987	
-0.40033	
-0.399658	
-0.400024	
-0.398743	
-0.397888	
-0.398315	
-0.39856	
-0.399475	
-0.398926	
-0.398804	
-0.398621	
-0.39917	
-0.398865	
-0.397583	
-0.39801	
-0.397705	
-0.398376	
-0.398071	
-0.398254	
-0.398315	
-0.397949	
-0.398499	
-0.398071	
-0.398315	
-0.397156	
-0.397705	
-0.397156	
-0.397156	
-0.396667	
-0.397034	
-0.396667	
-0.396484	
-0.396729	
-0.39502	
-0.39624	
-0.395325	
-0.395569	
-0.394775	
-0.39502	
-0.394592	
-0.395569	
-0.395508	
-0.395142	
-0.395508	
-0.39447	
-0.395569	
-0.394287	
-0.395386	
-0.393982	
-0.394653	
-0.394958	
-0.395325	
-0.39624	
-0.394897	
-0.39563	
-0.39563	
-0.396912	
-0.396118	
-0.395447	
-0.396362	
-0.396545	
-0.39679	
-0.397278	
-0.398132	
-0.398132	
-0.398987	
-0.399902	
-0.400452	
-0.399902	
-0.400024	
-0.399902	
-0.400391	
-0.400757	
-0.399353	
-0.401428	
-0.400208	
-0.400085	
-0.400879	
-0.400635	
-0.399902	
-0.399292	
-0.39978	
-0.399536	
-0.399719	
-0.399231	
-0.398987	
-0.398987	
-0.398132	
-0.398926	
-0.398132	
-0.397278	
-0.396362	
-0.39624	
-0.395142	
-0.395752	
-0.395325	
-0.395569	
-0.39502	
-0.395081	
-0.395264	
-0.394592	
-0.394836	
-0.394226	
	
