E:\DOCUMENTS AND SETTINGS\JPOTAS\MEUS DOCUMENTOS\UFRJ\RSCI-BM 12 WK SERIES\070720-RSCI-BM-04\RSCI-BM-04-LEMG\070720-RSCI-BM-LEMG-0007.ACQ
0.025000 msec/sample
1 channel
Analog input
Volts
CH1	
2000	
-0.393738	
-0.393555	
-0.393005	
-0.39447	
-0.393616	
-0.393738	
-0.39325	
-0.393555	
-0.393982	
-0.393677	
-0.393066	
-0.393066	
-0.39325	
-0.393616	
-0.393982	
-0.393677	
-0.393494	
-0.393311	
-0.393494	
-0.393738	
-0.395447	
-0.394836	
-0.395142	
-0.396118	
-0.394714	
-0.395691	
-0.39502	
-0.395081	
-0.394836	
-0.39447	
-0.394592	
-0.395386	
-0.394287	
-0.394592	
-0.394714	
-0.394043	
-0.394409	
-0.394836	
-0.394592	
-0.393127	
-0.393372	
-0.392883	
-0.393738	
-0.393127	
-0.392761	
-0.392883	
-0.392639	
-0.392151	
-0.392029	
-0.391968	
-0.391846	
-0.392029	
-0.391907	
-0.392273	
-0.392212	
-0.392944	
-0.392517	
-0.392456	
-0.3927	
-0.392578	
-0.39209	
-0.392883	
-0.393188	
-0.393433	
-0.393494	
-0.39447	
-0.39447	
-0.393738	
-0.394043	
-0.394775	
-0.394836	
-0.394592	
-0.394592	
-0.394165	
-0.394531	
-0.39386	
-0.395508	
-0.395996	
-0.394592	
-0.394775	
-0.395752	
-0.395996	
-0.395203	
-0.396118	
-0.395996	
-0.396057	
-0.395142	
-0.39679	
-0.39679	
-0.395935	
-0.396057	
-0.39679	
-0.396545	
-0.396606	
-0.396912	
-0.396301	
-0.395935	
-0.395752	
-0.39624	
-0.395996	
-0.395874	
-0.396179	
-0.396118	
-0.395874	
-0.396118	
-0.395508	
-0.396484	
-0.396973	
-0.396667	
-0.396729	
-0.397095	
-0.396973	
-0.396973	
-0.397034	
-0.396545	
-0.396545	
-0.396484	
-0.396912	
-0.3974	
-0.397339	
-0.397217	
-0.397827	
-0.397278	
-0.397644	
-0.397278	
-0.396423	
-0.397034	
-0.397461	
-0.396362	
-0.397766	
-0.397278	
-0.397217	
-0.39856	
-0.398193	
-0.39801	
-0.397461	
-0.397461	
-0.397522	
-0.397522	
-0.397034	
-0.396973	
-0.396851	
-0.395386	
-0.396973	
-0.395935	
-0.395874	
-0.394775	
-0.395142	
-0.395813	
-0.395691	
-0.396118	
-0.395447	
-0.395874	
-0.395081	
-0.395752	
-0.395935	
-0.395935	
-0.395081	
-0.395325	
-0.395813	
-0.396118	
-0.395752	
-0.396179	
-0.39624	
-0.396423	
-0.397949	
-0.397217	
-0.396851	
-0.396667	
-0.396423	
-0.397034	
-0.3974	
-0.396667	
-0.397339	
-0.397583	
-0.397583	
-0.398376	
-0.397949	
-0.397522	
-0.397095	
-0.397522	
-0.397461	
-0.397766	
-0.397705	
-0.396545	
-0.397827	
-0.397888	
-0.398254	
-0.398499	
-0.398254	
-0.39801	
-0.398254	
-0.399109	
-0.397888	
-0.39856	
-0.397278	
-0.398376	
-0.372864	
-0.375549	
-0.381409	
-0.382263	
-0.383423	
-0.383545	
-0.414917	
-0.405823	
-0.400879	
-0.397827	
-0.398376	
-0.398499	
-0.397461	
-0.396973	
-0.397034	
-0.396545	
-0.39563	
-0.397217	
-0.397156	
-0.397095	
-0.396057	
-0.395447	
-0.396301	
-0.395813	
-0.396484	
-0.39624	
-0.396118	
-0.395569	
-0.39801	
-0.39801	
-0.396606	
-0.397217	
-0.396912	
-0.397034	
-0.396973	
-0.397705	
-0.398499	
-0.398682	
-0.398132	
-0.400269	
-0.37262	
-0.377869	
-0.382874	
-0.385071	
-0.385681	
-0.385437	
-0.418884	
-0.40741	
-0.402771	
-0.40033	
-0.400085	
-0.400085	
-0.400024	
-0.399048	
-0.399109	
-0.399414	
-0.401306	
-0.40387	
-0.405884	
-0.409546	
-0.413208	
-0.418457	
-0.423096	
-0.427979	
-0.431396	
-0.436768	
-0.441895	
-0.448242	
-0.456726	
-0.462585	
-0.469421	
-0.47583	
-0.483582	
-0.487915	
-0.492188	
-0.494934	
-0.497803	
-0.499634	
-0.502258	
-0.504211	
-0.502686	
-0.501648	
-0.500244	
-0.501282	
-0.499573	
-0.497925	
-0.494263	
-0.49292	
-0.489929	
-0.488403	
-0.486572	
-0.481628	
-0.477905	
-0.473206	
-0.4729	
-0.469666	
-0.466858	
-0.464233	
-0.463745	
-0.463928	
-0.464783	
-0.466919	
-0.466492	
-0.468384	
-0.471008	
-0.474854	
-0.477356	
-0.480408	
-0.480652	
-0.481995	
-0.483093	
-0.484558	
-0.485535	
-0.482727	
-0.481079	
-0.476807	
-0.475586	
-0.4729	
-0.469421	
-0.465088	
-0.462219	
-0.458801	
-0.455933	
-0.455383	
-0.451294	
-0.449036	
-0.447449	
-0.447632	
-0.44635	
-0.446106	
-0.444336	
-0.44458	
-0.444702	
-0.445068	
-0.445679	
-0.443542	
-0.441223	
-0.439209	
-0.439514	
-0.436218	
-0.433533	
-0.429565	
-0.424927	
-0.421143	
-0.417175	
-0.413757	
-0.407593	
-0.40271	
-0.3974	
-0.392761	
-0.386414	
-0.380554	
-0.372742	
-0.365601	
-0.357727	
-0.350281	
-0.343994	
-0.335205	
-0.326416	
-0.317383	
-0.309143	
-0.301941	
-0.29425	
-0.286682	
-0.27832	
-0.271912	
-0.266296	
-0.262634	
-0.259338	
-0.257751	
-0.256104	
-0.255371	
-0.256897	
-0.257813	
-0.25946	
-0.261902	
-0.263367	
-0.266846	
-0.271912	
-0.274353	
-0.278259	
-0.282104	
-0.288879	
-0.294312	
-0.300842	
-0.306763	
-0.313171	
-0.320129	
-0.327759	
-0.33429	
-0.338867	
-0.344543	
-0.34906	
-0.354126	
-0.357849	
-0.361084	
-0.362366	
-0.363098	
-0.365662	
-0.368042	
-0.367493	
-0.367432	
-0.36792	
-0.36969	
-0.36969	
-0.369324	
-0.3703	
-0.372131	
-0.373535	
-0.374695	
-0.378357	
-0.379639	
-0.381836	
-0.38324	
-0.386841	
-0.38916	
-0.390686	
-0.391724	
-0.393311	
-0.395935	
-0.397095	
-0.398315	
-0.398865	
-0.398926	
-0.398865	
-0.39978	
-0.399414	
-0.398682	
-0.3974	
-0.395508	
-0.394104	
-0.393433	
-0.390198	
-0.388062	
-0.385864	
-0.383972	
-0.381897	
-0.379028	
-0.37616	
-0.373169	
-0.370605	
-0.367554	
-0.365417	
-0.361023	
-0.357849	
-0.355103	
-0.352661	
-0.348206	
-0.344482	
-0.341614	
-0.336792	
-0.334717	
-0.331482	
-0.328491	
-0.325745	
-0.324036	
-0.321411	
-0.322144	
-0.320984	
-0.320984	
-0.322083	
-0.32373	
-0.325684	
-0.327393	
-0.33075	
-0.333008	
-0.33551	
-0.338501	
-0.342285	
-0.344177	
-0.347168	
-0.349915	
-0.352356	
-0.354553	
-0.357605	
-0.360474	
-0.361511	
-0.363403	
-0.365234	
-0.367676	
-0.368958	
-0.370422	
-0.371216	
-0.372925	
-0.374084	
-0.374817	
-0.375549	
-0.376282	
-0.37677	
-0.378479	
-0.378967	
-0.379272	
-0.379456	
-0.37915	
-0.380798	
-0.380981	
-0.38092	
-0.381165	
-0.38092	
-0.379211	
-0.380615	
-0.380066	
-0.380249	
-0.379639	
-0.379272	
-0.379517	
-0.379211	
-0.378845	
-0.378601	
-0.378418	
-0.378784	
-0.378967	
-0.37793	
-0.377075	
-0.377808	
-0.377808	
-0.377625	
-0.378662	
-0.377502	
-0.377319	
-0.376892	
-0.378174	
-0.378174	
-0.377686	
-0.376953	
-0.377441	
-0.377747	
-0.378723	
-0.379272	
-0.379272	
-0.378845	
-0.379639	
-0.380066	
-0.3797	
-0.380798	
-0.380798	
-0.381348	
-0.381653	
-0.38269	
-0.38269	
-0.381775	
-0.381775	
-0.381531	
-0.38208	
-0.382385	
-0.382385	
-0.382751	
-0.382751	
-0.383301	
-0.384216	
-0.383728	
-0.38324	
-0.382751	
-0.382874	
-0.382996	
-0.382507	
-0.382263	
-0.382019	
-0.381653	
-0.381531	
-0.381958	
-0.381165	
-0.380432	
-0.379944	
-0.3797	
-0.38092	
-0.380127	
-0.380066	
-0.380615	
-0.380432	
-0.3797	
-0.380127	
-0.38031	
-0.378967	
-0.378906	
-0.379395	
-0.380371	
-0.380432	
-0.380188	
-0.38092	
-0.381653	
-0.381653	
-0.382507	
-0.382874	
-0.381653	
-0.381409	
-0.382813	
-0.385925	
-0.384705	
-0.383545	
-0.38501	
-0.385437	
-0.385864	
-0.386108	
-0.385254	
-0.383545	
-0.384888	
-0.38501	
-0.385681	
-0.384705	
-0.384827	
-0.384155	
-0.38501	
-0.384644	
-0.384216	
-0.384277	
-0.383545	
-0.384644	
-0.384094	
-0.384705	
-0.384705	
-0.384399	
-0.383362	
-0.384705	
-0.385681	
-0.384827	
-0.384216	
-0.384216	
-0.385254	
-0.384399	
-0.384216	
-0.383301	
-0.383728	
-0.382996	
-0.384155	
-0.384216	
-0.384277	
-0.382935	
-0.381592	
-0.383118	
-0.383362	
-0.382385	
-0.381653	
-0.381836	
-0.38208	
-0.382568	
-0.382507	
-0.382141	
-0.381897	
-0.380066	
-0.380737	
-0.383179	
-0.382385	
-0.382507	
-0.382629	
-0.383118	
-0.384338	
-0.384827	
-0.384644	
-0.384888	
-0.383545	
-0.384949	
-0.386292	
-0.385254	
-0.386353	
-0.385498	
-0.386292	
-0.387207	
-0.387329	
-0.38739	
-0.387634	
-0.386292	
-0.387939	
-0.388672	
-0.387573	
-0.388306	
-0.388184	
-0.38855	
-0.389587	
-0.389404	
-0.38916	
-0.388855	
-0.386719	
-0.389282	
-0.38855	
-0.388306	
-0.388611	
-0.388977	
-0.389404	
-0.389221	
-0.389832	
-0.389099	
-0.389282	
-0.387573	
-0.389526	
-0.389282	
-0.388794	
-0.389038	
-0.389221	
-0.389648	
-0.390747	
-0.391174	
-0.391479	
-0.391174	
-0.388916	
-0.391907	
-0.390808	
-0.391235	
-0.390747	
-0.391052	
-0.391296	
-0.390808	
-0.391357	
-0.390381	
-0.390869	
-0.388428	
-0.392029	
-0.390564	
-0.389954	
-0.389832	
-0.390198	
-0.390076	
-0.390503	
-0.391296	
-0.389771	
-0.390076	
-0.387024	
-0.38916	
-0.388489	
-0.389038	
-0.388245	
-0.389221	
-0.38916	
-0.389709	
-0.390686	
-0.389404	
-0.39032	
-0.387024	
-0.389832	
-0.390137	
-0.390747	
-0.390747	
-0.390625	
-0.390686	
-0.391663	
-0.391663	
-0.391357	
-0.392029	
-0.390564	
-0.392456	
-0.391296	
-0.391724	
-0.392212	
-0.392029	
-0.392456	
-0.393433	
-0.392517	
-0.392761	
-0.392456	
-0.392517	
-0.392883	
-0.392151	
-0.392578	
-0.393982	
-0.393372	
-0.393127	
-0.395264	
-0.393677	
-0.393921	
-0.393616	
-0.393127	
-0.39386	
-0.393616	
-0.394226	
-0.394104	
-0.39447	
-0.394104	
-0.39563	
-0.394226	
-0.393738	
-0.393921	
-0.393616	
-0.394104	
-0.39386	
-0.394226	
-0.394653	
-0.394836	
-0.394409	
-0.395996	
-0.394653	
-0.395081	
-0.394592	
-0.393616	
-0.394897	
-0.394287	
-0.395264	
-0.395935	
-0.395447	
-0.394897	
-0.395813	
-0.395874	
-0.395752	
-0.394958	
-0.395142	
-0.395264	
-0.394958	
-0.39624	
-0.395874	
-0.395874	
-0.396545	
-0.396973	
-0.396545	
-0.396729	
-0.394653	
-0.395813	
-0.396484	
-0.395203	
-0.396545	
-0.396362	
-0.395569	
-0.39563	
-0.396057	
-0.395447	
-0.394836	
-0.392517	
-0.39386	
-0.393433	
-0.393066	
-0.393982	
-0.393494	
-0.394226	
-0.394592	
-0.394226	
-0.393921	
-0.394592	
-0.392395	
-0.394043	
-0.393982	
-0.392456	
-0.394958	
-0.394714	
-0.394653	
-0.395325	
-0.394958	
-0.395325	
-0.394592	
-0.395325	
-0.395447	
-0.39447	
-0.393311	
-0.395447	
-0.395996	
-0.395508	
-0.396545	
-0.396179	
-0.396179	
-0.396667	
-0.396362	
-0.395386	
-0.394348	
-0.394287	
-0.39624	
-0.396057	
-0.39624	
-0.397522	
-0.396179	
-0.396362	
-0.397156	
-0.397217	
-0.396545	
-0.396057	
-0.394775	
-0.396667	
-0.396729	
-0.396729	
-0.398499	
-0.397034	
-0.396729	
-0.397278	
-0.397339	
-0.396362	
-0.396179	
-0.394714	
-0.39624	
-0.39624	
-0.396729	
-0.397461	
-0.395752	
-0.395386	
-0.39502	
-0.396606	
-0.395264	
-0.394531	
-0.39386	
-0.39502	
-0.395203	
-0.395325	
-0.396362	
-0.395447	
-0.394836	
-0.394287	
-0.396362	
-0.395447	
-0.395081	
-0.394348	
-0.395508	
-0.395691	
-0.396606	
-0.396667	
-0.39563	
-0.396179	
-0.396667	
-0.397583	
-0.397217	
-0.397278	
-0.396423	
-0.397644	
-0.398438	
-0.399109	
-0.399536	
-0.39856	
-0.397949	
-0.399048	
-0.399414	
-0.398865	
-0.398376	
-0.396057	
-0.398621	
-0.398987	
-0.398987	
-0.397949	
-0.396729	
-0.396118	
-0.396362	
-0.397339	
-0.395569	
-0.394958	
-0.39386	
-0.395569	
-0.395264	
-0.395264	
-0.395935	
-0.394714	
-0.394592	
-0.394409	
-0.395813	
-0.395325	
-0.394836	
-0.393494	
-0.393982	
-0.394714	
-0.395935	
-0.395813	
-0.394287	
-0.394775	
-0.394836	
-0.396179	
-0.39447	
-0.39447	
-0.393311	
-0.393066	
-0.393982	
-0.394958	
-0.394775	
-0.393494	
-0.393188	
-0.393311	
-0.394104	
-0.393188	
-0.39325	
-0.392944	
-0.392273	
-0.393372	
-0.39447	
-0.394226	
-0.393677	
-0.393372	
-0.393677	
-0.395142	
-0.394958	
-0.39502	
-0.39447	
-0.39386	
-0.395447	
-0.396179	
-0.395691	
-0.396057	
-0.395203	
-0.396118	
-0.396729	
-0.396973	
-0.396179	
-0.396057	
-0.394714	
-0.395935	
-0.396484	
-0.396118	
-0.395386	
-0.394836	
-0.395752	
-0.395508	
-0.39624	
-0.395325	
-0.394653	
-0.392944	
-0.395691	
-0.394897	
-0.39447	
-0.395325	
-0.393738	
-0.394836	
-0.393738	
-0.395935	
-0.39502	
-0.395081	
-0.393555	
-0.394958	
-0.394714	
-0.39502	
-0.395508	
-0.393799	
-0.394287	
-0.394287	
-0.395752	
-0.39502	
-0.394958	
-0.393494	
-0.395386	
-0.394897	
-0.395142	
-0.395996	
-0.393799	
-0.394653	
-0.39447	
-0.395508	
-0.394104	
-0.393921	
-0.393127	
-0.394226	
-0.39447	
-0.394409	
-0.39447	
-0.393494	
-0.39386	
-0.394287	
-0.39563	
-0.393921	
-0.394104	
-0.393005	
-0.39386	
-0.394836	
-0.394531	
-0.394775	
-0.393494	
-0.394836	
-0.394714	
-0.396057	
-0.395447	
-0.39563	
-0.395203	
-0.395203	
-0.396545	
-0.395874	
-0.396423	
-0.395447	
-0.396423	
-0.396606	
-0.397705	
-0.397278	
-0.395996	
-0.394775	
-0.395508	
-0.395386	
-0.395325	
-0.395386	
-0.394409	
-0.395081	
-0.395325	
-0.395386	
-0.395081	
-0.394104	
-0.3927	
-0.393921	
-0.39447	
-0.39386	
-0.394043	
-0.393494	
-0.393494	
-0.394104	
-0.394104	
-0.395264	
-0.394043	
-0.392395	
-0.394226	
-0.394592	
-0.39386	
-0.394165	
-0.393799	
-0.394409	
-0.394104	
-0.394226	
-0.394287	
-0.393372	
-0.392212	
-0.393005	
-0.393616	
-0.392883	
-0.392761	
-0.392822	
-0.392639	
-0.393433	
-0.393372	
-0.393311	
-0.392822	
-0.391235	
-0.3927	
-0.392944	
-0.392578	
-0.392761	
-0.392883	
-0.392944	
-0.3927	
-0.392151	
-0.392517	
-0.391418	
-0.390808	
-0.391846	
-0.392883	
-0.392029	
-0.39209	
-0.392639	
-0.39209	
-0.392517	
-0.391846	
-0.391907	
-0.391418	
-0.390259	
-0.391907	
-0.391296	
-0.390747	
-0.391357	
-0.392334	
-0.390747	
-0.391479	
-0.391724	
-0.392212	
-0.390747	
-0.389893	
-0.390015	
-0.390991	
-0.391785	
-0.392151	
-0.392761	
-0.391418	
-0.392639	
-0.393066	
-0.393555	
-0.393372	
-0.392944	
-0.392883	
-0.393799	
-0.394653	
-0.393677	
-0.393799	
-0.393127	
-0.393982	
-0.393677	
-0.39447	
-0.39325	
-0.393311	
-0.391846	
-0.393494	
-0.393799	
-0.393005	
-0.393677	
-0.392578	
-0.393066	
-0.392456	
-0.393799	
-0.392456	
-0.392578	
-0.391602	
-0.392456	
-0.393311	
-0.391418	
-0.391663	
-0.391296	
-0.391846	
-0.391174	
-0.392761	
-0.391541	
-0.391541	
-0.390991	
-0.391602	
-0.391846	
-0.391846	
-0.391602	
-0.391296	
-0.391785	
-0.391724	
-0.391541	
-0.390686	
-0.390808	
-0.390442	
-0.39093	
-0.391052	
-0.39093	
-0.390747	
-0.391235	
-0.390808	
-0.390686	
-0.390747	
-0.390991	
-0.391479	
-0.391479	
-0.391724	
-0.391602	
-0.391846	
-0.391541	
-0.392151	
-0.391602	
-0.392212	
-0.391968	
-0.392151	
-0.391724	
-0.391785	
-0.391968	
-0.392273	
-0.392151	
-0.392395	
-0.392456	
-0.391602	
-0.392578	
-0.392334	
-0.391785	
-0.391418	
-0.391846	
-0.39209	
-0.392212	
-0.392456	
-0.391541	
-0.392395	
-0.391235	
-0.391602	
-0.392334	
-0.391602	
-0.389954	
-0.390381	
-0.390625	
-0.39032	
-0.390137	
-0.389465	
-0.389648	
-0.389221	
-0.389526	
-0.390381	
-0.389099	
-0.387939	
-0.388794	
-0.38916	
-0.389282	
-0.390259	
-0.389954	
-0.390869	
-0.39093	
-0.391602	
-0.393066	
-0.39209	
-0.391663	
-0.392334	
-0.392395	
-0.392151	
-0.39386	
-0.393433	
-0.393188	
-0.392883	
-0.394226	
-0.393982	
-0.392639	
-0.392151	
-0.392883	
-0.393372	
-0.393372	
-0.394226	
-0.393188	
-0.393433	
-0.392944	
-0.393738	
-0.394531	
-0.392639	
-0.393188	
-0.393372	
-0.393982	
-0.394165	
-0.394775	
-0.394043	
-0.394165	
-0.394653	
-0.395752	
-0.396301	
-0.393982	
-0.394348	
-0.394836	
-0.395264	
-0.39502	
-0.395874	
-0.395508	
-0.39563	
-0.395386	
-0.395142	
-0.396362	
-0.394409	
-0.393616	
-0.39325	
-0.393921	
-0.393494	
-0.393738	
-0.393127	
-0.392639	
-0.393372	
-0.392944	
-0.394653	
-0.392639	
-0.392944	
-0.390747	
-0.392883	
-0.3927	
-0.392761	
-0.392883	
-0.393127	
-0.393127	
-0.392639	
-0.394775	
-0.392456	
-0.392822	
-0.392578	
-0.393127	
-0.392883	
-0.393433	
-0.393555	
-0.393616	
-0.393616	
-0.392944	
-0.395447	
-0.393066	
-0.392944	
-0.392517	
-0.393005	
-0.392883	
-0.393921	
-0.393555	
-0.393127	
-0.394043	
-0.392761	
-0.395264	
-0.393372	
-0.392883	
-0.392395	
-0.392944	
-0.393127	
-0.393555	
-0.394043	
-0.392822	
-0.39325	
-0.392883	
-0.39502	
-0.394104	
-0.393982	
-0.393494	
-0.393433	
-0.394897	
-0.395325	
-0.395691	
-0.395081	
-0.395081	
-0.394897	
-0.395935	
-0.395508	
-0.394348	
-0.394104	
-0.393982	
-0.394775	
-0.394226	
-0.394775	
-0.394409	
-0.394165	
-0.393982	
-0.394714	
-0.394043	
-0.392456	
-0.392761	
-0.392273	
-0.392883	
-0.393005	
-0.392456	
-0.392273	
-0.392456	
-0.39209	
-0.3927	
-0.392456	
-0.390686	
-0.391602	
-0.391663	
-0.392517	
-0.392456	
-0.392822	
-0.393188	
-0.393005	
-0.392822	
-0.392639	
-0.394165	
-0.392761	
-0.393311	
-0.392944	
-0.394287	
-0.394165	
-0.394409	
-0.395264	
-0.394958	
-0.394653	
-0.394653	
-0.395264	
-0.393494	
-0.394104	
-0.39325	
-0.395325	
-0.395142	
-0.395569	
-0.395874	
-0.395569	
-0.396179	
-0.394775	
-0.396729	
-0.39502	
-0.395447	
-0.394836	
-0.395691	
-0.395874	
-0.396606	
-0.397461	
-0.397034	
-0.396912	
-0.395264	
-0.396423	
-0.395142	
-0.395264	
-0.395081	
-0.395447	
-0.395874	
-0.395264	
-0.396423	
-0.396423	
-0.397217	
-0.396423	
-0.39679	
-0.396179	
-0.396912	
-0.395752	
-0.395264	
-0.396484	
-0.396301	
-0.397461	
-0.397278	
-0.397095	
-0.396301	
-0.397522	
-0.397766	
-0.3974	
-0.396118	
-0.396179	
-0.397095	
-0.397461	
-0.398254	
-0.397766	
-0.398254	
-0.397278	
-0.398132	
-0.398071	
-0.397766	
-0.397156	
-0.396729	
-0.398254	
-0.397583	
-0.397949	
-0.3974	
-0.398132	
-0.397522	
-0.397705	
-0.397827	
-0.396179	
-0.395142	
-0.394958	
-0.395386	
-0.395203	
-0.395386	
-0.395508	
-0.396545	
-0.395264	
-0.395569	
-0.396729	
-0.395386	
-0.39502	
-0.394958	
-0.395691	
-0.395386	
-0.395996	
-0.395813	
-0.396667	
-0.39624	
-0.396423	
-0.397827	
-0.396118	
-0.396179	
-0.396606	
-0.396729	
-0.396423	
-0.397461	
-0.397583	
-0.397949	
-0.397156	
-0.396667	
-0.397766	
-0.397278	
-0.396851	
-0.396545	
-0.396912	
-0.397583	
-0.397339	
-0.397156	
-0.39801	
-0.397095	
-0.39679	
-0.397705	
-0.3974	
-0.397522	
-0.397461	
-0.397278	
-0.397888	
-0.398132	
-0.398499	
-0.398743	
-0.398315	
-0.398132	
-0.397949	
-0.397888	
-0.397217	
-0.397278	
-0.397095	
-0.397705	
-0.397949	
-0.398132	
-0.397827	
-0.397278	
-0.39679	
-0.397217	
-0.397278	
-0.39624	
-0.395386	
-0.39447	
-0.395813	
-0.396057	
-0.396912	
-0.396667	
-0.396301	
-0.395752	
-0.395813	
-0.397339	
-0.396606	
-0.394653	
-0.394348	
-0.39679	
-0.397095	
-0.398071	
-0.398193	
-0.396851	
-0.39624	
-0.396912	
-0.39856	
-0.397217	
-0.396667	
-0.397339	
-0.398193	
-0.399109	
-0.399902	
-0.400391	
-0.399292	
-0.399597	
-0.399536	
-0.40094	
-0.399231	
-0.398315	
-0.398865	
-0.399536	
-0.399841	
-0.400696	
-0.399902	
-0.39856	
-0.39801	
-0.39856	
-0.398254	
-0.397217	
-0.396423	
-0.395935	
-0.396851	
-0.396851	
-0.396606	
-0.395996	
-0.395752	
-0.395447	
-0.395996	
-0.396362	
-0.39563	
-0.394897	
-0.39502	
-0.39502	
-0.395386	
-0.396057	
-0.395874	
-0.395447	
-0.395203	
-0.395813	
-0.395874	
-0.395142	
-0.394775	
-0.394958	
-0.394409	
-0.394714	
-0.39563	
-0.395264	
-0.394775	
-0.393799	
-0.393616	
-0.394104	
-0.394226	
-0.393494	
-0.393372	
-0.392761	
-0.393982	
-0.394592	
-0.394043	
-0.39386	
-0.393433	
-0.394226	
-0.394592	
-0.394897	
-0.394409	
-0.393005	
-0.393738	
-0.395142	
-0.396545	
-0.395996	
-0.395935	
-0.395874	
-0.396362	
-0.396301	
-0.397644	
-0.396667	
-0.395386	
-0.396362	
-0.396301	
-0.397156	
-0.396118	
-0.396179	
-0.395386	
-0.396545	
-0.395935	
-0.396362	
-0.395325	
-0.394897	
-0.394165	
-0.395142	
-0.395935	
-0.395325	
-0.395752	
-0.394775	
-0.395142	
-0.396057	
-0.396118	
-0.395203	
-0.394775	
-0.393799	
-0.394836	
-0.39563	
-0.39502	
-0.395447	
-0.394409	
-0.395203	
-0.396179	
-0.396057	
-0.395203	
-0.394897	
-0.394348	
-0.394653	
-0.395447	
-0.395386	
-0.395752	
-0.394836	
-0.394958	
-0.39563	
-0.396179	
-0.395142	
-0.394714	
-0.394043	
-0.393616	
-0.394592	
-0.394348	
-0.394165	
-0.393921	
-0.394409	
-0.395142	
-0.394287	
-0.394226	
-0.394104	
-0.394104	
-0.393127	
-0.394836	
-0.394592	
-0.39447	
-0.394958	
-0.394409	
-0.395691	
-0.394409	
-0.395081	
-0.395264	
-0.39502	
-0.39447	
-0.396545	
-0.395813	
-0.396179	
-0.397034	
-0.395142	
-0.396423	
-0.396118	
-0.397278	
-0.396057	
-0.395752	
-0.394043	
-0.396301	
-0.39624	
-0.395386	
-0.395996	
-0.394531	
-0.395081	
-0.394714	
-0.395874	
-0.394714	
-0.393982	
-0.39325	
-0.394409	
-0.394775	
-0.393372	
-0.393982	
-0.393311	
-0.393555	
-0.393127	
-0.394958	
-0.393738	
-0.393311	
-0.392578	
-0.393738	
-0.394226	
-0.393738	
-0.394287	
-0.393555	
-0.393982	
-0.393982	
-0.394958	
-0.393005	
-0.392822	
-0.392944	
-0.393372	
-0.393127	
-0.392334	
-0.392883	
-0.392395	
-0.3927	
-0.392639	
-0.392944	
-0.392822	
-0.391785	
-0.391846	
-0.392883	
-0.392883	
-0.392029	
-0.391968	
-0.39209	
-0.390991	
-0.392517	
-0.392334	
-0.391785	
-0.390564	
-0.391418	
-0.391602	
-0.392212	
-0.392212	
-0.391663	
-0.392883	
-0.391052	
-0.392212	
-0.392151	
-0.390991	
-0.390625	
-0.391052	
-0.391052	
-0.390869	
-0.391663	
-0.391113	
-0.391968	
-0.391113	
-0.391785	
-0.391663	
-0.390686	
-0.390381	
-0.390137	
-0.389343	
-0.390503	
-0.391968	
-0.391052	
-0.391541	
-0.391174	
-0.3927	
-0.393372	
-0.392761	
-0.3927	
-0.392395	
-0.392151	
-0.393005	
-0.393433	
-0.39325	
-0.394165	
-0.393494	
-0.393738	
-0.393616	
-0.39386	
-0.393127	
-0.392273	
-0.392151	
-0.393677	
-0.39386	
-0.393433	
-0.392944	
-0.392273	
-0.392273	
-0.393311	
-0.392822	
-0.392273	
-0.391052	
-0.391785	
-0.392029	
-0.391724	
-0.391907	
-0.391724	
-0.390991	
-0.390381	
-0.392944	
-0.392273	
-0.391174	
-0.390015	
-0.390747	
-0.391541	
-0.391357	
-0.392456	
-0.391785	
-0.391174	
-0.390747	
-0.392273	
-0.391357	
-0.390503	
-0.390259	
-0.390564	
-0.390625	
-0.390747	
-0.391235	
-0.390686	
-0.390137	
-0.390503	
-0.392029	
-0.391052	
-0.391296	
-0.390869	
-0.39093	
-0.391357	
-0.391479	
-0.391724	
-0.391602	
-0.391907	
-0.391418	
-0.39209	
-0.391602	
-0.392273	
-0.391357	
-0.391724	
-0.392517	
-0.392395	
-0.392639	
-0.392761	
-0.391968	
-0.391785	
-0.392822	
-0.39093	
-0.391541	
-0.391846	
-0.391724	
-0.391724	
-0.391663	
-0.391235	
-0.391724	
-0.392212	
-0.391846	
-0.391907	
-0.391602	
-0.391541	
-0.391174	
-0.390259	
-0.390381	
-0.389832	
-0.389221	
-0.389587	
-0.390076	
-0.389221	
-0.388855	
-0.389282	
-0.388977	
-0.388916	
-0.388794	
-0.388855	
-0.389404	
-0.389465	
-0.389832	
-0.391235	
-0.390442	
-0.390747	
-0.391602	
-0.391541	
-0.391418	
-0.391174	
-0.391663	
-0.392395	
-0.392761	
-0.393738	
-0.393311	
-0.392761	
-0.392944	
-0.393372	
-0.392761	
-0.392456	
-0.391357	
-0.392944	
-0.392883	
-0.39325	
-0.394043	
-0.393066	
-0.392578	
-0.393799	
-0.394897	
-0.391846	
-0.39325	
-0.391418	
-0.393433	
-0.39325	
-0.393921	
-0.394897	
-0.394226	
-0.39502	
-0.394836	
-0.396545	
-0.393372	
-0.394592	
-0.393555	
-0.394958	
-0.394775	
-0.395081	
-0.396423	
-0.395447	
-0.395691	
-0.395325	
-0.397583	
-0.394165	
-0.394043	
-0.393555	
-0.393738	
-0.393616	
-0.393616	
-0.39325	
-0.392395	
-0.39386	
-0.392944	
-0.394104	
-0.392639	
-0.392273	
-0.391174	
-0.39209	
-0.392761	
-0.3927	
-0.393616	
-0.392944	
-0.393127	
-0.392761	
-0.393616	
-0.392456	
-0.392761	
-0.391907	
-0.393005	
-0.393066	
-0.393188	
-0.39325	
-0.393494	
-0.393799	
-0.393127	
-0.393188	
-0.3927	
-0.392761	
-0.391968	
	
