E:\DOCUMENTS AND SETTINGS\JPOTAS\MEUS DOCUMENTOS\UFRJ\RSCI-BM 12 WK SERIES\070720-RSCI-BM-04\RSCI-BM-04-LEMG\070720-RSCI-BM-LEMG-0015.ACQ
0.025000 msec/sample
1 channel
Analog input
Volts
CH1	
2000	
-0.39801	
-0.398254	
-0.397644	
-0.398315	
-0.398315	
-0.398376	
-0.398071	
-0.395691	
-0.396362	
-0.396484	
-0.396912	
-0.396606	
-0.397156	
-0.397278	
-0.398315	
-0.398315	
-0.396851	
-0.396667	
-0.395752	
-0.396423	
-0.39624	
-0.396851	
-0.397278	
-0.39679	
-0.396729	
-0.397644	
-0.398499	
-0.396912	
-0.39679	
-0.395264	
-0.396179	
-0.395996	
-0.396729	
-0.396851	
-0.396423	
-0.396667	
-0.397827	
-0.397888	
-0.396667	
-0.396362	
-0.395325	
-0.396667	
-0.396362	
-0.396667	
-0.39624	
-0.396423	
-0.396545	
-0.397644	
-0.397278	
-0.396973	
-0.396545	
-0.395203	
-0.395996	
-0.396545	
-0.396545	
-0.396423	
-0.396729	
-0.396729	
-0.397156	
-0.39679	
-0.39679	
-0.396973	
-0.39679	
-0.396667	
-0.396667	
-0.397217	
-0.396423	
-0.396484	
-0.396545	
-0.397095	
-0.397583	
-0.396912	
-0.397095	
-0.395508	
-0.396179	
-0.395691	
-0.395874	
-0.395996	
-0.395752	
-0.395752	
-0.396545	
-0.395874	
-0.39563	
-0.395264	
-0.394592	
-0.394775	
-0.394531	
-0.394836	
-0.39502	
-0.394958	
-0.394714	
-0.395081	
-0.394836	
-0.394775	
-0.395447	
-0.393921	
-0.39447	
-0.392517	
-0.393188	
-0.393677	
-0.393677	
-0.393311	
-0.394714	
-0.394653	
-0.394775	
-0.395081	
-0.393738	
-0.39447	
-0.393433	
-0.394958	
-0.39502	
-0.395081	
-0.394714	
-0.395996	
-0.395935	
-0.395386	
-0.39624	
-0.394653	
-0.395508	
-0.394165	
-0.395325	
-0.395447	
-0.395508	
-0.395813	
-0.396423	
-0.396118	
-0.395996	
-0.397217	
-0.394958	
-0.395386	
-0.393799	
-0.395691	
-0.395447	
-0.394897	
-0.396057	
-0.395874	
-0.396606	
-0.396179	
-0.397217	
-0.394897	
-0.39563	
-0.395203	
-0.395813	
-0.395935	
-0.39563	
-0.395752	
-0.396057	
-0.396667	
-0.396118	
-0.397766	
-0.394958	
-0.395508	
-0.394775	
-0.395813	
-0.395935	
-0.395447	
-0.395874	
-0.396484	
-0.397095	
-0.395813	
-0.39679	
-0.395081	
-0.395386	
-0.393738	
-0.39502	
-0.394958	
-0.395203	
-0.395325	
-0.395935	
-0.396973	
-0.395447	
-0.395569	
-0.393433	
-0.395203	
-0.39502	
-0.395996	
-0.395813	
-0.395447	
-0.395203	
-0.395874	
-0.397827	
-0.395813	
-0.395874	
-0.394287	
-0.394958	
-0.39563	
-0.395569	
-0.395569	
-0.395508	
-0.395264	
-0.395508	
-0.397461	
-0.395813	
-0.396118	
-0.394775	
-0.395081	
-0.395264	
-0.368164	
-0.370972	
-0.37677	
-0.378906	
-0.379333	
-0.38147	
-0.413269	
-0.404419	
-0.398132	
-0.395752	
-0.395142	
-0.395752	
-0.395874	
-0.395386	
-0.395447	
-0.395508	
-0.396729	
-0.395569	
-0.395569	
-0.395264	
-0.394897	
-0.393982	
-0.395325	
-0.395142	
-0.395081	
-0.39502	
-0.394897	
-0.395569	
-0.395142	
-0.395142	
-0.394043	
-0.394104	
-0.393555	
-0.394409	
-0.394653	
-0.394165	
-0.394043	
-0.394348	
-0.39502	
-0.393799	
-0.394287	
-0.393372	
-0.392517	
-0.393311	
-0.393311	
-0.392944	
-0.393433	
-0.393005	
-0.392578	
-0.3927	
-0.39209	
-0.392273	
-0.392151	
-0.391174	
-0.39386	
-0.395874	
-0.397583	
-0.401001	
-0.404968	
-0.409729	
-0.415344	
-0.420349	
-0.426331	
-0.430786	
-0.436279	
-0.442383	
-0.448608	
-0.454468	
-0.462708	
-0.47113	
-0.479309	
-0.489746	
-0.494568	
-0.500305	
-0.503174	
-0.508911	
-0.512878	
-0.516541	
-0.518494	
-0.51947	
-0.520874	
-0.520752	
-0.522034	
-0.520325	
-0.518982	
-0.514832	
-0.516113	
-0.514099	
-0.513	
-0.510925	
-0.508545	
-0.505371	
-0.502441	
-0.500183	
-0.496826	
-0.492188	
-0.486694	
-0.487244	
-0.485962	
-0.486633	
-0.486755	
-0.486816	
-0.487366	
-0.489563	
-0.490723	
-0.492432	
-0.493347	
-0.494019	
-0.495361	
-0.496826	
-0.497986	
-0.497314	
-0.496155	
-0.493835	
-0.491821	
-0.487976	
-0.484375	
-0.480042	
-0.476135	
-0.472412	
-0.469238	
-0.465515	
-0.46228	
-0.4599	
-0.457214	
-0.456421	
-0.454407	
-0.453125	
-0.450684	
-0.450439	
-0.449768	
-0.448792	
-0.448364	
-0.446228	
-0.444397	
-0.441956	
-0.440125	
-0.435669	
-0.432434	
-0.427551	
-0.423523	
-0.417969	
-0.412292	
-0.407166	
-0.401306	
-0.395386	
-0.389404	
-0.384827	
-0.377197	
-0.370667	
-0.362915	
-0.35498	
-0.347412	
-0.339478	
-0.332458	
-0.324646	
-0.317566	
-0.309082	
-0.300842	
-0.292053	
-0.283752	
-0.275024	
-0.265747	
-0.258545	
-0.252136	
-0.247314	
-0.242798	
-0.239868	
-0.237915	
-0.237244	
-0.236267	
-0.237	
-0.236877	
-0.238464	
-0.240356	
-0.242676	
-0.245239	
-0.248596	
-0.252441	
-0.256836	
-0.263	
-0.267761	
-0.272949	
-0.276245	
-0.28302	
-0.289673	
-0.295715	
-0.300903	
-0.30658	
-0.311768	
-0.317993	
-0.321533	
-0.324768	
-0.327087	
-0.331726	
-0.335327	
-0.338257	
-0.340759	
-0.343445	
-0.345398	
-0.34845	
-0.350159	
-0.351685	
-0.353333	
-0.353882	
-0.356384	
-0.356873	
-0.359375	
-0.360535	
-0.361694	
-0.363708	
-0.364807	
-0.365356	
-0.36615	
-0.365845	
-0.366577	
-0.367737	
-0.368408	
-0.369202	
-0.370117	
-0.370911	
-0.372498	
-0.372375	
-0.372375	
-0.372009	
-0.371582	
-0.372986	
-0.372437	
-0.373474	
-0.373901	
-0.373962	
-0.374451	
-0.375427	
-0.376099	
-0.375732	
-0.374329	
-0.37561	
-0.375854	
-0.375793	
-0.375244	
-0.375	
-0.375305	
-0.376709	
-0.376282	
-0.375793	
-0.375977	
-0.374634	
-0.375305	
-0.375488	
-0.375916	
-0.376099	
-0.375244	
-0.37561	
-0.376526	
-0.375793	
-0.375366	
-0.37439	
-0.373901	
-0.374695	
-0.374329	
-0.374634	
-0.374207	
-0.374634	
-0.374756	
-0.374878	
-0.374695	
-0.373962	
-0.372009	
-0.373169	
-0.373596	
-0.37262	
-0.37323	
-0.373474	
-0.373474	
-0.373413	
-0.373474	
-0.373596	
-0.372314	
-0.37207	
-0.371033	
-0.36261	
-0.347046	
-0.3526	
-0.355774	
-0.356873	
-0.357544	
-0.384766	
-0.381897	
-0.377075	
-0.373718	
-0.374207	
-0.375061	
-0.37561	
-0.375732	
-0.376099	
-0.376709	
-0.378479	
-0.377502	
-0.37738	
-0.377136	
-0.377686	
-0.378235	
-0.378174	
-0.378662	
-0.379456	
-0.379333	
-0.379517	
-0.379578	
-0.378906	
-0.379578	
-0.378052	
-0.379883	
-0.380127	
-0.38031	
-0.38031	
-0.381409	
-0.381165	
-0.38269	
-0.38208	
-0.381897	
-0.381775	
-0.381042	
-0.382568	
-0.382935	
-0.383423	
-0.383484	
-0.383545	
-0.38446	
-0.383362	
-0.382996	
-0.383118	
-0.383057	
-0.383972	
-0.385498	
-0.386963	
-0.389343	
-0.391663	
-0.395874	
-0.401489	
-0.405334	
-0.410583	
-0.416382	
-0.421082	
-0.427612	
-0.433289	
-0.439392	
-0.445313	
-0.452576	
-0.461609	
-0.468628	
-0.47522	
-0.481445	
-0.488159	
-0.493469	
-0.498291	
-0.502197	
-0.505188	
-0.507935	
-0.509277	
-0.511475	
-0.510498	
-0.509888	
-0.509155	
-0.50769	
-0.506958	
-0.504211	
-0.502686	
-0.500183	
-0.497498	
-0.495605	
-0.493896	
-0.489075	
-0.486572	
-0.485168	
-0.484314	
-0.483887	
-0.483276	
-0.484863	
-0.486206	
-0.487	
-0.489014	
-0.491516	
-0.490906	
-0.492065	
-0.493469	
-0.494629	
-0.495117	
-0.493347	
-0.493469	
-0.490845	
-0.488281	
-0.485962	
-0.483521	
-0.478821	
-0.475525	
-0.471497	
-0.469116	
-0.466736	
-0.462952	
-0.461975	
-0.460632	
-0.459412	
-0.458374	
-0.456665	
-0.454407	
-0.452454	
-0.449951	
-0.448181	
-0.445679	
-0.442566	
-0.440552	
-0.436768	
-0.433594	
-0.429626	
-0.423706	
-0.418152	
-0.413269	
-0.40625	
-0.401123	
-0.394409	
-0.387268	
-0.381104	
-0.373901	
-0.36676	
-0.358887	
-0.349365	
-0.340088	
-0.330688	
-0.321167	
-0.312805	
-0.303345	
-0.293152	
-0.284668	
-0.275208	
-0.266541	
-0.259583	
-0.250427	
-0.242859	
-0.237183	
-0.232605	
-0.230164	
-0.227295	
-0.226196	
-0.226013	
-0.225952	
-0.228149	
-0.229553	
-0.23114	
-0.233643	
-0.236389	
-0.242493	
-0.246826	
-0.252258	
-0.257996	
-0.264343	
-0.270935	
-0.278442	
-0.284119	
-0.290405	
-0.295959	
-0.301575	
-0.307861	
-0.313293	
-0.318787	
-0.323486	
-0.327332	
-0.332153	
-0.334839	
-0.337219	
-0.339355	
-0.343506	
-0.34613	
-0.34845	
-0.349365	
-0.351868	
-0.35437	
-0.356567	
-0.359436	
-0.359802	
-0.360596	
-0.361267	
-0.363953	
-0.365234	
-0.366089	
-0.367432	
-0.36792	
-0.369568	
-0.372314	
-0.37262	
-0.372375	
-0.371582	
-0.372375	
-0.374207	
-0.373596	
-0.373474	
-0.374817	
-0.375549	
-0.376099	
-0.37738	
-0.376587	
-0.376526	
-0.375977	
-0.376953	
-0.377014	
-0.377014	
-0.37738	
-0.37738	
-0.37738	
-0.378174	
-0.378662	
-0.377625	
-0.377747	
-0.376221	
-0.378662	
-0.378174	
-0.377319	
-0.378723	
-0.378845	
-0.379028	
-0.380859	
-0.379089	
-0.37915	
-0.378418	
-0.3797	
-0.379578	
-0.379578	
-0.380432	
-0.380005	
-0.38031	
-0.381287	
-0.382813	
-0.381226	
-0.381226	
-0.379272	
-0.381775	
-0.38147	
-0.381836	
-0.381409	
-0.382324	
-0.382324	
-0.383728	
-0.383423	
-0.382263	
-0.382874	
-0.381958	
-0.382324	
-0.381714	
-0.382568	
-0.382507	
-0.382507	
-0.382813	
-0.383789	
-0.382263	
-0.382019	
-0.3797	
-0.382446	
-0.381775	
-0.382141	
-0.382324	
-0.382629	
-0.382568	
-0.384033	
-0.382813	
-0.382935	
-0.380676	
-0.381287	
-0.381958	
-0.381775	
-0.381226	
-0.381958	
-0.382446	
-0.384094	
-0.383911	
-0.383301	
-0.38324	
-0.383667	
-0.383911	
-0.38324	
-0.384521	
-0.384644	
-0.384705	
-0.38501	
-0.385986	
-0.384705	
-0.38562	
-0.383667	
-0.385742	
-0.386047	
-0.385864	
-0.386108	
-0.386658	
-0.38739	
-0.388733	
-0.387634	
-0.387085	
-0.385376	
-0.385986	
-0.387024	
-0.38678	
-0.387146	
-0.387756	
-0.387695	
-0.388855	
-0.38855	
-0.38855	
-0.388245	
-0.386841	
-0.388123	
-0.387451	
-0.388489	
-0.388428	
-0.388855	
-0.388916	
-0.389587	
-0.390198	
-0.389709	
-0.388062	
-0.388794	
-0.389099	
-0.389404	
-0.389221	
-0.389221	
-0.389709	
-0.390869	
-0.390747	
-0.390015	
-0.390198	
-0.389648	
-0.389709	
-0.389832	
-0.390137	
-0.390015	
-0.390381	
-0.390747	
-0.391907	
-0.391052	
-0.390442	
-0.38916	
-0.389709	
-0.389832	
-0.389771	
-0.391235	
-0.391052	
-0.391052	
-0.391357	
-0.391968	
-0.392273	
-0.39093	
-0.389648	
-0.390869	
-0.391846	
-0.391907	
-0.391724	
-0.391846	
-0.391846	
-0.392151	
-0.392151	
-0.3927	
-0.391479	
-0.390259	
-0.390503	
-0.391846	
-0.392151	
-0.391663	
-0.391052	
-0.391846	
-0.393066	
-0.392578	
-0.393311	
-0.391785	
-0.391785	
-0.390381	
-0.392456	
-0.392822	
-0.391968	
-0.392212	
-0.392578	
-0.392944	
-0.392151	
-0.393005	
-0.392273	
-0.392273	
-0.391296	
-0.392639	
-0.392578	
-0.3927	
-0.392822	
-0.393677	
-0.393005	
-0.39386	
-0.392761	
-0.392456	
-0.392578	
-0.392334	
-0.392639	
-0.393005	
-0.392517	
-0.392639	
-0.392883	
-0.392578	
-0.393066	
-0.391907	
-0.391602	
-0.390259	
-0.391724	
-0.391418	
-0.391296	
-0.391602	
-0.392212	
-0.39209	
-0.392151	
-0.391602	
-0.389832	
-0.391052	
-0.389648	
-0.390869	
-0.390869	
-0.39093	
-0.390869	
-0.391418	
-0.390991	
-0.392151	
-0.391174	
-0.391479	
-0.390442	
-0.390503	
-0.392395	
-0.392151	
-0.391602	
-0.392334	
-0.392883	
-0.392151	
-0.392517	
-0.391968	
-0.392456	
-0.391968	
-0.392761	
-0.393311	
-0.393799	
-0.394165	
-0.394043	
-0.394714	
-0.394531	
-0.395691	
-0.393494	
-0.394165	
-0.392944	
-0.394775	
-0.39447	
-0.394531	
-0.394714	
-0.394714	
-0.394165	
-0.394409	
-0.394775	
-0.39386	
-0.393616	
-0.392822	
-0.394104	
-0.393921	
-0.394287	
-0.393799	
-0.393921	
-0.39386	
-0.395203	
-0.393188	
-0.39325	
-0.392578	
-0.39325	
-0.392639	
-0.393066	
-0.393555	
-0.392578	
-0.3927	
-0.392334	
-0.393555	
-0.392212	
-0.392212	
-0.391174	
-0.392273	
-0.391907	
-0.391907	
-0.393127	
-0.392212	
-0.392639	
-0.392456	
-0.39325	
-0.391296	
-0.391846	
-0.390869	
-0.392212	
-0.391602	
-0.391357	
-0.393188	
-0.392761	
-0.393311	
-0.391724	
-0.393799	
-0.392456	
-0.392395	
-0.391174	
-0.392395	
-0.393005	
-0.392944	
-0.392883	
-0.393005	
-0.393616	
-0.392822	
-0.39325	
-0.392029	
-0.392395	
-0.392273	
-0.393433	
-0.393188	
-0.393005	
-0.392822	
-0.393127	
-0.39386	
-0.394836	
-0.393372	
-0.392761	
-0.392029	
-0.39325	
-0.39325	
-0.393127	
-0.39325	
-0.392822	
-0.393372	
-0.393799	
-0.39386	
-0.393494	
-0.391907	
-0.393188	
-0.393616	
-0.393433	
-0.393494	
-0.394287	
-0.393311	
-0.393616	
-0.393921	
-0.393311	
-0.393127	
-0.392212	
-0.392334	
-0.393311	
-0.393372	
-0.394043	
-0.394226	
-0.39386	
-0.394226	
-0.39447	
-0.393738	
-0.393494	
-0.392395	
-0.394165	
-0.394287	
-0.394226	
-0.393921	
-0.393555	
-0.393799	
-0.394348	
-0.394348	
-0.393311	
-0.393188	
-0.392029	
-0.393433	
-0.393005	
-0.39325	
-0.393494	
-0.393555	
-0.393494	
-0.395325	
-0.394043	
-0.393555	
-0.392639	
-0.392822	
-0.393982	
-0.394043	
-0.393982	
-0.394653	
-0.394409	
-0.394653	
-0.395813	
-0.394592	
-0.394531	
-0.393921	
-0.395264	
-0.39502	
-0.395935	
-0.39563	
-0.395935	
-0.395996	
-0.396118	
-0.397156	
-0.396057	
-0.395813	
-0.394836	
-0.396667	
-0.396912	
-0.397217	
-0.3974	
-0.397949	
-0.397888	
-0.398071	
-0.398376	
-0.396851	
-0.396057	
-0.394958	
-0.396423	
-0.395996	
-0.395874	
-0.396179	
-0.396423	
-0.395935	
-0.396912	
-0.39679	
-0.395386	
-0.394958	
-0.393921	
-0.395386	
-0.395508	
-0.395386	
-0.395264	
-0.396851	
-0.395508	
-0.396606	
-0.395691	
-0.395142	
-0.393921	
-0.394287	
-0.394958	
-0.394592	
-0.394958	
-0.395386	
-0.395935	
-0.395874	
-0.396423	
-0.39502	
-0.394714	
-0.392334	
-0.394653	
-0.394897	
-0.394714	
-0.395081	
-0.395142	
-0.395569	
-0.395447	
-0.396118	
-0.394897	
-0.394958	
-0.393677	
-0.393982	
-0.394897	
-0.395203	
-0.395813	
-0.39624	
-0.396179	
-0.397217	
-0.396118	
-0.39563	
-0.396423	
-0.395325	
-0.395935	
-0.396545	
-0.396484	
-0.396301	
-0.397522	
-0.397766	
-0.398438	
-0.397217	
-0.396118	
-0.395142	
-0.396118	
-0.39624	
-0.396362	
-0.395874	
-0.396545	
-0.396118	
-0.395813	
-0.396667	
-0.395569	
-0.39563	
-0.395691	
-0.395935	
-0.395264	
-0.396057	
-0.396301	
-0.396057	
-0.39679	
-0.396545	
-0.396423	
-0.396179	
-0.395874	
-0.395325	
-0.396179	
-0.395813	
-0.395996	
-0.396301	
-0.396545	
-0.396729	
-0.397095	
-0.396912	
-0.395691	
-0.395081	
-0.396301	
-0.395386	
-0.39563	
-0.396057	
-0.396484	
-0.396973	
-0.397583	
-0.397827	
-0.397217	
-0.395203	
-0.395264	
-0.39624	
-0.395142	
-0.396301	
-0.396423	
-0.396179	
-0.396851	
-0.396851	
-0.397217	
-0.397705	
-0.395874	
-0.395874	
-0.39624	
-0.396362	
-0.396545	
-0.396606	
-0.396729	
-0.397217	
-0.397888	
-0.397278	
-0.397766	
-0.397278	
-0.396973	
-0.39679	
-0.397827	
-0.398376	
-0.398376	
-0.398315	
-0.399109	
-0.399719	
-0.398438	
-0.39978	
-0.39801	
-0.398743	
-0.39801	
-0.399353	
-0.399353	
-0.399109	
-0.399109	
-0.399963	
-0.400024	
-0.398987	
-0.400269	
-0.397339	
-0.398621	
-0.397217	
-0.398682	
-0.398315	
-0.398376	
-0.398987	
-0.399475	
-0.399292	
-0.398804	
-0.399597	
-0.397583	
-0.398132	
-0.396301	
-0.397583	
-0.397705	
-0.3974	
-0.397034	
-0.397644	
-0.396851	
-0.396484	
-0.396729	
-0.395447	
-0.396362	
-0.394165	
-0.396423	
-0.39624	
-0.396301	
-0.396606	
-0.397949	
-0.396729	
-0.396423	
-0.396179	
-0.39563	
-0.396362	
-0.395508	
-0.396484	
-0.396667	
-0.396729	
-0.397095	
-0.398621	
-0.397278	
-0.397705	
-0.396545	
-0.397095	
-0.397034	
-0.396606	
-0.397766	
-0.397644	
-0.397644	
-0.398254	
-0.400208	
-0.398132	
-0.399475	
-0.397339	
-0.39801	
-0.397949	
-0.398621	
-0.399231	
-0.398682	
-0.398804	
-0.399597	
-0.400879	
-0.39978	
-0.400024	
-0.397644	
-0.399353	
-0.399658	
-0.399658	
-0.40033	
-0.40033	
-0.400391	
-0.400757	
-0.401428	
-0.400391	
-0.399536	
-0.397949	
-0.39978	
-0.398987	
-0.399353	
-0.399475	
-0.39978	
-0.399048	
-0.399048	
-0.399048	
-0.399475	
-0.39917	
-0.396851	
-0.397583	
-0.3974	
-0.397827	
-0.397888	
-0.397827	
-0.398071	
-0.398865	
-0.398926	
-0.399231	
-0.398499	
-0.397461	
-0.396912	
-0.397522	
-0.398438	
-0.39856	
-0.398376	
-0.398193	
-0.398865	
-0.398987	
-0.398926	
-0.399048	
-0.396973	
-0.396667	
-0.3974	
-0.398254	
-0.398865	
-0.398804	
-0.398621	
-0.398926	
-0.398682	
-0.398438	
-0.398804	
-0.398193	
-0.398438	
-0.398499	
-0.398438	
-0.398254	
-0.398193	
-0.398071	
-0.398804	
-0.398804	
-0.398438	
-0.397827	
-0.397339	
-0.398071	
-0.396912	
-0.39801	
-0.398621	
-0.39856	
-0.398438	
-0.399902	
-0.39978	
-0.398682	
-0.398193	
-0.397888	
-0.398438	
-0.398315	
-0.398865	
-0.398682	
-0.398315	
-0.398376	
-0.400391	
-0.400146	
-0.398682	
-0.397766	
-0.397095	
-0.397827	
-0.397217	
-0.397461	
-0.398254	
-0.397583	
-0.3974	
-0.398987	
-0.39856	
-0.397278	
-0.395081	
-0.395386	
-0.396179	
-0.395752	
-0.396423	
-0.395996	
-0.395996	
-0.395996	
-0.397156	
-0.396912	
-0.395996	
-0.394714	
-0.395264	
-0.39502	
-0.394165	
-0.395264	
-0.395142	
-0.395203	
-0.395813	
-0.397034	
-0.396851	
-0.395935	
-0.395569	
-0.395935	
-0.396057	
-0.395203	
-0.396729	
-0.396423	
-0.396545	
-0.396912	
-0.398438	
-0.397583	
-0.396729	
-0.396423	
-0.396484	
-0.396851	
-0.395752	
-0.396667	
-0.39679	
-0.396912	
-0.397644	
-0.39856	
-0.397461	
-0.396667	
-0.395691	
-0.396301	
-0.396912	
-0.395935	
-0.396912	
-0.396912	
-0.396912	
-0.397583	
-0.397461	
-0.396545	
-0.396362	
-0.39563	
-0.395813	
-0.396667	
-0.395874	
-0.396973	
-0.396912	
-0.396667	
-0.3974	
-0.398071	
-0.396301	
-0.396057	
-0.395386	
-0.395996	
-0.396545	
-0.395203	
-0.396667	
-0.396973	
-0.396484	
-0.396973	
-0.396851	
-0.396301	
-0.395142	
-0.395935	
-0.396545	
-0.396545	
-0.39502	
-0.395142	
-0.395264	
-0.395691	
-0.396484	
-0.396606	
-0.39563	
-0.395752	
-0.395203	
-0.395813	
-0.395081	
-0.394592	
-0.396057	
-0.396484	
-0.396423	
-0.396729	
-0.396851	
-0.395691	
-0.395569	
-0.394287	
-0.396179	
-0.39563	
-0.394653	
-0.395386	
-0.395569	
-0.396667	
-0.396729	
-0.396606	
-0.395508	
-0.39563	
-0.394043	
-0.395386	
-0.395569	
-0.394714	
-0.395447	
-0.395691	
-0.397034	
-0.396362	
-0.396118	
-0.395142	
-0.395325	
-0.394287	
-0.395325	
-0.394531	
-0.393677	
-0.394897	
-0.395508	
-0.395752	
-0.39563	
-0.396362	
-0.394226	
-0.393982	
-0.393433	
-0.395447	
-0.394958	
-0.394592	
-0.395325	
-0.39502	
-0.395264	
-0.395569	
-0.394958	
-0.39447	
-0.393921	
-0.393066	
-0.394287	
-0.394165	
-0.393372	
-0.393799	
-0.394592	
-0.394043	
-0.393738	
-0.394043	
-0.393616	
-0.392944	
-0.391602	
-0.393005	
-0.393005	
-0.392944	
-0.392822	
-0.393982	
-0.392639	
-0.392517	
-0.391907	
-0.391724	
-0.391602	
-0.390991	
-0.392212	
-0.391479	
-0.391968	
-0.392456	
-0.393127	
-0.392517	
-0.392944	
-0.3927	
-0.392944	
-0.392883	
-0.391724	
-0.392639	
-0.392944	
-0.393555	
-0.393372	
-0.39386	
-0.393921	
-0.394226	
-0.39325	
-0.39386	
-0.394287	
-0.393127	
-0.394531	
-0.394592	
-0.39502	
-0.395203	
-0.395081	
-0.395264	
-0.395386	
-0.394348	
-0.394897	
-0.395813	
-0.393433	
-0.394104	
-0.394348	
-0.395081	
-0.39502	
-0.395142	
-0.395264	
-0.394836	
-0.393433	
-0.394409	
-0.394714	
-0.393188	
-0.393982	
-0.39325	
-0.393921	
-0.393555	
-0.39386	
-0.39325	
-0.393372	
-0.3927	
-0.393311	
-0.3927	
-0.391968	
-0.393188	
-0.392029	
-0.392395	
-0.392944	
-0.393005	
-0.392334	
-0.392822	
-0.391663	
-0.392334	
-0.391663	
-0.391357	
-0.391846	
-0.391663	
-0.392212	
-0.392029	
-0.392151	
-0.392151	
-0.391907	
-0.391724	
-0.392883	
-0.392273	
-0.391724	
-0.391235	
-0.392151	
-0.392334	
-0.392517	
-0.392822	
-0.393555	
-0.39325	
-0.391541	
-0.392761	
-0.391602	
-0.392395	
-0.392395	
-0.392822	
-0.392273	
-0.392578	
-0.392944	
-0.393921	
-0.39325	
-0.392212	
-0.393188	
-0.391968	
-0.392639	
-0.392822	
-0.392761	
-0.392395	
-0.392761	
-0.392761	
-0.393372	
-0.393127	
-0.392456	
-0.392578	
-0.391663	
-0.391968	
-0.392395	
-0.392883	
-0.392639	
-0.3927	
-0.392944	
-0.393127	
-0.392944	
-0.3927	
-0.391724	
-0.392395	
-0.391785	
-0.392212	
-0.393066	
-0.392639	
-0.392822	
-0.392883	
-0.3927	
-0.393066	
-0.392883	
-0.392395	
-0.392761	
-0.392639	
-0.392151	
-0.3927	
-0.393188	
-0.393311	
-0.393616	
-0.39386	
-0.39325	
-0.392761	
-0.392639	
-0.392517	
-0.392273	
-0.392578	
-0.392639	
-0.39209	
-0.392822	
-0.392761	
-0.392517	
-0.392578	
-0.392395	
-0.392517	
-0.392456	
-0.392578	
-0.392883	
-0.393127	
-0.392761	
-0.393311	
-0.393799	
-0.394104	
-0.393555	
-0.393616	
-0.392944	
-0.392883	
-0.393372	
-0.393311	
-0.39386	
-0.394165	
-0.395081	
-0.395264	
-0.395264	
-0.395081	
-0.39502	
-0.394531	
-0.394836	
-0.395203	
-0.394714	
-0.395264	
-0.395569	
-0.396057	
-0.396484	
-0.397217	
-0.396362	
-0.396729	
-0.395569	
-0.395325	
-0.395142	
-0.394592	
-0.394531	
-0.39502	
-0.395203	
-0.395325	
-0.395508	
-0.39563	
-0.394592	
-0.394226	
-0.394287	
-0.394226	
-0.393738	
-0.393982	
-0.393738	
-0.394165	
-0.394653	
-0.394287	
-0.393433	
-0.39386	
-0.393127	
-0.392639	
-0.392944	
-0.393555	
-0.39325	
-0.392883	
-0.394226	
-0.394653	
-0.394226	
-0.393982	
-0.393188	
-0.392639	
-0.391968	
-0.392029	
-0.392944	
-0.393372	
-0.393616	
-0.394165	
-0.394165	
-0.394287	
-0.393005	
-0.392456	
-0.392395	
-0.391663	
-0.392395	
-0.393494	
-0.393677	
-0.393921	
-0.394775	
-0.39386	
-0.394836	
-0.39386	
-0.393188	
-0.393555	
-0.393433	
-0.393738	
-0.394409	
-0.394775	
-0.395081	
-0.395569	
-0.394958	
-0.395264	
-0.393433	
-0.395203	
-0.394348	
-0.394287	
-0.393494	
-0.394409	
-0.394531	
-0.393921	
-0.393372	
-0.393738	
-0.394714	
-0.394226	
-0.394348	
-0.392944	
-0.394226	
-0.393311	
-0.393982	
-0.393616	
-0.394226	
-0.394775	
-0.394165	
-0.395081	
-0.394104	
-0.394958	
-0.393311	
-0.393982	
-0.39386	
-0.39386	
-0.393616	
-0.394348	
-0.395142	
-0.394653	
-0.394409	
-0.393982	
-0.394714	
-0.392578	
-0.393799	
-0.393738	
-0.394165	
-0.39386	
-0.39502	
-0.395081	
-0.394714	
-0.394653	
-0.393677	
-0.394714	
-0.392395	
-0.394226	
-0.394104	
-0.394226	
-0.394348	
-0.395508	
-0.39386	
-0.394348	
-0.393677	
-0.394226	
-0.394714	
-0.39386	
-0.394409	
-0.394043	
-0.39447	
-0.394104	
-0.395447	
-0.394836	
-0.394775	
-0.394226	
-0.395142	
-0.395569	
-0.394775	
-0.395325	
-0.395508	
-0.395752	
-0.396362	
-0.397522	
-0.396484	
-0.3974	
-0.395813	
-0.396484	
-0.396484	
-0.395935	
-0.39679	
-0.396606	
-0.396729	
-0.397095	
-0.398865	
-0.396912	
-0.397766	
-0.396179	
-0.396606	
-0.396484	
-0.396423	
-0.39624	
-0.396118	
-0.395935	
-0.39624	
-0.397522	
-0.395996	
-0.397461	
-0.395813	
-0.396362	
-0.395996	
-0.395935	
-0.395752	
-0.395325	
-0.395691	
-0.395142	
-0.396301	
-0.394531	
-0.395691	
-0.392761	
-0.393799	
-0.393433	
-0.394409	
-0.394226	
-0.394043	
-0.393616	
-0.394165	
-0.394592	
-0.39386	
-0.394958	
-0.391724	
-0.393677	
-0.393433	
-0.393921	
-0.39447	
-0.39447	
-0.394531	
-0.39447	
-0.395569	
-0.394775	
-0.395203	
-0.39325	
-0.394653	
-0.393311	
-0.394653	
-0.395264	
-0.395447	
-0.395264	
-0.395691	
-0.396362	
-0.395447	
-0.395996	
-0.394409	
-0.395813	
-0.395081	
-0.395935	
-0.396423	
-0.39624	
-0.396484	
-0.39679	
-0.397766	
-0.397461	
-0.397095	
-0.395813	
-0.396484	
-0.397278	
-0.397034	
-0.397522	
-0.397827	
-0.397644	
-0.397827	
-0.398926	
-0.398193	
-0.397339	
-0.396362	
-0.397095	
-0.397217	
-0.396545	
-0.396973	
	
