E:\DOCUMENTS AND SETTINGS\JPOTAS\MEUS DOCUMENTOS\UFRJ\RSCI-BM 12 WK SERIES\070720-RSCI-BM-04\RSCI-BM-04-LEMG\070720-RSCI-BM-LEMG-0009.ACQ
0.025000 msec/sample
1 channel
Analog input
Volts
CH1	
2000	
-0.397278	
-0.396973	
-0.396973	
-0.395691	
-0.396301	
-0.395325	
-0.396179	
-0.396667	
-0.397583	
-0.396851	
-0.397949	
-0.397583	
-0.3974	
-0.398193	
-0.396301	
-0.397522	
-0.396362	
-0.397278	
-0.397583	
-0.398193	
-0.398254	
-0.397766	
-0.398865	
-0.39856	
-0.398621	
-0.39624	
-0.39801	
-0.396912	
-0.396973	
-0.398193	
-0.398621	
-0.397888	
-0.398499	
-0.399597	
-0.398499	
-0.399048	
-0.397461	
-0.398254	
-0.397888	
-0.397949	
-0.398804	
-0.399353	
-0.398804	
-0.398193	
-0.39978	
-0.397705	
-0.398865	
-0.397095	
-0.397522	
-0.397095	
-0.396423	
-0.397949	
-0.398438	
-0.398865	
-0.398926	
-0.398682	
-0.398132	
-0.399109	
-0.396973	
-0.397644	
-0.3974	
-0.397522	
-0.398499	
-0.398254	
-0.398193	
-0.397766	
-0.399048	
-0.397583	
-0.398865	
-0.398315	
-0.39856	
-0.398376	
-0.397766	
-0.39856	
-0.398438	
-0.398743	
-0.398865	
-0.398865	
-0.397217	
-0.398865	
-0.398071	
-0.397034	
-0.397583	
-0.397705	
-0.397766	
-0.397766	
-0.398743	
-0.397766	
-0.398865	
-0.397705	
-0.398376	
-0.398254	
-0.397034	
-0.398376	
-0.398804	
-0.399902	
-0.399475	
-0.399597	
-0.399353	
-0.399963	
-0.399597	
-0.399963	
-0.399536	
-0.399292	
-0.400085	
-0.399414	
-0.399658	
-0.400208	
-0.400635	
-0.399841	
-0.400818	
-0.399902	
-0.399109	
-0.399292	
-0.398682	
-0.398743	
-0.397888	
-0.398926	
-0.398132	
-0.398682	
-0.399109	
-0.399109	
-0.399048	
-0.398376	
-0.399414	
-0.398743	
-0.39856	
-0.398071	
-0.398499	
-0.398132	
-0.398499	
-0.398315	
-0.39917	
-0.398987	
-0.397522	
-0.399231	
-0.397949	
-0.398132	
-0.397339	
-0.397522	
-0.397339	
-0.397339	
-0.397095	
-0.397644	
-0.396973	
-0.39502	
-0.397156	
-0.397156	
-0.396973	
-0.396606	
-0.397156	
-0.397217	
-0.397644	
-0.397888	
-0.398621	
-0.397339	
-0.397034	
-0.398376	
-0.397156	
-0.397156	
-0.397583	
-0.396667	
-0.39801	
-0.398621	
-0.398987	
-0.398804	
-0.398743	
-0.398376	
-0.398926	
-0.398865	
-0.397888	
-0.397766	
-0.397827	
-0.398499	
-0.398621	
-0.399231	
-0.399414	
-0.39856	
-0.397949	
-0.398865	
-0.398743	
-0.397156	
-0.397888	
-0.39856	
-0.39856	
-0.398438	
-0.399353	
-0.398438	
-0.398376	
-0.398193	
-0.399048	
-0.397522	
-0.396606	
-0.397583	
-0.397461	
-0.397461	
-0.397034	
-0.370361	
-0.374878	
-0.38031	
-0.381653	
-0.382751	
-0.381836	
-0.41449	
-0.404358	
-0.400391	
-0.398315	
-0.398865	
-0.398682	
-0.397705	
-0.397522	
-0.396606	
-0.397034	
-0.397156	
-0.397705	
-0.396912	
-0.397095	
-0.39679	
-0.397278	
-0.397522	
-0.397461	
-0.398071	
-0.397339	
-0.397827	
-0.396973	
-0.397461	
-0.396912	
-0.396606	
-0.396973	
-0.397156	
-0.3974	
-0.39624	
-0.39679	
-0.396057	
-0.395874	
-0.394287	
-0.395691	
-0.394958	
-0.393982	
-0.394958	
-0.394836	
-0.39502	
-0.39447	
-0.394714	
-0.39447	
-0.392761	
-0.393066	
-0.392456	
-0.392822	
-0.392639	
-0.393982	
-0.394897	
-0.395996	
-0.397949	
-0.400757	
-0.403076	
-0.406555	
-0.384949	
-0.394348	
-0.404419	
-0.41095	
-0.417358	
-0.423462	
-0.460815	
-0.458679	
-0.461792	
-0.467896	
-0.473816	
-0.480774	
-0.488525	
-0.493652	
-0.497375	
-0.50177	
-0.505615	
-0.508301	
-0.51001	
-0.511536	
-0.510559	
-0.509644	
-0.509888	
-0.509644	
-0.508728	
-0.50647	
-0.504944	
-0.50354	
-0.502014	
-0.499817	
-0.496826	
-0.493164	
-0.489075	
-0.485107	
-0.483032	
-0.479492	
-0.47699	
-0.475281	
-0.474426	
-0.47467	
-0.475281	
-0.476807	
-0.47699	
-0.477234	
-0.478638	
-0.481567	
-0.484558	
-0.48645	
-0.488342	
-0.489319	
-0.489868	
-0.490234	
-0.489563	
-0.486511	
-0.482361	
-0.479309	
-0.477295	
-0.472534	
-0.468323	
-0.464661	
-0.460999	
-0.457764	
-0.455017	
-0.452271	
-0.448425	
-0.446594	
-0.445129	
-0.44574	
-0.445557	
-0.44574	
-0.44519	
-0.446899	
-0.44751	
-0.448059	
-0.448364	
-0.447998	
-0.446167	
-0.444885	
-0.444885	
-0.442261	
-0.440125	
-0.43634	
-0.434998	
-0.431702	
-0.428528	
-0.425537	
-0.421143	
-0.415955	
-0.411255	
-0.409058	
-0.404114	
-0.398193	
-0.393555	
-0.388367	
-0.382141	
-0.376404	
-0.369446	
-0.360413	
-0.353088	
-0.345947	
-0.34021	
-0.332886	
-0.324951	
-0.318787	
-0.31311	
-0.308594	
-0.304626	
-0.302612	
-0.298828	
-0.29834	
-0.297546	
-0.298401	
-0.297913	
-0.297791	
-0.2995	
-0.30127	
-0.30304	
-0.306824	
-0.309998	
-0.313354	
-0.317932	
-0.322144	
-0.329346	
-0.333374	
-0.339905	
-0.344421	
-0.350586	
-0.355957	
-0.361023	
-0.365845	
-0.370239	
-0.375427	
-0.379211	
-0.38385	
-0.386047	
-0.39032	
-0.393005	
-0.39563	
-0.398132	
-0.40094	
-0.401611	
-0.402649	
-0.402954	
-0.404968	
-0.405762	
-0.405884	
-0.40741	
-0.40802	
-0.409119	
-0.410583	
-0.410583	
-0.410278	
-0.410034	
-0.410095	
-0.411499	
-0.41156	
-0.411194	
-0.410706	
-0.410461	
-0.40979	
-0.407837	
-0.406128	
-0.402954	
-0.40033	
-0.39856	
-0.396545	
-0.393494	
-0.390442	
-0.387878	
-0.383789	
-0.380676	
-0.377136	
-0.373718	
-0.368469	
-0.363403	
-0.359619	
-0.355103	
-0.350525	
-0.345032	
-0.340393	
-0.334839	
-0.330078	
-0.324402	
-0.319397	
-0.312378	
-0.306396	
-0.301453	
-0.297119	
-0.29303	
-0.289185	
-0.286133	
-0.282959	
-0.28186	
-0.279785	
-0.27771	
-0.276001	
-0.275513	
-0.274292	
-0.275696	
-0.275574	
-0.275208	
-0.27594	
-0.276733	
-0.278687	
-0.279236	
-0.279907	
-0.281006	
-0.284424	
-0.286072	
-0.290283	
-0.290955	
-0.295593	
-0.299988	
-0.304138	
-0.307922	
-0.311707	
-0.314087	
-0.317871	
-0.320496	
-0.325012	
-0.327942	
-0.330994	
-0.333191	
-0.335999	
-0.338928	
-0.340454	
-0.342224	
-0.343323	
-0.346008	
-0.347961	
-0.35022	
-0.350464	
-0.353027	
-0.353943	
-0.355774	
-0.356934	
-0.357605	
-0.357361	
-0.358459	
-0.359375	
-0.359985	
-0.360413	
-0.360229	
-0.360962	
-0.360901	
-0.363037	
-0.363892	
-0.363708	
-0.363647	
-0.363892	
-0.363098	
-0.364136	
-0.364014	
-0.364868	
-0.365051	
-0.36438	
-0.366028	
-0.365601	
-0.365112	
-0.365051	
-0.364624	
-0.365662	
-0.365906	
-0.366333	
-0.366577	
-0.366638	
-0.365234	
-0.36731	
-0.367859	
-0.367676	
-0.367004	
-0.367249	
-0.368713	
-0.368164	
-0.368835	
-0.369141	
-0.369385	
-0.368225	
-0.369934	
-0.369873	
-0.369934	
-0.368286	
-0.369202	
-0.369202	
-0.370056	
-0.3703	
-0.369995	
-0.369934	
-0.368896	
-0.37085	
-0.371155	
-0.370422	
-0.369202	
-0.369568	
-0.368774	
-0.370483	
-0.371155	
-0.370056	
-0.370483	
-0.371155	
-0.371887	
-0.371948	
-0.372864	
-0.371521	
-0.372009	
-0.371704	
-0.372925	
-0.374084	
-0.374023	
-0.374573	
-0.375793	
-0.377869	
-0.376831	
-0.37677	
-0.376343	
-0.377502	
-0.377686	
-0.379028	
-0.378784	
-0.379639	
-0.379822	
-0.379395	
-0.380493	
-0.380371	
-0.380676	
-0.381165	
-0.380676	
-0.381531	
-0.382141	
-0.382385	
-0.382141	
-0.382874	
-0.383301	
-0.382324	
-0.381775	
-0.380676	
-0.38269	
-0.382141	
-0.382507	
-0.383789	
-0.382813	
-0.38385	
-0.383972	
-0.38324	
-0.382874	
-0.382629	
-0.382385	
-0.382141	
-0.381958	
-0.382874	
-0.382141	
-0.38269	
-0.382874	
-0.382813	
-0.381775	
-0.381592	
-0.380676	
-0.382446	
-0.382568	
-0.383179	
-0.383972	
-0.382507	
-0.382996	
-0.383545	
-0.383606	
-0.383789	
-0.383606	
-0.384705	
-0.38501	
-0.384399	
-0.385315	
-0.385437	
-0.385864	
-0.387268	
-0.386414	
-0.385986	
-0.386536	
-0.385376	
-0.386292	
-0.386414	
-0.38678	
-0.387207	
-0.387451	
-0.388306	
-0.388184	
-0.388306	
-0.388245	
-0.389404	
-0.387207	
-0.388977	
-0.389099	
-0.389771	
-0.39032	
-0.389587	
-0.390503	
-0.390686	
-0.390076	
-0.389954	
-0.390442	
-0.389771	
-0.389709	
-0.389282	
-0.390686	
-0.391418	
-0.391235	
-0.391174	
-0.391541	
-0.390686	
-0.390625	
-0.390259	
-0.391052	
-0.391479	
-0.390381	
-0.391235	
-0.392151	
-0.392212	
-0.391235	
-0.391785	
-0.391357	
-0.392395	
-0.392151	
-0.3927	
-0.392822	
-0.393188	
-0.39386	
-0.394836	
-0.394714	
-0.394653	
-0.395142	
-0.39386	
-0.394592	
-0.394714	
-0.394836	
-0.394836	
-0.395386	
-0.395203	
-0.396729	
-0.395813	
-0.396301	
-0.395935	
-0.39502	
-0.395569	
-0.394958	
-0.395691	
-0.395508	
-0.396118	
-0.396362	
-0.397827	
-0.397095	
-0.396729	
-0.39563	
-0.396912	
-0.397644	
-0.39624	
-0.396545	
-0.396057	
-0.395935	
-0.395813	
-0.396851	
-0.396973	
-0.395874	
-0.395325	
-0.396912	
-0.396545	
-0.39624	
-0.396301	
-0.395691	
-0.396851	
-0.397461	
-0.396362	
-0.396667	
-0.396851	
-0.395569	
-0.39624	
-0.396606	
-0.397095	
-0.397278	
-0.3974	
-0.397705	
-0.398254	
-0.397827	
-0.397034	
-0.396545	
-0.397034	
-0.398743	
-0.397522	
-0.397034	
-0.397095	
-0.3974	
-0.397644	
-0.397583	
-0.397949	
-0.3974	
-0.397217	
-0.396301	
-0.397766	
-0.396545	
-0.396667	
-0.396179	
-0.397339	
-0.397827	
-0.398193	
-0.397888	
-0.39801	
-0.397949	
-0.398621	
-0.398132	
-0.397461	
-0.398926	
-0.399231	
-0.399292	
-0.400024	
-0.400208	
-0.399231	
-0.399414	
-0.399353	
-0.399841	
-0.399658	
-0.39856	
-0.398926	
-0.399292	
-0.399353	
-0.400024	
-0.399536	
-0.398865	
-0.398132	
-0.397034	
-0.399475	
-0.398438	
-0.397888	
-0.398315	
-0.398376	
-0.399048	
-0.399597	
-0.398621	
-0.398376	
-0.397705	
-0.398376	
-0.398926	
-0.398499	
-0.396973	
-0.398071	
-0.398926	
-0.398682	
-0.399475	
-0.398071	
-0.397583	
-0.397766	
-0.398682	
-0.398193	
-0.397461	
-0.396301	
-0.396362	
-0.396484	
-0.396667	
-0.398132	
-0.397095	
-0.396667	
-0.396423	
-0.397217	
-0.397522	
-0.397522	
-0.396179	
-0.396423	
-0.397217	
-0.397766	
-0.399292	
-0.397766	
-0.397583	
-0.396851	
-0.397827	
-0.397278	
-0.397522	
-0.397156	
-0.39801	
-0.398682	
-0.398376	
-0.399414	
-0.398499	
-0.398071	
-0.396729	
-0.399597	
-0.39801	
-0.398621	
-0.397461	
-0.398499	
-0.398743	
-0.398132	
-0.399231	
-0.398865	
-0.398376	
-0.397156	
-0.400085	
-0.396973	
-0.398132	
-0.398376	
-0.39856	
-0.398315	
-0.398804	
-0.399719	
-0.398376	
-0.397888	
-0.397217	
-0.398987	
-0.396606	
-0.397095	
-0.395935	
-0.397461	
-0.396973	
-0.396912	
-0.397888	
-0.396851	
-0.397034	
-0.396851	
-0.397278	
-0.396545	
-0.397644	
-0.397461	
-0.397034	
-0.397034	
-0.396851	
-0.397522	
-0.397095	
-0.397034	
-0.39679	
-0.3974	
-0.397095	
-0.396667	
-0.396606	
-0.397644	
-0.397705	
-0.397888	
-0.398865	
-0.397949	
-0.397156	
-0.397095	
-0.397644	
-0.396912	
-0.397339	
-0.397461	
-0.396851	
-0.396667	
-0.397278	
-0.397095	
-0.395935	
-0.395203	
-0.394958	
-0.394714	
-0.394592	
-0.393799	
-0.394104	
-0.393372	
-0.394043	
-0.394653	
-0.395264	
-0.394531	
-0.394043	
-0.393738	
-0.39325	
-0.393799	
-0.392822	
-0.392883	
-0.391663	
-0.393433	
-0.393616	
-0.393921	
-0.393677	
-0.393188	
-0.393921	
-0.393677	
-0.394775	
-0.393555	
-0.394165	
-0.393982	
-0.394104	
-0.394592	
-0.39624	
-0.395508	
-0.395752	
-0.396545	
-0.396667	
-0.397461	
-0.396851	
-0.397217	
-0.397034	
-0.397888	
-0.397644	
-0.398865	
-0.398193	
-0.397339	
-0.396545	
-0.397278	
-0.398254	
-0.397522	
-0.397583	
-0.397705	
-0.396973	
-0.397156	
-0.398193	
-0.397278	
-0.396729	
-0.395874	
-0.396362	
-0.397034	
-0.39624	
-0.396118	
-0.395508	
-0.395691	
-0.396301	
-0.396973	
-0.396301	
-0.39563	
-0.394653	
-0.395203	
-0.395447	
-0.394714	
-0.394592	
-0.39502	
-0.394836	
-0.394531	
-0.394531	
-0.394714	
-0.394165	
-0.391907	
-0.392761	
-0.393494	
-0.392578	
-0.39325	
-0.39325	
-0.393066	
-0.393372	
-0.393433	
-0.393921	
-0.392456	
-0.391296	
-0.392456	
-0.392822	
-0.392517	
-0.392639	
-0.392029	
-0.392456	
-0.39325	
-0.393311	
-0.39325	
-0.392822	
-0.391968	
-0.391907	
-0.392883	
-0.392883	
-0.392761	
-0.392395	
-0.392395	
-0.392151	
-0.392395	
-0.392151	
-0.391602	
-0.391357	
-0.390442	
-0.391846	
-0.391602	
-0.391418	
-0.39093	
-0.39093	
-0.391846	
-0.392029	
-0.391418	
-0.391174	
-0.390442	
-0.390076	
-0.391052	
-0.390686	
-0.390808	
-0.390015	
-0.390625	
-0.391174	
-0.391418	
-0.391357	
-0.390442	
-0.390869	
-0.390259	
-0.391113	
-0.390076	
-0.390076	
-0.389893	
-0.390198	
-0.391113	
-0.391357	
-0.39093	
-0.391235	
-0.391235	
-0.391174	
-0.391479	
-0.391052	
-0.390808	
-0.39093	
-0.391418	
-0.391785	
-0.391724	
-0.390625	
-0.389893	
-0.390137	
-0.390869	
-0.391541	
-0.39093	
-0.389648	
-0.390747	
-0.390869	
-0.391785	
-0.391418	
-0.39032	
-0.389648	
-0.390137	
-0.39093	
-0.391296	
-0.389832	
-0.389099	
-0.389832	
-0.390442	
-0.39093	
-0.391235	
-0.390442	
-0.389526	
-0.390137	
-0.390869	
-0.391296	
-0.390442	
-0.390076	
-0.390625	
-0.390564	
-0.391357	
-0.391724	
-0.391052	
-0.389832	
-0.389709	
-0.391113	
-0.391296	
-0.390015	
-0.389465	
-0.389465	
-0.389587	
-0.39032	
-0.390381	
-0.388916	
-0.388489	
-0.389099	
-0.39032	
-0.390381	
-0.389282	
-0.388977	
-0.389282	
-0.389099	
-0.389832	
-0.390564	
-0.389343	
-0.388306	
-0.389221	
-0.390442	
-0.390686	
-0.39032	
-0.389893	
-0.389648	
-0.389832	
-0.389832	
-0.391174	
-0.390137	
-0.38855	
-0.389587	
-0.390564	
-0.391235	
-0.39032	
-0.389832	
-0.389954	
-0.390503	
-0.391174	
-0.391357	
-0.390564	
-0.389404	
-0.389771	
-0.391174	
-0.391418	
-0.390442	
-0.39032	
-0.390991	
-0.391541	
-0.392578	
-0.393005	
-0.39209	
-0.391724	
-0.392151	
-0.393494	
-0.393616	
-0.392517	
-0.392517	
-0.391418	
-0.391846	
-0.392883	
-0.392639	
-0.391235	
-0.391235	
-0.390686	
-0.391663	
-0.392151	
-0.391541	
-0.391052	
-0.390808	
-0.39093	
-0.391418	
-0.392761	
-0.390869	
-0.390076	
-0.390381	
-0.390991	
-0.391235	
-0.390503	
-0.389587	
-0.389038	
-0.390381	
-0.390686	
-0.391541	
-0.389832	
-0.389954	
-0.389709	
-0.390381	
-0.389893	
-0.389587	
-0.390015	
-0.388733	
-0.390198	
-0.390503	
-0.391479	
-0.389954	
-0.389771	
-0.390198	
-0.391174	
-0.390503	
-0.390869	
-0.391174	
-0.390137	
-0.391235	
-0.392029	
-0.392517	
-0.392029	
-0.391968	
-0.391968	
-0.392822	
-0.392883	
-0.391907	
-0.391907	
-0.390686	
-0.392456	
-0.3927	
-0.393494	
-0.392456	
-0.39209	
-0.391785	
-0.391663	
-0.392578	
-0.391968	
-0.392273	
-0.391724	
-0.391785	
-0.392517	
-0.392517	
-0.391663	
-0.391174	
-0.39032	
-0.390991	
-0.392029	
-0.392029	
-0.390991	
-0.390808	
-0.391479	
-0.392151	
-0.39209	
-0.392212	
-0.391907	
-0.391846	
-0.392944	
-0.395386	
-0.394226	
-0.394287	
-0.39447	
-0.394653	
-0.395447	
-0.394714	
-0.395569	
-0.394287	
-0.394165	
-0.395691	
-0.395996	
-0.395569	
-0.395569	
-0.395264	
-0.39563	
-0.397156	
-0.39624	
-0.396973	
-0.395447	
-0.395935	
-0.395813	
-0.396057	
-0.395691	
-0.395142	
-0.394897	
-0.395142	
-0.396729	
-0.395081	
-0.395569	
-0.394287	
-0.394409	
-0.394531	
-0.394409	
-0.393555	
-0.392883	
-0.3927	
-0.392212	
-0.394165	
-0.391846	
-0.392151	
-0.391113	
-0.391663	
-0.391602	
-0.392334	
-0.391968	
-0.391113	
-0.391663	
-0.390259	
-0.3927	
-0.391907	
-0.392456	
-0.390625	
-0.392273	
-0.392212	
-0.392578	
-0.393188	
-0.393311	
-0.392944	
-0.392761	
-0.394836	
-0.393982	
-0.393799	
-0.39209	
-0.393616	
-0.393799	
-0.393799	
-0.393738	
-0.39386	
-0.393799	
-0.393616	
-0.395081	
-0.394104	
-0.394775	
-0.393494	
-0.394958	
-0.395203	
-0.395203	
-0.396179	
-0.395813	
-0.394226	
-0.395447	
-0.396729	
-0.39624	
-0.396423	
-0.395203	
-0.396545	
-0.396484	
-0.397461	
-0.397705	
-0.39679	
-0.396423	
-0.397217	
-0.398132	
-0.397339	
-0.397217	
-0.395874	
-0.396606	
-0.397156	
-0.398254	
-0.398499	
-0.397217	
-0.396362	
-0.397034	
-0.396912	
-0.39679	
-0.396606	
-0.396423	
-0.397461	
-0.3974	
-0.398315	
-0.39856	
-0.397766	
-0.398254	
-0.398193	
-0.398376	
-0.398804	
-0.398682	
-0.397888	
-0.39856	
-0.398071	
-0.398621	
-0.399963	
-0.398804	
-0.398071	
-0.399231	
-0.398743	
-0.399536	
-0.398926	
-0.397949	
-0.398926	
-0.398621	
-0.398926	
-0.399597	
-0.398621	
-0.398987	
-0.399902	
-0.399719	
-0.399536	
-0.399658	
-0.39917	
-0.39978	
-0.399231	
-0.398865	
-0.39978	
-0.398315	
-0.398865	
-0.398621	
-0.397522	
-0.39856	
-0.398682	
-0.398376	
-0.398254	
-0.398743	
-0.398682	
-0.399841	
-0.398621	
-0.398499	
-0.398254	
-0.398621	
-0.398865	
-0.39856	
-0.39917	
-0.399231	
-0.399048	
-0.398254	
-0.400085	
-0.399048	
-0.399597	
-0.400208	
-0.399719	
-0.399292	
-0.399048	
-0.39978	
-0.399414	
-0.398987	
-0.398376	
-0.400269	
-0.398865	
-0.398926	
-0.399231	
-0.398804	
-0.398438	
-0.398376	
-0.398926	
-0.398376	
-0.398987	
-0.398132	
-0.400391	
-0.399109	
-0.400085	
-0.399353	
-0.399536	
-0.399963	
-0.398621	
-0.400452	
-0.400269	
-0.400513	
-0.398987	
-0.401428	
-0.400513	
-0.400818	
-0.400757	
-0.401306	
-0.400574	
-0.39978	
-0.401306	
-0.400574	
-0.400391	
-0.399902	
-0.402344	
-0.400513	
-0.400452	
-0.399841	
-0.400085	
-0.400146	
-0.399658	
-0.400818	
-0.399902	
-0.39917	
-0.399109	
-0.401001	
-0.399719	
-0.400024	
-0.399475	
-0.399658	
-0.39917	
-0.399353	
-0.399902	
-0.399658	
-0.399536	
-0.398743	
-0.400635	
-0.399231	
-0.399719	
-0.398499	
-0.39917	
-0.399048	
-0.397888	
-0.398376	
-0.398376	
-0.398193	
-0.397217	
-0.399231	
-0.397522	
-0.397766	
-0.397339	
-0.398254	
-0.398132	
-0.397583	
-0.39856	
-0.399048	
-0.398743	
-0.398499	
-0.400085	
-0.398682	
-0.398499	
-0.397888	
-0.398804	
-0.398315	
-0.398193	
-0.398438	
-0.398865	
-0.399475	
-0.398743	
-0.399597	
-0.39917	
-0.399475	
-0.398376	
-0.399902	
-0.399292	
-0.399475	
-0.398499	
-0.399597	
-0.399658	
-0.399109	
-0.400146	
-0.39978	
-0.399353	
-0.39801	
-0.399536	
-0.398926	
-0.398865	
-0.398804	
-0.399658	
-0.398926	
-0.399414	
-0.399536	
-0.398804	
-0.399048	
-0.397888	
-0.399048	
-0.398071	
-0.398987	
-0.397949	
-0.39801	
-0.398071	
-0.397766	
-0.397522	
-0.39801	
-0.398438	
-0.397278	
-0.398804	
-0.397705	
-0.397217	
-0.397949	
-0.39856	
-0.398071	
-0.397705	
-0.397095	
-0.39801	
-0.397888	
-0.39624	
-0.39801	
-0.397705	
-0.397095	
-0.398071	
-0.397461	
-0.397888	
-0.398071	
-0.398132	
-0.398071	
-0.39856	
-0.397522	
-0.398315	
-0.397766	
-0.397095	
-0.39801	
-0.397888	
-0.397522	
-0.398132	
-0.396667	
-0.396362	
-0.396118	
-0.395081	
-0.395752	
-0.395203	
-0.394226	
-0.395081	
-0.394958	
-0.394897	
-0.395142	
-0.394592	
-0.394226	
-0.394043	
-0.393738	
-0.394409	
-0.394165	
-0.392822	
-0.393799	
-0.394226	
-0.393555	
-0.393616	
-0.393677	
-0.39386	
-0.393616	
-0.393799	
-0.394287	
-0.394104	
-0.393921	
-0.394348	
-0.395203	
-0.394653	
-0.394714	
-0.394897	
-0.395142	
-0.395813	
-0.396606	
-0.39624	
-0.39679	
-0.397156	
-0.397583	
-0.398193	
-0.397705	
-0.397949	
-0.397888	
-0.398682	
-0.397766	
-0.398254	
-0.397827	
-0.397949	
-0.397522	
-0.397766	
-0.398682	
-0.397888	
-0.397888	
-0.397644	
-0.397827	
-0.397278	
-0.397766	
-0.396851	
-0.396912	
-0.396545	
-0.396667	
-0.396606	
-0.396362	
-0.396423	
-0.395325	
-0.396912	
-0.396118	
-0.396667	
-0.395996	
-0.395691	
-0.395447	
-0.395203	
-0.395386	
-0.394958	
-0.394348	
-0.393311	
-0.395691	
-0.394287	
-0.394775	
-0.393799	
-0.393677	
-0.39325	
-0.393555	
-0.393799	
-0.393372	
-0.392944	
-0.392151	
-0.394409	
-0.39325	
-0.393921	
-0.392517	
-0.392822	
-0.392944	
-0.392212	
-0.392639	
-0.392944	
-0.392639	
-0.391846	
-0.393677	
-0.392517	
-0.393616	
-0.391968	
-0.393066	
-0.393005	
-0.393066	
-0.393066	
-0.392944	
-0.392334	
-0.391357	
-0.393555	
-0.392151	
-0.392334	
-0.391174	
-0.391418	
-0.391602	
-0.391541	
-0.391663	
-0.391418	
-0.391052	
-0.390015	
-0.392517	
-0.390869	
-0.391296	
-0.390747	
-0.391296	
-0.390564	
-0.39093	
-0.390198	
-0.390991	
-0.390381	
-0.389587	
-0.392517	
-0.390808	
-0.39093	
-0.390625	
-0.390869	
-0.390381	
-0.390869	
-0.389587	
-0.390137	
-0.390137	
-0.389954	
-0.391663	
-0.391235	
-0.391724	
-0.391174	
-0.391785	
-0.391418	
-0.391785	
-0.390198	
-0.391846	
-0.391357	
-0.391113	
-0.392029	
-0.390747	
-0.390747	
-0.391113	
-0.391602	
-0.391174	
-0.391235	
-0.390808	
-0.390381	
-0.39032	
-0.391235	
-0.391602	
-0.390503	
-0.390503	
-0.390015	
-0.390808	
-0.389587	
-0.390259	
-0.389465	
-0.390198	
-0.389954	
-0.390564	
-0.391296	
-0.390381	
-0.390686	
-0.389832	
-0.390747	
-0.390503	
-0.391113	
-0.390259	
-0.390198	
-0.390564	
-0.390503	
-0.391479	
-0.390808	
-0.390869	
-0.390076	
-0.391235	
-0.390259	
-0.390625	
-0.389587	
-0.389648	
-0.388977	
-0.389709	
-0.39032	
-0.388916	
-0.389343	
-0.389526	
-0.389648	
-0.388977	
-0.389954	
-0.389282	
-0.38916	
-0.389282	
-0.389526	
-0.390442	
-0.389038	
-0.389282	
-0.389526	
-0.389832	
-0.389954	
-0.389648	
-0.389526	
-0.389771	
-0.389587	
-0.390015	
-0.390747	
-0.389954	
-0.390076	
-0.389893	
-0.389832	
-0.390015	
-0.389832	
-0.390076	
-0.390137	
-0.389893	
-0.390076	
-0.391052	
-0.390808	
-0.390686	
-0.390442	
-0.389587	
-0.389893	
-0.390747	
-0.390747	
-0.390503	
-0.390686	
-0.392334	
-0.392517	
-0.392578	
-0.392517	
-0.3927	
-0.391541	
-0.392395	
-0.392517	
-0.39209	
-0.392029	
-0.391907	
-0.391357	
-0.392212	
-0.392151	
-0.391235	
-0.390991	
-0.391174	
-0.391479	
-0.391663	
-0.390991	
-0.390869	
-0.390564	
-0.391235	
-0.391479	
-0.391663	
-0.390686	
-0.390015	
-0.389771	
-0.390381	
-0.390625	
-0.390137	
-0.390137	
-0.390198	
-0.390259	
-0.390747	
-0.391113	
-0.390015	
-0.389404	
-0.390259	
-0.389954	
-0.390442	
-0.389648	
-0.390198	
-0.390198	
-0.39032	
-0.390076	
-0.391174	
-0.390808	
-0.390015	
-0.390564	
-0.391052	
-0.390564	
-0.390564	
-0.391418	
-0.391663	
-0.391846	
-0.391724	
-0.393127	
-0.392151	
-0.39209	
-0.392761	
-0.392395	
-0.392578	
-0.392578	
-0.392212	
-0.392334	
-0.392578	
-0.392212	
-0.392639	
-0.392883	
-0.393311	
-0.392944	
-0.393005	
-0.3927	
-0.393005	
-0.392151	
-0.391724	
-0.391052	
-0.392029	
-0.392273	
-0.391113	
-0.391724	
-0.391663	
-0.391174	
-0.391357	
-0.391907	
-0.391602	
-0.391663	
-0.390991	
-0.391785	
-0.39209	
-0.392761	
-0.394104	
-0.394104	
-0.393311	
-0.393982	
-0.395508	
-0.394958	
-0.394714	
-0.394958	
-0.395081	
-0.394653	
-0.395325	
-0.396606	
-0.395813	
-0.39447	
-0.395386	
-0.395935	
-0.395386	
-0.396118	
-0.396545	
-0.396118	
-0.396606	
-0.397278	
-0.396851	
-0.396729	
-0.396179	
-0.394897	
-0.395874	
-0.395508	
-0.395081	
-0.39502	
-0.395142	
-0.39563	
-0.395996	
-0.395447	
-0.395386	
-0.393799	
-0.392822	
-0.393127	
-0.39325	
-0.3927	
-0.39209	
-0.392578	
-0.392517	
-0.392334	
-0.391785	
-0.392639	
-0.392151	
-0.390564	
-0.391235	
-0.391846	
-0.391357	
-0.392029	
-0.391663	
-0.391846	
-0.392212	
-0.392212	
-0.393005	
-0.392273	
-0.391968	
-0.392212	
-0.393494	
-0.393799	
-0.393677	
-0.394104	
-0.394165	
-0.394287	
-0.393372	
-0.394165	
-0.394104	
-0.392029	
-0.393738	
-0.394653	
-0.394592	
-0.394287	
-0.394409	
-0.395203	
-0.395447	
-0.394165	
-0.395386	
-0.395447	
-0.393921	
-0.395874	
-0.396484	
-0.395996	
-0.396362	
-0.395813	
-0.396606	
-0.397034	
-0.39679	
-0.396851	
-0.396667	
-0.39447	
-0.39801	
-0.398071	
-0.398193	
-0.398193	
-0.397522	
-0.397095	
-0.3974	
-0.397888	
	
