E:\DOCUMENTS AND SETTINGS\JPOTAS\MEUS DOCUMENTOS\UFRJ\RSCI-BM 12 WK SERIES\070720-RSCI-BM-04\RSCI-BM-04-LEMG\070720-RSCI-BM-LEMG-0013.ACQ
0.025000 msec/sample
1 channel
Analog input
Volts
CH1	
2000	
-0.391724	
-0.393127	
-0.392944	
-0.393982	
-0.395386	
-0.394592	
-0.395447	
-0.395264	
-0.394531	
-0.394775	
-0.394592	
-0.393188	
-0.393799	
-0.392517	
-0.393677	
-0.393677	
-0.392944	
-0.392761	
-0.392334	
-0.391113	
-0.392212	
-0.392456	
-0.391235	
-0.39209	
-0.390747	
-0.391602	
-0.392395	
-0.391968	
-0.392822	
-0.392395	
-0.391602	
-0.393127	
-0.393005	
-0.392334	
-0.393311	
-0.392578	
-0.393372	
-0.394287	
-0.393616	
-0.393372	
-0.393005	
-0.392578	
-0.393188	
-0.392334	
-0.391846	
-0.393005	
-0.392273	
-0.393188	
-0.393921	
-0.392517	
-0.392639	
-0.393188	
-0.391724	
-0.392517	
-0.392334	
-0.391113	
-0.391968	
-0.391541	
-0.392578	
-0.39325	
-0.392578	
-0.392761	
-0.393066	
-0.392212	
-0.392761	
-0.393188	
-0.39209	
-0.392517	
-0.392822	
-0.392822	
-0.394226	
-0.393677	
-0.393188	
-0.393188	
-0.393066	
-0.3927	
-0.3927	
-0.39209	
-0.39209	
-0.392151	
-0.392639	
-0.392761	
-0.392151	
-0.391235	
-0.391602	
-0.390564	
-0.390381	
-0.391785	
-0.391052	
-0.391418	
-0.39093	
-0.391785	
-0.392456	
-0.391846	
-0.391113	
-0.390808	
-0.391357	
-0.3927	
-0.392151	
-0.391602	
-0.391235	
-0.392334	
-0.392273	
-0.392761	
-0.392761	
-0.392334	
-0.391418	
-0.390503	
-0.392212	
-0.392578	
-0.39209	
-0.391357	
-0.392578	
-0.392822	
-0.393188	
-0.393494	
-0.392761	
-0.39209	
-0.391785	
-0.393555	
-0.393372	
-0.392944	
-0.391846	
-0.392273	
-0.392273	
-0.392639	
-0.392456	
-0.39209	
-0.391541	
-0.390503	
-0.392334	
-0.39209	
-0.391174	
-0.391602	
-0.392273	
-0.39209	
-0.391907	
-0.392456	
-0.392212	
-0.392822	
-0.391785	
-0.393372	
-0.393188	
-0.392639	
-0.392517	
-0.392761	
-0.393188	
-0.393188	
-0.393921	
-0.393616	
-0.394165	
-0.393188	
-0.393982	
-0.394165	
-0.393799	
-0.393494	
-0.393188	
-0.393738	
-0.393677	
-0.39386	
-0.392883	
-0.392944	
-0.392334	
-0.393188	
-0.392578	
-0.392151	
-0.392334	
-0.392273	
-0.3927	
-0.392883	
-0.393738	
-0.393188	
-0.392822	
-0.39325	
-0.394348	
-0.39447	
-0.394775	
-0.395813	
-0.39563	
-0.396118	
-0.396912	
-0.397156	
-0.396729	
-0.396362	
-0.396118	
-0.396606	
-0.395874	
-0.395691	
-0.394409	
-0.394653	
-0.395203	
-0.395081	
-0.394958	
-0.394531	
-0.394409	
-0.394226	
-0.394531	
-0.367371	
-0.370117	
-0.374695	
-0.377502	
-0.378601	
-0.379822	
-0.411011	
-0.401794	
-0.3974	
-0.395325	
-0.394592	
-0.394958	
-0.394226	
-0.393372	
-0.393677	
-0.393555	
-0.394409	
-0.394592	
-0.394287	
-0.393982	
-0.393555	
-0.393433	
-0.394165	
-0.393127	
-0.392517	
-0.392273	
-0.392944	
-0.394287	
-0.393677	
-0.393738	
-0.394043	
-0.393616	
-0.39386	
-0.394226	
-0.393311	
-0.392944	
-0.393616	
-0.394104	
-0.395081	
-0.395447	
-0.396118	
-0.396423	
-0.394531	
-0.395142	
-0.395813	
-0.395142	
-0.39447	
-0.395386	
-0.395752	
-0.395264	
-0.395813	
-0.396545	
-0.396118	
-0.395203	
-0.397461	
-0.398743	
-0.39978	
-0.401123	
-0.405701	
-0.410339	
-0.415955	
-0.421082	
-0.426392	
-0.430969	
-0.436584	
-0.442139	
-0.448242	
-0.455017	
-0.462402	
-0.470703	
-0.479065	
-0.486023	
-0.492065	
-0.497559	
-0.502197	
-0.506958	
-0.510681	
-0.512512	
-0.513489	
-0.515259	
-0.515808	
-0.515564	
-0.515869	
-0.515625	
-0.514099	
-0.512817	
-0.511963	
-0.510315	
-0.508301	
-0.505798	
-0.504272	
-0.501099	
-0.497742	
-0.49585	
-0.492432	
-0.488586	
-0.485046	
-0.483276	
-0.48291	
-0.482117	
-0.482666	
-0.483154	
-0.484131	
-0.485718	
-0.48822	
-0.490601	
-0.492126	
-0.493103	
-0.494873	
-0.496033	
-0.495605	
-0.49585	
-0.494446	
-0.492432	
-0.490295	
-0.487488	
-0.48407	
-0.481201	
-0.476624	
-0.472412	
-0.445618	
-0.443298	
-0.446106	
-0.444397	
-0.44342	
-0.442383	
-0.472717	
-0.463318	
-0.457947	
-0.454651	
-0.452698	
-0.451965	
-0.450317	
-0.448608	
-0.446167	
-0.44397	
-0.440857	
-0.438354	
-0.434753	
-0.430359	
-0.4245	
-0.419006	
-0.414063	
-0.408203	
-0.402954	
-0.39679	
-0.391296	
-0.385498	
-0.380615	
-0.374817	
-0.367859	
-0.360779	
-0.352905	
-0.34552	
-0.337341	
-0.329834	
-0.320801	
-0.312073	
-0.30426	
-0.296265	
-0.28833	
-0.279907	
-0.271301	
-0.263977	
-0.258118	
-0.251343	
-0.247192	
-0.243286	
-0.240356	
-0.239075	
-0.239563	
-0.239929	
-0.240662	
-0.241577	
-0.243347	
-0.247131	
-0.250366	
-0.256958	
-0.263123	
-0.27063	
-0.279968	
-0.290466	
-0.300476	
-0.311157	
-0.320984	
-0.332214	
-0.343018	
-0.354187	
-0.365173	
-0.376587	
-0.388062	
-0.399536	
-0.409363	
-0.418884	
-0.426697	
-0.434021	
-0.440979	
-0.447083	
-0.452026	
-0.456238	
-0.460144	
-0.462463	
-0.4646	
-0.465149	
-0.464783	
-0.464661	
-0.464417	
-0.462891	
-0.461304	
-0.459534	
-0.457642	
-0.455383	
-0.452576	
-0.449463	
-0.44751	
-0.445251	
-0.442871	
-0.441467	
-0.440002	
-0.44043	
-0.440613	
-0.44165	
-0.441956	
-0.442505	
-0.443298	
-0.44397	
-0.443115	
-0.443237	
-0.442505	
-0.441589	
-0.441711	
-0.440125	
-0.439331	
-0.438721	
-0.437195	
-0.435486	
-0.433411	
-0.431458	
-0.429504	
-0.429138	
-0.427246	
-0.426453	
-0.426392	
-0.426331	
-0.426453	
-0.425659	
-0.424377	
-0.423401	
-0.420898	
-0.419861	
-0.418701	
-0.415894	
-0.413086	
-0.410767	
-0.407471	
-0.403931	
-0.398987	
-0.39502	
-0.389954	
-0.383667	
-0.379272	
-0.373413	
-0.367126	
-0.361084	
-0.353821	
-0.345642	
-0.338745	
-0.330383	
-0.321777	
-0.313538	
-0.30481	
-0.298401	
-0.290161	
-0.284729	
-0.278564	
-0.27301	
-0.268127	
-0.264221	
-0.259521	
-0.255798	
-0.252014	
-0.248535	
-0.24762	
-0.246277	
-0.245056	
-0.244995	
-0.244995	
-0.246216	
-0.247986	
-0.250061	
-0.254028	
-0.257019	
-0.261169	
-0.265381	
-0.270752	
-0.274902	
-0.279968	
-0.284302	
-0.290833	
-0.295227	
-0.299805	
-0.304321	
-0.307861	
-0.312988	
-0.31665	
-0.321594	
-0.324524	
-0.328491	
-0.332031	
-0.3349	
-0.33728	
-0.340454	
-0.340942	
-0.34314	
-0.344543	
-0.347839	
-0.348999	
-0.349731	
-0.351074	
-0.353821	
-0.355408	
-0.357605	
-0.358704	
-0.359924	
-0.362061	
-0.36377	
-0.364685	
-0.366089	
-0.367065	
-0.368164	
-0.369324	
-0.36969	
-0.371338	
-0.371033	
-0.372314	
-0.372253	
-0.372925	
-0.373901	
-0.373962	
-0.374451	
-0.376526	
-0.376831	
-0.37561	
-0.376282	
-0.37616	
-0.377014	
-0.375916	
-0.378418	
-0.377686	
-0.377441	
-0.377319	
-0.378235	
-0.378235	
-0.378479	
-0.378479	
-0.377808	
-0.378845	
-0.378662	
-0.380493	
-0.38031	
-0.380066	
-0.379944	
-0.380798	
-0.380798	
-0.382324	
-0.380676	
-0.381165	
-0.381165	
-0.381409	
-0.381653	
-0.381592	
-0.381531	
-0.381531	
-0.381775	
-0.380859	
-0.381348	
-0.380127	
-0.380371	
-0.379089	
-0.381287	
-0.380737	
-0.3797	
-0.379028	
-0.379456	
-0.380249	
-0.3797	
-0.380005	
-0.379272	
-0.379517	
-0.379028	
-0.380798	
-0.379883	
-0.380249	
-0.380737	
-0.381836	
-0.381897	
-0.381775	
-0.380249	
-0.380371	
-0.381409	
-0.381958	
-0.381653	
-0.382141	
-0.382751	
-0.383301	
-0.383362	
-0.383911	
-0.384094	
-0.38385	
-0.383484	
-0.383423	
-0.384583	
-0.384155	
-0.384521	
-0.384094	
-0.385559	
-0.385498	
-0.386719	
-0.385315	
-0.385498	
-0.385254	
-0.38678	
-0.385742	
-0.385315	
-0.385437	
-0.386597	
-0.386719	
-0.387512	
-0.38562	
-0.385254	
-0.386047	
-0.387329	
-0.386841	
-0.38739	
-0.387329	
-0.387634	
-0.388245	
-0.388184	
-0.387634	
-0.387146	
-0.387207	
-0.386902	
-0.388123	
-0.387817	
-0.388123	
-0.387939	
-0.388123	
-0.388184	
-0.389282	
-0.387451	
-0.388062	
-0.387085	
-0.388245	
-0.387756	
-0.387817	
-0.386475	
-0.388794	
-0.388672	
-0.388428	
-0.387146	
-0.387146	
-0.387146	
-0.387268	
-0.387451	
-0.387878	
-0.386902	
-0.387512	
-0.388	
-0.387634	
-0.389038	
-0.388184	
-0.387573	
-0.387939	
-0.390564	
-0.390869	
-0.390747	
-0.39093	
-0.391907	
-0.391602	
-0.391052	
-0.391113	
-0.39093	
-0.389832	
-0.388977	
-0.390686	
-0.389587	
-0.38916	
-0.38855	
-0.390076	
-0.389832	
-0.389709	
-0.388611	
-0.388977	
-0.388	
-0.387939	
-0.389709	
-0.389221	
-0.38916	
-0.389465	
-0.390198	
-0.390015	
-0.390686	
-0.389954	
-0.390259	
-0.390198	
-0.390686	
-0.391235	
-0.390869	
-0.391174	
-0.390564	
-0.390686	
-0.390869	
-0.392029	
-0.39093	
-0.390564	
-0.390076	
-0.390747	
-0.390381	
-0.390503	
-0.39093	
-0.389893	
-0.389954	
-0.391296	
-0.390686	
-0.39032	
-0.389099	
-0.388	
-0.389954	
-0.39032	
-0.390442	
-0.390869	
-0.390625	
-0.391052	
-0.391418	
-0.39093	
-0.390869	
-0.390076	
-0.391479	
-0.392151	
-0.391479	
-0.392029	
-0.391968	
-0.391907	
-0.392151	
-0.392273	
-0.391174	
-0.391602	
-0.391235	
-0.391296	
-0.390747	
-0.390686	
-0.390686	
-0.390808	
-0.391052	
-0.391724	
-0.390442	
-0.390076	
-0.389221	
-0.390381	
-0.391602	
-0.390808	
-0.391052	
-0.390686	
-0.390747	
-0.391479	
-0.391785	
-0.391235	
-0.390808	
-0.389954	
-0.391663	
-0.391907	
-0.391724	
-0.39209	
-0.390747	
-0.391663	
-0.392273	
-0.392273	
-0.391663	
-0.39093	
-0.390503	
-0.392639	
-0.392151	
-0.391846	
-0.392639	
-0.3927	
-0.392395	
-0.392944	
-0.392578	
-0.392273	
-0.391968	
-0.392761	
-0.392456	
-0.391663	
-0.392273	
-0.391418	
-0.391785	
-0.391418	
-0.393921	
-0.392029	
-0.391479	
-0.390869	
-0.391418	
-0.391479	
-0.391357	
-0.391968	
-0.390015	
-0.391785	
-0.39209	
-0.394226	
-0.392151	
-0.391785	
-0.390503	
-0.392212	
-0.392944	
-0.392578	
-0.392639	
-0.392273	
-0.392639	
-0.392517	
-0.395081	
-0.393066	
-0.392761	
-0.390869	
-0.393677	
-0.393127	
-0.393494	
-0.393311	
-0.393494	
-0.392883	
-0.392639	
-0.393921	
-0.392151	
-0.391968	
-0.390442	
-0.392639	
-0.391968	
-0.392517	
-0.392334	
-0.392029	
-0.392456	
-0.393555	
-0.394165	
-0.392883	
-0.393188	
-0.392639	
-0.395264	
-0.39502	
-0.396118	
-0.395447	
-0.395813	
-0.395996	
-0.397888	
-0.397278	
-0.396301	
-0.395264	
-0.395081	
-0.395935	
-0.395325	
-0.395386	
-0.393738	
-0.394714	
-0.394104	
-0.395325	
-0.395325	
-0.394226	
-0.39325	
-0.393616	
-0.393616	
-0.393982	
-0.394226	
-0.393677	
-0.393555	
-0.393005	
-0.393921	
-0.39386	
-0.39386	
-0.393738	
-0.392944	
-0.393127	
-0.393982	
-0.39386	
-0.394165	
-0.393555	
-0.393616	
-0.394165	
-0.394226	
-0.393738	
-0.393677	
-0.393433	
-0.393982	
-0.393738	
-0.392212	
-0.393616	
-0.393311	
-0.393921	
-0.394409	
-0.393433	
-0.393005	
-0.393738	
-0.394104	
-0.394531	
-0.394409	
-0.393921	
-0.394226	
-0.394348	
-0.394836	
-0.396362	
-0.395447	
-0.394165	
-0.395325	
-0.395203	
-0.395508	
-0.396118	
-0.395508	
-0.395935	
-0.396118	
-0.396423	
-0.397949	
-0.395874	
-0.396057	
-0.396362	
-0.395813	
-0.395813	
-0.395691	
-0.395569	
-0.395386	
-0.395935	
-0.395569	
-0.396606	
-0.395081	
-0.39502	
-0.394226	
-0.394836	
-0.395569	
-0.395142	
-0.395203	
-0.394836	
-0.395996	
-0.395813	
-0.396179	
-0.393921	
-0.394592	
-0.393372	
-0.395508	
-0.395264	
-0.395874	
-0.395142	
-0.395203	
-0.39502	
-0.395874	
-0.395996	
-0.394958	
-0.395813	
-0.394226	
-0.395386	
-0.396118	
-0.397278	
-0.396667	
-0.396851	
-0.395874	
-0.396484	
-0.396423	
-0.396606	
-0.396606	
-0.395325	
-0.396301	
-0.395935	
-0.396973	
-0.396545	
-0.397034	
-0.395752	
-0.397522	
-0.395935	
-0.396301	
-0.397095	
-0.396484	
-0.396362	
-0.396545	
-0.397034	
-0.396851	
-0.397339	
-0.396179	
-0.398071	
-0.396301	
-0.397156	
-0.397217	
-0.397949	
-0.397766	
-0.397339	
-0.398682	
-0.398132	
-0.397888	
-0.3974	
-0.399231	
-0.397095	
-0.398254	
-0.398621	
-0.398682	
-0.398499	
-0.398132	
-0.399536	
-0.39917	
-0.398621	
-0.398193	
-0.398071	
-0.397095	
-0.397278	
-0.396362	
-0.396057	
-0.396179	
-0.395508	
-0.396729	
-0.39679	
-0.396667	
-0.396179	
-0.397461	
-0.39801	
-0.39856	
-0.397888	
-0.398376	
-0.398743	
-0.39917	
-0.399292	
-0.399963	
-0.398621	
-0.398865	
-0.399475	
-0.398804	
-0.398865	
-0.398926	
-0.399475	
-0.398682	
-0.398499	
-0.399475	
-0.398376	
-0.397888	
-0.398132	
-0.397217	
-0.397156	
-0.397278	
-0.397583	
-0.396973	
-0.396851	
-0.397827	
-0.398315	
-0.396912	
-0.397461	
-0.39624	
-0.397705	
-0.398254	
-0.39856	
-0.397766	
-0.397888	
-0.398621	
-0.398682	
-0.398621	
-0.398438	
-0.398438	
-0.398376	
-0.399963	
-0.39917	
-0.39917	
-0.398743	
-0.399353	
-0.399231	
-0.399658	
-0.398926	
-0.399292	
-0.399109	
-0.398193	
-0.399414	
-0.398987	
-0.399231	
-0.397705	
-0.398743	
-0.398254	
-0.399231	
-0.39917	
-0.398926	
-0.399353	
-0.39917	
-0.399231	
-0.398743	
-0.400574	
-0.399048	
-0.400208	
-0.399902	
-0.40033	
-0.400635	
-0.401062	
-0.401123	
-0.400696	
-0.400513	
-0.400269	
-0.401062	
-0.399536	
-0.400024	
-0.399902	
-0.401001	
-0.400452	
-0.399719	
-0.398987	
-0.39917	
-0.399658	
-0.399536	
-0.399841	
-0.399231	
-0.39917	
-0.398865	
-0.399536	
-0.399658	
-0.400146	
-0.39856	
-0.399231	
-0.398499	
-0.399109	
-0.399109	
-0.398499	
-0.398499	
-0.398193	
-0.398315	
-0.398926	
-0.399414	
-0.397583	
-0.39917	
-0.398499	
-0.398926	
-0.399719	
-0.398926	
-0.399475	
-0.399292	
-0.399475	
-0.400452	
-0.399597	
-0.398865	
-0.400269	
-0.398315	
-0.399475	
-0.399475	
-0.399475	
-0.398865	
-0.399231	
-0.399414	
-0.400085	
-0.398621	
-0.397888	
-0.398071	
-0.398315	
-0.398438	
-0.399048	
-0.398743	
-0.398132	
-0.397766	
-0.398438	
-0.398865	
-0.397827	
-0.397339	
-0.396484	
-0.397583	
-0.397766	
-0.398621	
-0.39801	
-0.398743	
-0.398071	
-0.399109	
-0.400085	
-0.398499	
-0.398804	
-0.39801	
-0.398865	
-0.39917	
-0.399719	
-0.398987	
-0.398987	
-0.397705	
-0.398193	
-0.399231	
-0.397644	
-0.397095	
-0.39563	
-0.396423	
-0.395691	
-0.395996	
-0.395081	
-0.394836	
-0.395264	
-0.39563	
-0.396912	
-0.396057	
-0.395813	
-0.395691	
-0.396362	
-0.395874	
-0.397644	
-0.396729	
-0.396851	
-0.397217	
-0.397339	
-0.397827	
-0.397583	
-0.39624	
-0.395691	
-0.397522	
-0.396851	
-0.398315	
-0.397522	
-0.397949	
-0.397766	
-0.397949	
-0.398254	
-0.3974	
-0.396484	
-0.396179	
-0.39679	
-0.397156	
-0.397949	
-0.397583	
-0.397278	
-0.397339	
-0.397949	
-0.39801	
-0.397461	
-0.39624	
-0.396484	
-0.397522	
-0.397461	
-0.398499	
-0.397827	
-0.397766	
-0.397705	
-0.398254	
-0.397949	
-0.39801	
-0.397278	
-0.395813	
-0.397278	
-0.397156	
-0.398254	
-0.397461	
-0.397644	
-0.397583	
-0.397583	
-0.397217	
-0.397522	
-0.395996	
-0.395386	
-0.395752	
-0.396423	
-0.396912	
-0.39624	
-0.395935	
-0.395874	
-0.396179	
-0.395874	
-0.395874	
-0.395752	
-0.394775	
-0.395386	
-0.39679	
-0.39801	
-0.396118	
-0.395813	
-0.396362	
-0.397583	
-0.397522	
-0.396057	
-0.395813	
-0.395264	
-0.396912	
-0.396301	
-0.396606	
-0.396118	
-0.396423	
-0.396179	
-0.397583	
-0.396912	
-0.396423	
-0.395508	
-0.395264	
-0.396301	
-0.396667	
-0.396362	
-0.39563	
-0.396057	
-0.395447	
-0.397522	
-0.3974	
-0.395508	
-0.395081	
-0.395386	
-0.395447	
-0.394836	
-0.395264	
-0.395569	
-0.395081	
-0.395386	
-0.396362	
-0.395874	
-0.395142	
-0.395203	
-0.394409	
-0.395386	
-0.395508	
-0.395569	
-0.395325	
-0.395142	
-0.395325	
-0.396179	
-0.395325	
-0.394592	
-0.394226	
-0.394043	
-0.395081	
-0.395325	
-0.394958	
-0.394775	
-0.394897	
-0.39447	
-0.394958	
-0.394226	
-0.392639	
-0.392639	
-0.393555	
-0.394104	
-0.393555	
-0.393311	
-0.393005	
-0.393433	
-0.393066	
-0.393677	
-0.392578	
-0.391846	
-0.391235	
-0.392517	
-0.392456	
-0.39325	
-0.393616	
-0.393921	
-0.394775	
-0.393738	
-0.395996	
-0.395203	
-0.395447	
-0.394104	
-0.395325	
-0.39563	
-0.395691	
-0.395203	
-0.394836	
-0.394897	
-0.392761	
-0.394531	
-0.393494	
-0.392944	
-0.391907	
-0.392822	
-0.392761	
-0.392944	
-0.393188	
-0.392578	
-0.392883	
-0.391541	
-0.394165	
-0.392334	
-0.3927	
-0.392029	
-0.393311	
-0.393799	
-0.393311	
-0.394165	
-0.39386	
-0.394592	
-0.393005	
-0.395569	
-0.393494	
-0.393921	
-0.3927	
-0.393738	
-0.393921	
-0.394165	
-0.394653	
-0.393982	
-0.393433	
-0.392334	
-0.395264	
-0.392456	
-0.3927	
-0.391479	
-0.392578	
-0.392883	
-0.393005	
-0.393127	
-0.392822	
-0.392517	
-0.391907	
-0.394287	
-0.391357	
-0.392212	
-0.391541	
-0.393066	
-0.393066	
-0.393433	
-0.393311	
-0.392944	
-0.393005	
-0.393372	
-0.395142	
-0.392456	
-0.393005	
-0.392273	
-0.393433	
-0.393127	
-0.393311	
-0.392883	
-0.393188	
-0.392395	
-0.392151	
-0.39325	
-0.391541	
-0.391541	
-0.391235	
-0.391174	
-0.391235	
-0.391724	
-0.391479	
-0.391785	
-0.390686	
-0.391479	
-0.393433	
-0.391724	
-0.391602	
-0.390625	
-0.391785	
-0.392029	
-0.392517	
-0.392456	
-0.393372	
-0.391296	
-0.391907	
-0.394531	
-0.392212	
-0.391968	
-0.391113	
-0.392395	
-0.392212	
-0.3927	
-0.392517	
-0.392944	
-0.392395	
-0.393127	
-0.394653	
-0.392761	
-0.393005	
-0.391541	
-0.392822	
-0.3927	
-0.393066	
-0.392822	
-0.393127	
-0.39209	
-0.392395	
-0.392822	
-0.391968	
-0.392395	
-0.38916	
-0.392029	
-0.39209	
-0.391846	
-0.391296	
-0.392517	
-0.39209	
-0.392273	
-0.391602	
-0.391907	
-0.391968	
-0.388977	
-0.392456	
-0.392395	
-0.393005	
-0.393005	
-0.392944	
-0.392212	
-0.39325	
-0.392639	
-0.3927	
-0.392761	
-0.39032	
-0.393066	
-0.393433	
-0.394226	
-0.393494	
-0.393372	
-0.393616	
-0.393311	
-0.392761	
-0.392944	
-0.392822	
-0.390137	
-0.392639	
-0.392639	
-0.392822	
-0.392578	
-0.392395	
-0.392578	
-0.392822	
-0.3927	
-0.392822	
-0.392944	
-0.390869	
-0.393372	
-0.393921	
-0.39447	
-0.395264	
-0.395264	
-0.395386	
-0.396545	
-0.396729	
-0.396606	
-0.396301	
-0.394531	
-0.395874	
-0.395935	
-0.395996	
-0.39502	
-0.394836	
-0.394592	
-0.39502	
-0.395264	
-0.394043	
-0.393982	
-0.3927	
-0.394043	
-0.393982	
-0.394592	
-0.394409	
-0.393433	
-0.393494	
-0.394287	
-0.394287	
-0.393799	
-0.393311	
-0.391113	
-0.393127	
-0.393494	
-0.394531	
-0.393982	
-0.39325	
-0.392944	
-0.394287	
-0.394226	
-0.393372	
-0.393066	
-0.391357	
-0.392456	
-0.393066	
-0.394348	
-0.394165	
-0.393372	
-0.392761	
-0.394226	
-0.393616	
-0.393188	
-0.392395	
-0.391296	
-0.393188	
-0.393433	
-0.394104	
-0.394104	
-0.393494	
-0.3927	
-0.395081	
-0.39502	
-0.394043	
-0.39325	
-0.392761	
-0.394958	
-0.395386	
-0.394775	
-0.395386	
-0.395325	
-0.394958	
-0.396057	
-0.395264	
-0.395325	
-0.394653	
-0.394958	
-0.395752	
-0.396118	
-0.395996	
-0.395691	
-0.394531	
-0.394531	
-0.395386	
-0.394653	
-0.394653	
-0.393433	
-0.394287	
-0.394653	
-0.394958	
-0.394714	
-0.39447	
-0.394104	
-0.395386	
-0.395813	
-0.394775	
-0.394653	
-0.393555	
-0.394958	
-0.394897	
-0.394897	
-0.394531	
-0.394714	
-0.394531	
-0.394958	
-0.395691	
-0.394531	
-0.394836	
-0.394104	
-0.394348	
-0.394897	
-0.39624	
-0.395508	
-0.39502	
-0.395325	
-0.396362	
-0.39679	
-0.395813	
-0.395813	
-0.394836	
-0.395874	
-0.396057	
-0.396301	
-0.395081	
-0.395813	
-0.395569	
-0.39679	
-0.397156	
-0.395325	
-0.395386	
-0.395081	
-0.395508	
-0.395447	
-0.396545	
-0.395264	
-0.39563	
-0.395386	
-0.396912	
-0.397034	
-0.395996	
-0.395386	
-0.39447	
-0.396545	
-0.397034	
-0.397217	
-0.396729	
-0.397095	
-0.395935	
-0.398132	
-0.397827	
-0.397034	
-0.396667	
-0.395996	
-0.397522	
-0.398315	
-0.398071	
-0.397888	
-0.398071	
-0.39679	
-0.398376	
-0.398865	
-0.3974	
-0.395447	
-0.394531	
-0.395996	
-0.395935	
-0.395142	
-0.395386	
-0.395691	
-0.394409	
-0.395813	
-0.39679	
-0.395935	
-0.395142	
-0.395264	
-0.39679	
-0.397766	
-0.397705	
-0.397034	
-0.397827	
-0.396912	
-0.397766	
-0.398743	
-0.397888	
-0.396179	
-0.396851	
-0.398193	
-0.397583	
-0.398315	
-0.398071	
-0.397583	
-0.396057	
-0.397461	
-0.397156	
-0.395874	
-0.395508	
-0.395813	
-0.396118	
-0.396545	
-0.396667	
-0.395996	
-0.396301	
-0.395264	
-0.39679	
-0.396484	
-0.395935	
-0.395996	
-0.396484	
-0.396545	
-0.396912	
-0.397217	
-0.397278	
-0.39801	
-0.396484	
-0.397827	
-0.39801	
-0.397888	
-0.397156	
-0.396973	
-0.397461	
-0.398376	
-0.398743	
-0.398193	
-0.398376	
-0.397278	
-0.397949	
-0.398315	
-0.397278	
-0.396912	
-0.397339	
-0.398132	
-0.397766	
-0.398071	
-0.397705	
-0.398376	
-0.397522	
-0.399109	
-0.398132	
-0.3974	
-0.396912	
-0.397888	
-0.398682	
-0.398804	
-0.400024	
-0.398987	
-0.39978	
-0.399353	
-0.40033	
-0.399841	
-0.399414	
-0.398193	
-0.398804	
-0.399109	
-0.398926	
-0.399963	
-0.399231	
-0.399353	
-0.398315	
-0.399231	
-0.398804	
-0.397888	
-0.396362	
-0.397949	
-0.398254	
-0.398193	
-0.39856	
-0.397766	
-0.398315	
-0.397766	
-0.398621	
-0.398254	
-0.397278	
-0.395325	
-0.3974	
-0.397583	
-0.397156	
-0.397705	
-0.397339	
-0.397766	
-0.396973	
-0.397522	
-0.397949	
-0.3974	
-0.396118	
-0.397156	
-0.398193	
-0.398071	
-0.398499	
-0.398315	
-0.398865	
-0.398682	
-0.398987	
-0.39917	
-0.397827	
-0.397339	
-0.3974	
-0.398315	
-0.398438	
-0.398193	
-0.397583	
-0.398132	
-0.39801	
-0.39801	
-0.397644	
-0.397156	
-0.396301	
-0.396118	
-0.396973	
-0.396912	
-0.396851	
-0.396606	
-0.396973	
-0.396973	
-0.397644	
-0.396362	
-0.396545	
-0.395996	
-0.395203	
-0.396667	
-0.396912	
-0.396912	
-0.397461	
-0.398315	
-0.398376	
-0.398865	
-0.3974	
-0.397217	
-0.397278	
-0.396301	
-0.3974	
-0.397034	
-0.396484	
-0.396729	
-0.397339	
-0.396606	
-0.396362	
-0.395386	
-0.393982	
-0.393799	
-0.394043	
-0.394104	
-0.393494	
-0.393677	
-0.39386	
-0.394104	
-0.394775	
-0.395142	
-0.39447	
-0.394226	
-0.394958	
-0.395447	
-0.395142	
-0.395386	
-0.395447	
-0.395386	
-0.395691	
-0.39624	
-0.395752	
-0.395081	
-0.394775	
-0.395508	
-0.396057	
-0.395874	
-0.395996	
-0.396057	
-0.395996	
-0.39679	
-0.396667	
-0.395508	
-0.395508	
-0.395081	
-0.395813	
-0.396301	
-0.396118	
-0.395325	
-0.395508	
-0.396057	
-0.39624	
-0.39624	
-0.395935	
-0.395325	
-0.394592	
-0.395264	
-0.395935	
-0.395508	
-0.395996	
-0.396423	
-0.396545	
-0.397034	
-0.397461	
-0.395874	
-0.39502	
-0.394775	
-0.395264	
-0.395508	
-0.395569	
-0.396057	
-0.39563	
-0.396057	
-0.396057	
-0.396301	
-0.395386	
-0.394836	
-0.394714	
-0.393738	
-0.394775	
-0.394592	
-0.394531	
-0.394592	
-0.394592	
-0.395264	
-0.394653	
-0.394043	
-0.39386	
-0.394592	
-0.393921	
-0.394836	
-0.394531	
-0.394897	
-0.395142	
-0.394592	
-0.395691	
-0.394836	
-0.394775	
-0.394592	
-0.394592	
-0.394226	
-0.394714	
-0.394836	
-0.395081	
-0.394897	
-0.394714	
-0.395203	
-0.395386	
-0.395325	
-0.393799	
-0.394409	
-0.394043	
-0.39447	
-0.394897	
-0.394653	
-0.39447	
-0.394836	
-0.395264	
-0.394897	
-0.394165	
-0.39325	
-0.393311	
-0.39325	
-0.393982	
-0.39325	
-0.393372	
-0.393921	
-0.393372	
-0.393372	
-0.394714	
-0.394409	
-0.392883	
-0.393494	
-0.392944	
-0.393738	
-0.393799	
-0.393494	
-0.39386	
-0.393311	
-0.393494	
-0.394592	
-0.393555	
-0.392029	
-0.393127	
-0.392883	
-0.393372	
-0.393127	
-0.393372	
-0.392883	
-0.392639	
-0.393005	
-0.392761	
-0.391968	
-0.390991	
-0.391052	
-0.391113	
-0.392029	
-0.392212	
-0.391663	
-0.391785	
-0.392151	
-0.391785	
-0.391907	
-0.391785	
-0.390808	
-0.390137	
-0.389954	
-0.391724	
	
