E:\DOCUMENTS AND SETTINGS\JPOTAS\MEUS DOCUMENTOS\UFRJ\RSCI-BM 12 WK SERIES\070720-RSCI-BM-04\RSCI-BM-04-LEMG\070720-RSCI-BM-LEMG-0011.ACQ
0.025000 msec/sample
1 channel
Analog input
Volts
CH1	
2000	
-0.396851	
-0.396912	
-0.396179	
-0.395813	
-0.395874	
-0.395508	
-0.394592	
-0.394836	
-0.395081	
-0.39325	
-0.392639	
-0.3927	
-0.391907	
-0.392212	
-0.391602	
-0.391724	
-0.391724	
-0.391724	
-0.392273	
-0.393677	
-0.392883	
-0.391968	
-0.392029	
-0.391418	
-0.391846	
-0.391235	
-0.392273	
-0.392517	
-0.391968	
-0.392883	
-0.393677	
-0.393005	
-0.393005	
-0.392517	
-0.392761	
-0.393982	
-0.393188	
-0.394104	
-0.394653	
-0.395081	
-0.395203	
-0.396606	
-0.397217	
-0.396973	
-0.396301	
-0.3974	
-0.398743	
-0.398682	
-0.399719	
-0.400024	
-0.400452	
-0.400391	
-0.402954	
-0.402649	
-0.401917	
-0.40094	
-0.401245	
-0.402283	
-0.401245	
-0.402344	
-0.401672	
-0.4021	
-0.401489	
-0.403564	
-0.402771	
-0.401855	
-0.402039	
-0.401489	
-0.401062	
-0.401001	
-0.401978	
-0.400818	
-0.400024	
-0.398987	
-0.400024	
-0.39856	
-0.397705	
-0.397888	
-0.397156	
-0.396423	
-0.395874	
-0.396912	
-0.396057	
-0.395569	
-0.395081	
-0.396851	
-0.395935	
-0.395874	
-0.395447	
-0.394592	
-0.39386	
-0.394287	
-0.395203	
-0.394653	
-0.395203	
-0.394836	
-0.395569	
-0.39447	
-0.39563	
-0.39447	
-0.393555	
-0.394287	
-0.393311	
-0.396362	
-0.395813	
-0.396057	
-0.395447	
-0.396179	
-0.396423	
-0.396667	
-0.396301	
-0.395996	
-0.396362	
-0.396301	
-0.398132	
-0.397339	
-0.396973	
-0.397156	
-0.397949	
-0.398254	
-0.398132	
-0.397217	
-0.397461	
-0.397705	
-0.397888	
-0.399353	
-0.398438	
-0.397888	
-0.398071	
-0.398926	
-0.399292	
-0.399658	
-0.398987	
-0.398804	
-0.398804	
-0.398987	
-0.399719	
-0.398621	
-0.398376	
-0.398376	
-0.398743	
-0.39917	
-0.399048	
-0.397339	
-0.395447	
-0.396606	
-0.39679	
-0.397278	
-0.396484	
-0.395996	
-0.395935	
-0.396118	
-0.397461	
-0.395996	
-0.395447	
-0.393799	
-0.394775	
-0.394897	
-0.394958	
-0.394226	
-0.394104	
-0.39386	
-0.394043	
-0.396057	
-0.395447	
-0.393921	
-0.39325	
-0.393494	
-0.393494	
-0.393921	
-0.393494	
-0.393188	
-0.393677	
-0.39325	
-0.394958	
-0.394287	
-0.39325	
-0.393127	
-0.393005	
-0.393066	
-0.394104	
-0.393921	
-0.393738	
-0.393616	
-0.393738	
-0.395874	
-0.395752	
-0.394226	
-0.393921	
-0.394348	
-0.394165	
-0.395996	
-0.396484	
-0.396729	
-0.397217	
-0.396606	
-0.399658	
-0.373657	
-0.376221	
-0.380859	
-0.383606	
-0.384216	
-0.385132	
-0.417175	
-0.407104	
-0.402771	
-0.401062	
-0.402222	
-0.401428	
-0.399719	
-0.399292	
-0.398987	
-0.399414	
-0.399292	
-0.399353	
-0.39856	
-0.398865	
-0.39856	
-0.399109	
-0.39917	
-0.397583	
-0.396362	
-0.396362	
-0.396667	
-0.395813	
-0.396057	
-0.395752	
-0.394958	
-0.394165	
-0.393738	
-0.394836	
-0.393188	
-0.392212	
-0.3927	
-0.392822	
-0.392944	
-0.3927	
-0.393005	
-0.392761	
-0.3927	
-0.392761	
-0.393555	
-0.39209	
-0.390503	
-0.390991	
-0.391418	
-0.391296	
-0.391113	
-0.391785	
-0.392029	
-0.3927	
-0.393738	
-0.39624	
-0.397339	
-0.39917	
-0.402954	
-0.407776	
-0.413208	
-0.418762	
-0.424377	
-0.429626	
-0.434753	
-0.440491	
-0.44696	
-0.452026	
-0.460083	
-0.467529	
-0.47699	
-0.48407	
-0.490906	
-0.495667	
-0.5	
-0.505066	
-0.509155	
-0.511536	
-0.512085	
-0.513	
-0.486572	
-0.491821	
-0.496155	
-0.49762	
-0.497009	
-0.495911	
-0.525513	
-0.516357	
-0.509583	
-0.5047	
-0.500854	
-0.497498	
-0.495178	
-0.490967	
-0.488586	
-0.48468	
-0.481995	
-0.480774	
-0.479858	
-0.478882	
-0.478149	
-0.478638	
-0.478943	
-0.480896	
-0.48291	
-0.484863	
-0.486816	
-0.489563	
-0.490723	
-0.492493	
-0.492249	
-0.491333	
-0.489258	
-0.487	
-0.485229	
-0.482483	
-0.480225	
-0.476074	
-0.472534	
-0.469482	
-0.466003	
-0.461914	
-0.457825	
-0.454407	
-0.452026	
-0.450745	
-0.448669	
-0.44812	
-0.446472	
-0.444885	
-0.44458	
-0.444214	
-0.4422	
-0.439392	
-0.436951	
-0.435364	
-0.433838	
-0.430725	
-0.429688	
-0.426025	
-0.423279	
-0.421143	
-0.418945	
-0.416016	
-0.411804	
-0.409119	
-0.406982	
-0.405273	
-0.402771	
-0.400879	
-0.397644	
-0.394165	
-0.39093	
-0.387634	
-0.382263	
-0.376221	
-0.37146	
-0.366211	
-0.361877	
-0.35675	
-0.352661	
-0.347778	
-0.343872	
-0.341064	
-0.337708	
-0.334534	
-0.331604	
-0.329651	
-0.329041	
-0.329224	
-0.330017	
-0.331177	
-0.331848	
-0.332703	
-0.333862	
-0.335754	
-0.335571	
-0.334534	
-0.335571	
-0.336792	
-0.338379	
-0.339722	
-0.342346	
-0.343872	
-0.346252	
-0.349548	
-0.353577	
-0.356018	
-0.358521	
-0.361755	
-0.366394	
-0.371033	
-0.375305	
-0.378479	
-0.381714	
-0.385498	
-0.388123	
-0.391785	
-0.393127	
-0.395325	
-0.3974	
-0.399597	
-0.401184	
-0.402771	
-0.40387	
-0.404968	
-0.406738	
-0.407043	
-0.406616	
-0.406433	
-0.406677	
-0.406494	
-0.408081	
-0.408752	
-0.408936	
-0.409424	
-0.410156	
-0.412231	
-0.41272	
-0.412354	
-0.411194	
-0.409973	
-0.411072	
-0.411316	
-0.410889	
-0.410156	
-0.408142	
-0.405945	
-0.404236	
-0.401245	
-0.397705	
-0.393982	
-0.389404	
-0.385315	
-0.381958	
-0.37738	
-0.372498	
-0.366455	
-0.360657	
-0.355469	
-0.348755	
-0.342163	
-0.333435	
-0.325012	
-0.319031	
-0.312439	
-0.305664	
-0.2995	
-0.293091	
-0.286987	
-0.282654	
-0.278381	
-0.273499	
-0.26947	
-0.265076	
-0.263428	
-0.26239	
-0.260071	
-0.259155	
-0.257935	
-0.258667	
-0.259155	
-0.259766	
-0.260742	
-0.259827	
-0.263123	
-0.265076	
-0.266846	
-0.268921	
-0.271973	
-0.274719	
-0.278503	
-0.27948	
-0.283936	
-0.285767	
-0.288208	
-0.291809	
-0.295898	
-0.299622	
-0.303528	
-0.306702	
-0.310303	
-0.314819	
-0.316711	
-0.319885	
-0.321716	
-0.325928	
-0.329407	
-0.332153	
-0.335999	
-0.338013	
-0.340515	
-0.343872	
-0.345581	
-0.348511	
-0.349854	
-0.35083	
-0.353271	
-0.355652	
-0.356995	
-0.358704	
-0.359985	
-0.36145	
-0.362122	
-0.363403	
-0.36438	
-0.364441	
-0.366821	
-0.366272	
-0.36908	
-0.370605	
-0.370605	
-0.371094	
-0.371582	
-0.372925	
-0.372864	
-0.372375	
-0.373535	
-0.37439	
-0.37439	
-0.375122	
-0.376038	
-0.375671	
-0.377197	
-0.376953	
-0.376465	
-0.375854	
-0.375732	
-0.374023	
-0.374146	
-0.373779	
-0.373596	
-0.372803	
-0.372559	
-0.371277	
-0.370728	
-0.370605	
-0.370789	
-0.369507	
-0.369446	
-0.369934	
-0.370728	
-0.370544	
-0.370667	
-0.36969	
-0.369568	
-0.369324	
-0.36908	
-0.3703	
-0.36969	
-0.370361	
-0.370911	
-0.370911	
-0.372192	
-0.372986	
-0.372437	
-0.373413	
-0.373291	
-0.373901	
-0.374878	
-0.373962	
-0.375732	
-0.375916	
-0.377625	
-0.378479	
-0.379211	
-0.379272	
-0.379883	
-0.38147	
-0.38092	
-0.381714	
-0.380859	
-0.382263	
-0.381775	
-0.382996	
-0.384705	
-0.384644	
-0.384277	
-0.385803	
-0.384766	
-0.385986	
-0.385437	
-0.386414	
-0.386536	
-0.387207	
-0.387268	
-0.388306	
-0.388184	
-0.388611	
-0.387939	
-0.388184	
-0.388	
-0.386902	
-0.388062	
-0.386902	
-0.388123	
-0.38855	
-0.388428	
-0.387512	
-0.38855	
-0.386841	
-0.388611	
-0.386719	
-0.38739	
-0.386841	
-0.387512	
-0.387878	
-0.387695	
-0.387024	
-0.387268	
-0.386719	
-0.386841	
-0.386292	
-0.384949	
-0.386108	
-0.386414	
-0.386292	
-0.38678	
-0.385681	
-0.385559	
-0.386597	
-0.385132	
-0.385315	
-0.38562	
-0.385986	
-0.386169	
-0.386841	
-0.387024	
-0.387817	
-0.387146	
-0.387451	
-0.387817	
-0.389038	
-0.387878	
-0.387695	
-0.388733	
-0.389771	
-0.389465	
-0.390015	
-0.389709	
-0.389404	
-0.390686	
-0.389343	
-0.390076	
-0.390198	
-0.390259	
-0.390198	
-0.390686	
-0.390381	
-0.392212	
-0.39093	
-0.390869	
-0.391235	
-0.392273	
-0.391541	
-0.390747	
-0.391052	
-0.391724	
-0.392456	
-0.392761	
-0.393372	
-0.392334	
-0.392578	
-0.391602	
-0.392212	
-0.392212	
-0.391785	
-0.3927	
-0.392273	
-0.3927	
-0.393005	
-0.392883	
-0.392395	
-0.393005	
-0.391541	
-0.391479	
-0.389893	
-0.390259	
-0.390625	
-0.389709	
-0.389343	
-0.389893	
-0.388733	
-0.388855	
-0.388794	
-0.389099	
-0.388489	
-0.388428	
-0.388062	
-0.388977	
-0.388428	
-0.388916	
-0.389893	
-0.388855	
-0.389709	
-0.389343	
-0.388977	
-0.389282	
-0.388916	
-0.389526	
-0.390259	
-0.390503	
-0.390564	
-0.391174	
-0.391235	
-0.391846	
-0.391846	
-0.391785	
-0.391174	
-0.392151	
-0.393555	
-0.393555	
-0.393921	
-0.395447	
-0.396729	
-0.395874	
-0.397217	
-0.39856	
-0.398193	
-0.39856	
-0.398804	
-0.398865	
-0.399597	
-0.400208	
-0.400024	
-0.400818	
-0.400879	
-0.400879	
-0.399475	
-0.400208	
-0.40033	
-0.399719	
-0.400879	
-0.401001	
-0.401489	
-0.401001	
-0.401184	
-0.40033	
-0.400146	
-0.399597	
-0.39978	
-0.399414	
-0.399048	
-0.398621	
-0.398621	
-0.397217	
-0.397217	
-0.396729	
-0.395691	
-0.395203	
-0.39502	
-0.394958	
-0.394714	
-0.39502	
-0.394592	
-0.394897	
-0.394897	
-0.39502	
-0.393555	
-0.394592	
-0.394897	
-0.392639	
-0.392639	
-0.392944	
-0.393188	
-0.393738	
-0.394104	
-0.393433	
-0.394775	
-0.393372	
-0.39386	
-0.394287	
-0.394104	
-0.394104	
-0.393494	
-0.394653	
-0.395325	
-0.395264	
-0.395142	
-0.396179	
-0.395264	
-0.395752	
-0.395874	
-0.395386	
-0.395813	
-0.394836	
-0.395996	
-0.396362	
-0.395691	
-0.396912	
-0.397583	
-0.397583	
-0.396912	
-0.396545	
-0.396362	
-0.397095	
-0.395935	
-0.397339	
-0.398132	
-0.396973	
-0.39801	
-0.397644	
-0.398438	
-0.397827	
-0.397156	
-0.396667	
-0.397339	
-0.39624	
-0.397156	
-0.396851	
-0.397034	
-0.396545	
-0.39679	
-0.395874	
-0.395691	
-0.395203	
-0.394531	
-0.395081	
-0.393799	
-0.394897	
-0.394348	
-0.393982	
-0.394409	
-0.394958	
-0.393616	
-0.393799	
-0.393127	
-0.392334	
-0.39325	
-0.3927	
-0.39386	
-0.392456	
-0.392273	
-0.392273	
-0.394287	
-0.392456	
-0.392578	
-0.391602	
-0.392029	
-0.392273	
-0.391418	
-0.392273	
-0.392212	
-0.39209	
-0.391907	
-0.393188	
-0.392578	
-0.392578	
-0.391174	
-0.392212	
-0.392517	
-0.391663	
-0.392639	
-0.393066	
-0.392456	
-0.392578	
-0.393555	
-0.392822	
-0.393005	
-0.392212	
-0.393677	
-0.394653	
-0.395325	
-0.395203	
-0.39624	
-0.396667	
-0.397583	
-0.397278	
-0.397827	
-0.397766	
-0.397095	
-0.397888	
-0.39856	
-0.397644	
-0.397949	
-0.398132	
-0.397522	
-0.398987	
-0.398438	
-0.398071	
-0.397644	
-0.397522	
-0.397766	
-0.397888	
-0.396851	
-0.397339	
-0.397278	
-0.395996	
-0.398132	
-0.396851	
-0.396423	
-0.395935	
-0.394836	
-0.395386	
-0.394592	
-0.393433	
-0.394104	
-0.393616	
-0.39386	
-0.394287	
-0.392883	
-0.392517	
-0.391724	
-0.390381	
-0.392029	
-0.392029	
-0.390198	
-0.391052	
-0.390808	
-0.391296	
-0.391663	
-0.391296	
-0.390442	
-0.390137	
-0.389587	
-0.390686	
-0.391357	
-0.389893	
-0.390686	
-0.390869	
-0.391541	
-0.392212	
-0.392578	
-0.391724	
-0.391113	
-0.391113	
-0.392395	
-0.393188	
-0.391907	
-0.39325	
-0.393066	
-0.393738	
-0.393921	
-0.394836	
-0.393982	
-0.39447	
-0.393433	
-0.394409	
-0.395264	
-0.394348	
-0.395142	
-0.394409	
-0.395691	
-0.395691	
-0.396423	
-0.395081	
-0.395081	
-0.395935	
-0.395325	
-0.396118	
-0.394409	
-0.395874	
-0.395508	
-0.396729	
-0.396118	
-0.396729	
-0.395752	
-0.395691	
-0.394836	
-0.396179	
-0.396973	
-0.394531	
-0.395508	
-0.395081	
-0.395203	
-0.395752	
-0.39563	
-0.393433	
-0.39447	
-0.393555	
-0.394226	
-0.395386	
-0.393188	
-0.394165	
-0.393799	
-0.393982	
-0.393799	
-0.393677	
-0.39386	
-0.394043	
-0.393311	
-0.393982	
-0.394226	
-0.392578	
-0.39386	
-0.393921	
-0.39325	
-0.393555	
-0.392761	
-0.393433	
-0.392822	
-0.392517	
-0.392456	
-0.393921	
-0.392761	
-0.392944	
-0.393066	
-0.392761	
-0.39386	
-0.392761	
-0.393066	
-0.393372	
-0.393677	
-0.393921	
-0.394409	
-0.393738	
-0.394348	
-0.394775	
-0.395142	
-0.396606	
-0.395386	
-0.39624	
-0.396545	
-0.39801	
-0.397522	
-0.398987	
-0.397278	
-0.398499	
-0.398926	
-0.398438	
-0.399902	
-0.397766	
-0.398315	
-0.398254	
-0.399109	
-0.39856	
-0.39917	
-0.397888	
-0.398682	
-0.398376	
-0.398315	
-0.399353	
-0.396729	
-0.397827	
-0.3974	
-0.398438	
-0.397217	
-0.398499	
-0.396667	
-0.396545	
-0.396484	
-0.396057	
-0.396545	
-0.394592	
-0.395081	
-0.39386	
-0.394836	
-0.393799	
-0.392944	
-0.391541	
-0.391724	
-0.390137	
-0.391052	
-0.391724	
-0.389954	
-0.389893	
-0.389221	
-0.390259	
-0.389648	
-0.389526	
-0.389099	
-0.389709	
-0.387756	
-0.388855	
-0.390564	
-0.389099	
-0.388733	
-0.389343	
-0.390747	
-0.390381	
-0.390259	
-0.389832	
-0.390564	
-0.388977	
-0.390442	
-0.392395	
-0.391846	
-0.392456	
-0.392578	
-0.394287	
-0.394348	
-0.395081	
-0.393555	
-0.394714	
-0.393921	
-0.39502	
-0.39624	
-0.395325	
-0.395508	
-0.395508	
-0.396851	
-0.396362	
-0.396118	
-0.395508	
-0.397522	
-0.395813	
-0.39679	
-0.397461	
-0.396912	
-0.397156	
-0.395996	
-0.3974	
-0.396973	
-0.396851	
-0.395935	
-0.3974	
-0.395874	
-0.396973	
-0.397095	
-0.395935	
-0.395996	
-0.394958	
-0.396729	
-0.395569	
-0.395447	
-0.394043	
-0.395264	
-0.393311	
-0.394531	
-0.395264	
-0.394531	
-0.393982	
-0.393188	
-0.394592	
-0.394226	
-0.394287	
-0.3927	
-0.394165	
-0.393005	
-0.393677	
-0.394104	
-0.393677	
-0.393066	
-0.393127	
-0.393921	
-0.393616	
-0.393188	
-0.392517	
-0.393799	
-0.392578	
-0.394287	
-0.394226	
-0.393433	
-0.393311	
-0.394165	
-0.39502	
-0.394836	
-0.394653	
-0.393494	
-0.395447	
-0.394897	
-0.396606	
-0.396729	
-0.395752	
-0.395813	
-0.396118	
-0.396484	
-0.396362	
-0.39679	
-0.396057	
-0.3974	
-0.396606	
-0.398865	
-0.398865	
-0.397949	
-0.397644	
-0.39801	
-0.398254	
-0.398376	
-0.398193	
-0.397217	
-0.398682	
-0.398376	
-0.399231	
-0.399475	
-0.398743	
-0.397827	
-0.39801	
-0.398438	
-0.39917	
-0.398743	
-0.39801	
-0.398804	
-0.398499	
-0.399414	
-0.399231	
-0.398438	
-0.397827	
-0.398438	
-0.398499	
-0.398376	
-0.397644	
-0.396362	
-0.397705	
-0.396545	
-0.3974	
-0.39563	
-0.394409	
-0.39386	
-0.393127	
-0.393677	
-0.393555	
-0.393372	
-0.392212	
-0.393555	
-0.392822	
-0.394226	
-0.392883	
-0.392517	
-0.39209	
-0.391846	
-0.392883	
-0.393066	
-0.3927	
-0.392578	
-0.393494	
-0.39325	
-0.394165	
-0.39386	
-0.393005	
-0.392822	
-0.393127	
-0.394043	
-0.394714	
-0.394958	
-0.39563	
-0.39624	
-0.395508	
-0.39679	
-0.39624	
-0.395813	
-0.396301	
-0.398621	
-0.398621	
-0.398376	
-0.398865	
-0.399292	
-0.399963	
-0.398621	
-0.400757	
-0.400024	
-0.400146	
-0.399231	
-0.400818	
-0.400513	
-0.400574	
-0.400635	
-0.400818	
-0.401001	
-0.399292	
-0.402283	
-0.400269	
-0.40033	
-0.400085	
-0.401367	
-0.400391	
-0.400513	
-0.399536	
-0.399841	
-0.400085	
-0.398315	
-0.400391	
-0.398376	
-0.39856	
-0.396912	
-0.398682	
-0.397156	
-0.397644	
-0.397522	
-0.396729	
-0.397339	
-0.395935	
-0.39856	
-0.395935	
-0.396545	
-0.395996	
-0.397766	
-0.396362	
-0.396118	
-0.396301	
-0.395691	
-0.396729	
-0.394775	
-0.397034	
-0.395569	
-0.395874	
-0.394409	
-0.396973	
-0.396179	
-0.395935	
-0.395996	
-0.395935	
-0.396729	
-0.395447	
-0.397583	
-0.395874	
-0.396179	
-0.396423	
-0.397583	
-0.397034	
-0.397461	
-0.397339	
-0.397339	
-0.398254	
-0.396606	
-0.398315	
-0.397156	
-0.396851	
-0.397583	
-0.398682	
-0.397583	
-0.397583	
-0.397095	
-0.397766	
-0.398682	
-0.397766	
-0.398621	
-0.397278	
-0.397644	
-0.398804	
-0.398987	
-0.39856	
-0.398743	
-0.398315	
-0.399109	
-0.399719	
-0.398193	
-0.39978	
-0.398132	
-0.398132	
-0.399109	
-0.39917	
-0.398499	
-0.398621	
-0.397522	
-0.398621	
-0.39917	
-0.397095	
-0.39856	
-0.39679	
-0.397156	
-0.396851	
-0.396484	
-0.395996	
-0.395325	
-0.394104	
-0.394897	
-0.395325	
-0.393188	
-0.394043	
-0.392944	
-0.393616	
-0.393372	
-0.393738	
-0.393433	
-0.393372	
-0.392151	
-0.393494	
-0.394836	
-0.393433	
-0.393127	
-0.392517	
-0.39386	
-0.393311	
-0.393127	
-0.393799	
-0.394165	
-0.392761	
-0.394409	
-0.39563	
-0.394226	
-0.395386	
-0.394287	
-0.395264	
-0.395691	
-0.39679	
-0.396057	
-0.396912	
-0.395874	
-0.397827	
-0.399719	
-0.398682	
-0.399902	
-0.398743	
-0.400208	
-0.400879	
-0.40155	
-0.401794	
-0.402283	
-0.401794	
-0.402222	
-0.403809	
-0.402283	
-0.402588	
-0.4021	
-0.40271	
-0.402588	
-0.403259	
-0.40271	
-0.402893	
-0.402405	
-0.403076	
-0.403931	
-0.402283	
-0.402954	
-0.401733	
-0.40155	
-0.401184	
-0.401306	
-0.400635	
-0.400085	
-0.39856	
-0.398438	
-0.398743	
-0.397888	
-0.397644	
-0.396545	
-0.396362	
-0.396667	
-0.397217	
-0.396118	
-0.396667	
-0.395569	
-0.395996	
-0.397095	
-0.395203	
-0.395569	
-0.394348	
-0.394836	
-0.394531	
-0.395325	
-0.39502	
-0.395447	
-0.394104	
-0.394653	
-0.396179	
-0.39502	
-0.395813	
-0.394409	
-0.394836	
-0.394836	
-0.396179	
-0.395752	
-0.396057	
-0.395508	
-0.395752	
-0.397095	
-0.397034	
-0.397034	
-0.39679	
-0.396973	
-0.395935	
-0.397034	
-0.397461	
-0.397644	
-0.397278	
-0.397583	
-0.3974	
-0.398132	
-0.397766	
-0.397278	
-0.397705	
-0.397949	
-0.398254	
-0.398315	
-0.398438	
-0.398193	
-0.397949	
-0.39856	
-0.39856	
-0.398621	
-0.398254	
-0.398193	
-0.398193	
-0.398682	
-0.39917	
-0.397827	
-0.397583	
-0.396912	
-0.397888	
-0.397461	
-0.39679	
-0.396057	
-0.395996	
-0.395813	
-0.395874	
-0.396423	
-0.395813	
-0.394775	
-0.393372	
-0.395874	
-0.395813	
-0.394653	
-0.394348	
-0.39325	
-0.393982	
-0.393677	
-0.394653	
-0.393188	
-0.393555	
-0.392395	
-0.394531	
-0.393799	
-0.392883	
-0.393127	
-0.39209	
-0.393188	
-0.393433	
-0.394043	
-0.393188	
-0.393005	
-0.392212	
-0.393494	
-0.393494	
-0.392883	
-0.392822	
-0.392273	
-0.392639	
-0.39325	
-0.394958	
-0.392822	
-0.393494	
-0.393372	
-0.394531	
-0.39447	
-0.393738	
-0.393433	
-0.394104	
-0.39502	
-0.395935	
-0.398071	
-0.39679	
-0.397217	
-0.397827	
-0.398804	
-0.398438	
-0.398865	
-0.398254	
-0.398499	
-0.39801	
-0.398926	
-0.40094	
-0.398865	
-0.399048	
-0.39856	
-0.399902	
-0.398804	
-0.398865	
-0.398438	
-0.397705	
-0.397278	
-0.398682	
-0.399963	
-0.397949	
-0.397522	
-0.396912	
-0.397949	
-0.396729	
-0.396851	
-0.395508	
-0.395325	
-0.394775	
-0.395813	
-0.39624	
-0.394226	
-0.393799	
-0.392273	
-0.393799	
-0.3927	
-0.393188	
-0.391296	
-0.391296	
-0.391418	
-0.391724	
-0.392944	
-0.391296	
-0.391541	
-0.390198	
-0.392212	
-0.391296	
-0.391846	
-0.390198	
-0.389709	
-0.390564	
-0.391724	
-0.392944	
-0.390686	
-0.391479	
-0.391113	
-0.392395	
-0.392639	
-0.392944	
-0.391663	
-0.391235	
-0.39209	
-0.393677	
-0.395142	
-0.393677	
-0.393555	
-0.393127	
-0.394653	
-0.394531	
-0.395142	
-0.393433	
-0.393494	
-0.394104	
-0.394958	
-0.39679	
-0.394836	
-0.395142	
-0.394836	
-0.396057	
-0.396545	
-0.396301	
-0.394714	
-0.394836	
-0.39502	
-0.395996	
-0.3974	
-0.395752	
-0.395691	
-0.396057	
-0.396606	
-0.397156	
-0.397461	
-0.396057	
-0.395569	
-0.395569	
-0.396301	
-0.397522	
-0.395264	
-0.395142	
-0.395081	
-0.395142	
-0.39563	
-0.395325	
-0.394409	
-0.393127	
-0.393921	
-0.394409	
-0.395874	
-0.39447	
-0.393677	
-0.394043	
-0.39447	
-0.394653	
-0.394775	
-0.393616	
-0.392822	
-0.393005	
-0.393555	
-0.394348	
-0.392944	
-0.393311	
-0.393311	
-0.393127	
-0.393921	
-0.393311	
-0.3927	
-0.391663	
-0.391968	
-0.392944	
-0.393127	
-0.393188	
-0.393127	
-0.393372	
-0.393005	
-0.393799	
-0.394043	
-0.393372	
-0.393494	
-0.393127	
-0.393677	
-0.394775	
-0.394348	
-0.394592	
-0.395813	
-0.395691	
-0.396912	
-0.397095	
-0.397095	
-0.396729	
-0.396912	
-0.398254	
-0.398438	
-0.398132	
-0.39801	
-0.398743	
-0.396851	
-0.399048	
-0.398621	
-0.397705	
-0.397827	
-0.398315	
-0.398071	
-0.398438	
-0.398621	
-0.398438	
-0.398682	
-0.396057	
-0.398926	
-0.397644	
-0.397278	
-0.396851	
-0.395935	
-0.396301	
-0.396729	
-0.396667	
-0.395447	
-0.396362	
-0.393005	
-0.395508	
-0.394409	
-0.393005	
-0.392639	
-0.391846	
-0.392395	
-0.391663	
-0.391235	
-0.390137	
-0.390564	
-0.388245	
-0.390137	
-0.389404	
-0.38916	
-0.389099	
-0.388733	
-0.388977	
-0.389099	
-0.390076	
-0.388367	
-0.389526	
-0.388062	
-0.389771	
-0.388794	
-0.38916	
-0.389771	
-0.388855	
-0.390137	
-0.390747	
-0.391968	
-0.390747	
-0.391846	
-0.390991	
-0.393127	
-0.392639	
-0.393799	
-0.393433	
-0.393555	
-0.393677	
-0.394287	
-0.395752	
-0.394714	
-0.395874	
-0.394165	
-0.395996	
-0.395142	
-0.395447	
-0.395447	
-0.395935	
-0.396301	
-0.396545	
-0.397034	
-0.396362	
-0.397095	
-0.395874	
-0.397156	
-0.396301	
-0.396545	
-0.39563	
-0.396545	
-0.396667	
-0.396667	
-0.397217	
-0.395935	
-0.395935	
-0.395203	
-0.396484	
-0.395508	
-0.395142	
-0.394714	
-0.394409	
-0.394165	
-0.394714	
-0.395264	
-0.394348	
-0.394592	
-0.392822	
-0.394348	
-0.39386	
-0.393738	
-0.393311	
-0.3927	
-0.393494	
-0.393677	
-0.393921	
-0.392883	
-0.393311	
-0.392029	
-0.393555	
-0.392395	
-0.391968	
-0.392761	
-0.392456	
-0.393433	
-0.393494	
-0.394165	
-0.393433	
-0.393433	
-0.392761	
-0.39386	
-0.393921	
-0.393005	
-0.394409	
-0.394043	
-0.395264	
-0.395386	
-0.395935	
-0.395325	
-0.395935	
-0.395935	
-0.396179	
-0.39624	
-0.395386	
-0.39563	
-0.394958	
-0.396912	
-0.397217	
-0.397827	
-0.397888	
-0.397461	
-0.397583	
-0.397461	
-0.398254	
-0.397339	
-0.3974	
-0.397156	
-0.397888	
-0.398315	
-0.399048	
-0.398193	
-0.398315	
-0.398621	
-0.398132	
-0.398926	
-0.397888	
-0.397888	
-0.397339	
-0.398376	
-0.398682	
-0.399353	
-0.399292	
-0.397827	
-0.398254	
-0.397949	
-0.397339	
-0.397339	
-0.397827	
-0.397156	
-0.397095	
-0.396667	
-0.397156	
-0.396057	
-0.394775	
-0.395081	
-0.394165	
-0.393555	
-0.393066	
-0.392395	
-0.392334	
-0.392212	
-0.392212	
-0.393127	
-0.393311	
-0.392273	
-0.3927	
-0.393127	
-0.391907	
-0.391602	
-0.39209	
-0.392456	
-0.392883	
-0.392761	
-0.39386	
-0.393494	
-0.393066	
-0.393677	
-0.394226	
-0.394043	
-0.394409	
-0.394043	
-0.394897	
-0.394958	
-0.395081	
-0.395508	
-0.396667	
-0.396179	
-0.397339	
-0.397461	
-0.397766	
-0.39801	
-0.398071	
-0.398376	
-0.399048	
-0.398621	
-0.399963	
-0.400574	
-0.399841	
-0.399658	
-0.399719	
-0.400452	
-0.399719	
-0.399353	
-0.399963	
-0.400208	
-0.400085	
-0.40033	
-0.400879	
-0.400452	
-0.401001	
-0.399902	
-0.400024	
-0.399658	
-0.399292	
-0.399414	
-0.399353	
-0.398926	
-0.398865	
-0.398804	
-0.398132	
-0.398132	
-0.397888	
-0.397522	
-0.396423	
-0.396301	
-0.39624	
-0.396729	
-0.396484	
-0.396545	
-0.3974	
-0.396362	
-0.396118	
-0.395874	
-0.395508	
-0.395264	
-0.395081	
-0.39447	
-0.395569	
-0.395569	
-0.395874	
-0.395874	
-0.395508	
-0.395386	
-0.394714	
-0.394897	
-0.39447	
-0.395264	
-0.394592	
-0.395508	
-0.396057	
-0.396362	
-0.396301	
-0.395813	
-0.395935	
-0.395691	
-0.39624	
-0.396423	
-0.396667	
-0.395691	
-0.396851	
-0.396912	
-0.397888	
-0.397217	
-0.396667	
-0.397644	
-0.397644	
-0.397156	
-0.397034	
-0.397217	
-0.396301	
-0.397217	
-0.397583	
-0.398193	
-0.398315	
-0.398254	
-0.398071	
-0.397644	
-0.398376	
-0.397827	
-0.3974	
-0.397278	
-0.39856	
-0.398621	
-0.399597	
-0.399231	
-0.398621	
-0.398682	
-0.39801	
-0.399414	
-0.397461	
-0.396912	
-0.396912	
-0.397583	
	
