E:\DOCUMENTS AND SETTINGS\JPOTAS\MEUS DOCUMENTOS\UFRJ\RSCI-BM 12 WK SERIES\070720-RSCI-BM-04\RSCI-BM-04-LEMG\070720-RSCI-BM-LEMG-0012.ACQ
0.025000 msec/sample
1 channel
Analog input
Volts
CH1	
2000	
-0.390991	
-0.39093	
-0.390625	
-0.389832	
-0.390442	
-0.391785	
-0.391968	
-0.392578	
-0.391907	
-0.392029	
-0.392517	
-0.393005	
-0.393494	
-0.392273	
-0.39209	
-0.392273	
-0.392212	
-0.391907	
-0.392334	
-0.392029	
-0.391296	
-0.391968	
-0.39209	
-0.391785	
-0.391357	
-0.391052	
-0.391785	
-0.391785	
-0.39209	
-0.392822	
-0.393677	
-0.392883	
-0.393616	
-0.392639	
-0.393799	
-0.393188	
-0.392334	
-0.392334	
-0.393188	
-0.393433	
-0.393188	
-0.39325	
-0.393372	
-0.394043	
-0.392761	
-0.393616	
-0.392639	
-0.393188	
-0.392395	
-0.392578	
-0.392639	
-0.392639	
-0.393311	
-0.39209	
-0.392944	
-0.391052	
-0.392761	
-0.391968	
-0.392029	
-0.391235	
-0.391907	
-0.391785	
-0.391724	
-0.393494	
-0.391968	
-0.392029	
-0.391052	
-0.392456	
-0.391541	
-0.392029	
-0.391479	
-0.392151	
-0.392151	
-0.391846	
-0.393799	
-0.392273	
-0.39209	
-0.391235	
-0.392456	
-0.391663	
-0.391479	
-0.391174	
-0.391663	
-0.391479	
-0.391663	
-0.392822	
-0.391602	
-0.391357	
-0.390625	
-0.391418	
-0.390991	
-0.391418	
-0.389771	
-0.391296	
-0.391235	
-0.391174	
-0.393677	
-0.391357	
-0.39209	
-0.391602	
-0.392761	
-0.392029	
-0.391296	
-0.390869	
-0.392212	
-0.392456	
-0.392151	
-0.393677	
-0.391785	
-0.392639	
-0.393005	
-0.392456	
-0.392212	
-0.391113	
-0.391174	
-0.392456	
-0.392761	
-0.392395	
-0.394287	
-0.392822	
-0.393127	
-0.392578	
-0.393372	
-0.392761	
-0.391602	
-0.391785	
-0.392456	
-0.392639	
-0.392639	
-0.394226	
-0.392517	
-0.392273	
-0.392761	
-0.393372	
-0.392273	
-0.391418	
-0.391541	
-0.3927	
-0.392944	
-0.393127	
-0.393555	
-0.392822	
-0.393005	
-0.392761	
-0.393677	
-0.393127	
-0.391907	
-0.392029	
-0.392212	
-0.392761	
-0.39325	
-0.39386	
-0.39325	
-0.393921	
-0.393921	
-0.394104	
-0.393433	
-0.392822	
-0.392273	
-0.3927	
-0.393433	
-0.393677	
-0.394775	
-0.393677	
-0.39386	
-0.393982	
-0.393982	
-0.394409	
-0.393555	
-0.393127	
-0.3927	
-0.393921	
-0.393677	
-0.395203	
-0.394226	
-0.394653	
-0.395691	
-0.395325	
-0.396484	
-0.395447	
-0.39563	
-0.396606	
-0.397278	
-0.397766	
-0.399353	
-0.398865	
-0.398132	
-0.39801	
-0.39679	
-0.397156	
-0.39563	
-0.395508	
-0.39563	
-0.396179	
-0.396057	
-0.396606	
-0.395325	
-0.370544	
-0.373108	
-0.378418	
-0.38092	
-0.379883	
-0.380066	
-0.410889	
-0.40271	
-0.398193	
-0.398499	
-0.396118	
-0.396118	
-0.395142	
-0.394409	
-0.395447	
-0.39325	
-0.394897	
-0.394531	
-0.395203	
-0.394592	
-0.395691	
-0.394653	
-0.395142	
-0.395569	
-0.394287	
-0.395203	
-0.393005	
-0.394165	
-0.394348	
-0.39447	
-0.394653	
-0.39502	
-0.394592	
-0.394714	
-0.395386	
-0.395203	
-0.395752	
-0.393372	
-0.395691	
-0.395813	
-0.396362	
-0.396179	
-0.396667	
-0.397034	
-0.396484	
-0.39801	
-0.395691	
-0.396362	
-0.395874	
-0.396484	
-0.39624	
-0.396667	
-0.39679	
-0.398315	
-0.398621	
-0.400269	
-0.403625	
-0.40387	
-0.407959	
-0.410522	
-0.416504	
-0.421387	
-0.427124	
-0.432068	
-0.438416	
-0.443115	
-0.449219	
-0.454712	
-0.462891	
-0.472046	
-0.478394	
-0.485413	
-0.49176	
-0.497864	
-0.502502	
-0.507507	
-0.510315	
-0.513245	
-0.513123	
-0.515198	
-0.515198	
-0.51532	
-0.514893	
-0.513794	
-0.51355	
-0.512512	
-0.512024	
-0.510071	
-0.508606	
-0.504822	
-0.502808	
-0.499939	
-0.496582	
-0.492981	
-0.48938	
-0.486755	
-0.484924	
-0.483398	
-0.481567	
-0.482666	
-0.457275	
-0.459839	
-0.465698	
-0.468933	
-0.471558	
-0.472961	
-0.506348	
-0.500671	
-0.497803	
-0.496399	
-0.497314	
-0.4953	
-0.494507	
-0.491394	
-0.488831	
-0.486267	
-0.482849	
-0.47998	
-0.476624	
-0.47406	
-0.470215	
-0.467957	
-0.463013	
-0.460266	
-0.457214	
-0.45575	
-0.454468	
-0.453491	
-0.45282	
-0.452454	
-0.452576	
-0.450989	
-0.450745	
-0.447876	
-0.445984	
-0.443298	
-0.442261	
-0.438904	
-0.435669	
-0.432007	
-0.427429	
-0.423035	
-0.417114	
-0.413208	
-0.406067	
-0.400269	
-0.39386	
-0.388123	
-0.380859	
-0.373535	
-0.367737	
-0.360596	
-0.354248	
-0.34613	
-0.339478	
-0.329529	
-0.323425	
-0.315308	
-0.309143	
-0.30249	
-0.29541	
-0.291748	
-0.287537	
-0.28418	
-0.281616	
-0.28125	
-0.276917	
-0.27887	
-0.280518	
-0.285095	
-0.289246	
-0.2948	
-0.301575	
-0.309204	
-0.317017	
-0.323853	
-0.33075	
-0.337463	
-0.34668	
-0.3526	
-0.360962	
-0.368286	
-0.37677	
-0.383179	
-0.39093	
-0.395874	
-0.402527	
-0.405151	
-0.411316	
-0.413757	
-0.416138	
-0.418274	
-0.419495	
-0.420593	
-0.420898	
-0.420898	
-0.420532	
-0.421631	
-0.418945	
-0.420471	
-0.419556	
-0.420654	
-0.421326	
-0.42218	
-0.423218	
-0.424072	
-0.424683	
-0.426147	
-0.428406	
-0.427307	
-0.429565	
-0.429016	
-0.43042	
-0.430115	
-0.430115	
-0.430237	
-0.430969	
-0.429688	
-0.429871	
-0.430908	
-0.426941	
-0.427063	
-0.425354	
-0.42572	
-0.424683	
-0.4245	
-0.4245	
-0.42395	
-0.424072	
-0.423096	
-0.423828	
-0.420898	
-0.421692	
-0.420044	
-0.419067	
-0.417236	
-0.414917	
-0.412292	
-0.409851	
-0.406799	
-0.402954	
-0.399719	
-0.392578	
-0.390991	
-0.385864	
-0.38092	
-0.375732	
-0.368713	
-0.364624	
-0.357849	
-0.35144	
-0.342651	
-0.335083	
-0.324829	
-0.319092	
-0.312195	
-0.304443	
-0.297607	
-0.291077	
-0.286621	
-0.281677	
-0.276184	
-0.272095	
-0.26947	
-0.263184	
-0.262573	
-0.259094	
-0.258118	
-0.256897	
-0.256104	
-0.25647	
-0.25769	
-0.258423	
-0.258728	
-0.260559	
-0.261353	
-0.264526	
-0.264954	
-0.268738	
-0.271667	
-0.275208	
-0.278259	
-0.282349	
-0.284851	
-0.288879	
-0.290588	
-0.295471	
-0.29895	
-0.302795	
-0.30658	
-0.310791	
-0.315186	
-0.319153	
-0.322266	
-0.325806	
-0.32782	
-0.33197	
-0.335327	
-0.334961	
-0.339966	
-0.341675	
-0.344482	
-0.347961	
-0.348755	
-0.351013	
-0.353088	
-0.353333	
-0.355957	
-0.356812	
-0.358276	
-0.359131	
-0.360535	
-0.361389	
-0.362732	
-0.362915	
-0.36377	
-0.364685	
-0.364197	
-0.365112	
-0.364014	
-0.365479	
-0.36554	
-0.36731	
-0.36853	
-0.370178	
-0.370483	
-0.37146	
-0.371155	
-0.372681	
-0.373474	
-0.372192	
-0.373657	
-0.373779	
-0.374451	
-0.37616	
-0.375366	
-0.375427	
-0.375732	
-0.375122	
-0.376282	
-0.376099	
-0.376526	
-0.376465	
-0.375854	
-0.376343	
-0.377625	
-0.376953	
-0.37738	
-0.376038	
-0.376465	
-0.376465	
-0.377014	
-0.376892	
-0.377014	
-0.375854	
-0.37738	
-0.377441	
-0.377258	
-0.37793	
-0.376648	
-0.378052	
-0.377686	
-0.378296	
-0.378479	
-0.377869	
-0.377319	
-0.378601	
-0.379395	
-0.378662	
-0.378723	
-0.378357	
-0.378662	
-0.377991	
-0.378601	
-0.379089	
-0.379211	
-0.378662	
-0.379639	
-0.379944	
-0.379822	
-0.3797	
-0.379089	
-0.379761	
-0.380493	
-0.379456	
-0.380249	
-0.380249	
-0.380981	
-0.381104	
-0.380432	
-0.381226	
-0.380493	
-0.381226	
-0.380676	
-0.381592	
-0.382751	
-0.382813	
-0.383179	
-0.383728	
-0.383545	
-0.383423	
-0.383484	
-0.383118	
-0.38385	
-0.38501	
-0.384216	
-0.384521	
-0.383911	
-0.384888	
-0.385986	
-0.385193	
-0.384827	
-0.384521	
-0.385193	
-0.385925	
-0.38623	
-0.385986	
-0.38623	
-0.386841	
-0.387756	
-0.386292	
-0.38678	
-0.386536	
-0.386169	
-0.385925	
-0.386353	
-0.386292	
-0.386353	
-0.38623	
-0.386719	
-0.386108	
-0.387817	
-0.387573	
-0.385986	
-0.386902	
-0.387268	
-0.387451	
-0.387451	
-0.38739	
-0.387207	
-0.388916	
-0.387939	
-0.387878	
-0.386902	
-0.387695	
-0.387634	
-0.387939	
-0.387817	
-0.387634	
-0.387085	
-0.387756	
-0.388	
-0.388855	
-0.388123	
-0.386597	
-0.387512	
-0.387329	
-0.388123	
-0.388123	
-0.387573	
-0.386169	
-0.388794	
-0.387817	
-0.387451	
-0.386658	
-0.386841	
-0.385864	
-0.387451	
-0.386841	
-0.386658	
-0.387085	
-0.386902	
-0.388672	
-0.388306	
-0.38855	
-0.387634	
-0.38855	
-0.387878	
-0.389038	
-0.388916	
-0.388977	
-0.389465	
-0.389954	
-0.390869	
-0.390808	
-0.389771	
-0.388489	
-0.389038	
-0.387878	
-0.389343	
-0.389099	
-0.38855	
-0.389038	
-0.390015	
-0.389282	
-0.390442	
-0.38916	
-0.388489	
-0.389587	
-0.390381	
-0.390869	
-0.39093	
-0.390747	
-0.390503	
-0.392029	
-0.392334	
-0.393005	
-0.39093	
-0.391479	
-0.390076	
-0.391724	
-0.392456	
-0.391907	
-0.391724	
-0.391479	
-0.392212	
-0.392456	
-0.391479	
-0.39209	
-0.39209	
-0.391418	
-0.391357	
-0.392273	
-0.392334	
-0.391357	
-0.39093	
-0.392273	
-0.392639	
-0.390686	
-0.390503	
-0.390869	
-0.391724	
-0.391357	
-0.391235	
-0.391296	
-0.391113	
-0.390747	
-0.391479	
-0.391602	
-0.391418	
-0.391724	
-0.390442	
-0.391968	
-0.392212	
-0.392029	
-0.391479	
-0.391846	
-0.391907	
-0.392456	
-0.390686	
-0.391235	
-0.391296	
-0.390808	
-0.390747	
-0.391418	
-0.39032	
-0.39093	
-0.39032	
-0.391418	
-0.391357	
-0.39032	
-0.389526	
-0.389343	
-0.390564	
-0.390991	
-0.391235	
-0.391235	
-0.391663	
-0.391724	
-0.392395	
-0.392395	
-0.391602	
-0.391235	
-0.39032	
-0.391785	
-0.392151	
-0.391663	
-0.391724	
-0.392151	
-0.392761	
-0.392822	
-0.390991	
-0.391418	
-0.391724	
-0.391479	
-0.392151	
-0.392639	
-0.392334	
-0.392456	
-0.392212	
-0.393311	
-0.393188	
-0.392395	
-0.391296	
-0.391357	
-0.391968	
-0.392212	
-0.392822	
-0.392029	
-0.393005	
-0.392395	
-0.392822	
-0.392212	
-0.392212	
-0.391113	
-0.390808	
-0.390747	
-0.392273	
-0.392822	
-0.392578	
-0.3927	
-0.392517	
-0.392761	
-0.391907	
-0.3927	
-0.391174	
-0.392639	
-0.391663	
-0.3927	
-0.393311	
-0.393311	
-0.393188	
-0.393799	
-0.393738	
-0.392334	
-0.393677	
-0.392578	
-0.393188	
-0.392212	
-0.393127	
-0.393921	
-0.393677	
-0.39325	
-0.393799	
-0.394104	
-0.393616	
-0.394104	
-0.393127	
-0.393433	
-0.392273	
-0.393555	
-0.393494	
-0.394226	
-0.394165	
-0.395447	
-0.39447	
-0.39502	
-0.394653	
-0.394592	
-0.395691	
-0.395447	
-0.39679	
-0.397705	
-0.398438	
-0.397888	
-0.398376	
-0.397217	
-0.396851	
-0.395325	
-0.396118	
-0.395813	
-0.39502	
-0.395691	
-0.396179	
-0.395935	
-0.39624	
-0.395813	
-0.394226	
-0.396057	
-0.395203	
-0.395569	
-0.395203	
-0.394897	
-0.395569	
-0.395996	
-0.394836	
-0.395386	
-0.395386	
-0.395264	
-0.394836	
-0.393738	
-0.394775	
-0.394653	
-0.394165	
-0.394653	
-0.396362	
-0.395325	
-0.395874	
-0.394592	
-0.394592	
-0.395081	
-0.394348	
-0.395203	
-0.394531	
-0.393738	
-0.395203	
-0.396545	
-0.394775	
-0.396057	
-0.394348	
-0.39502	
-0.394592	
-0.395203	
-0.395203	
-0.395325	
-0.394531	
-0.396057	
-0.397644	
-0.396545	
-0.397156	
-0.395142	
-0.396606	
-0.39624	
-0.397217	
-0.396851	
-0.397217	
-0.396545	
-0.39801	
-0.398926	
-0.397705	
-0.398193	
-0.39624	
-0.3974	
-0.395935	
-0.397522	
-0.397583	
-0.397095	
-0.395752	
-0.396851	
-0.397949	
-0.396912	
-0.396423	
-0.394531	
-0.396484	
-0.395874	
-0.396851	
-0.396973	
-0.39679	
-0.396057	
-0.396912	
-0.3974	
-0.397827	
-0.396667	
-0.395325	
-0.396301	
-0.396973	
-0.397034	
-0.396973	
-0.396912	
-0.396362	
-0.396667	
-0.397888	
-0.398315	
-0.39624	
-0.395935	
-0.396362	
-0.397156	
-0.396973	
-0.397034	
-0.397522	
-0.398132	
-0.398254	
-0.398315	
-0.399292	
-0.397461	
-0.396301	
-0.395813	
-0.3974	
-0.397766	
-0.397888	
-0.397034	
-0.397095	
-0.397888	
-0.398132	
-0.397461	
-0.397095	
-0.396118	
-0.396606	
-0.398193	
-0.397522	
-0.397827	
-0.397766	
-0.397705	
-0.398621	
-0.399231	
-0.398132	
-0.398071	
-0.397766	
-0.399109	
-0.398743	
-0.399048	
-0.399536	
-0.399048	
-0.399719	
-0.400513	
-0.401001	
-0.399719	
-0.399597	
-0.398987	
-0.400208	
-0.400513	
-0.401001	
-0.401245	
-0.400269	
-0.401001	
-0.401428	
-0.401672	
-0.400085	
-0.399475	
-0.398621	
-0.399353	
-0.400146	
-0.399414	
-0.398499	
-0.398438	
-0.398987	
-0.399475	
-0.400818	
-0.398987	
-0.398743	
-0.397766	
-0.399902	
-0.40033	
-0.399414	
-0.400208	
-0.400085	
-0.400452	
-0.400513	
-0.4021	
-0.399902	
-0.398804	
-0.397339	
-0.399231	
-0.39978	
-0.398987	
-0.398682	
-0.398743	
-0.398926	
-0.398621	
-0.400085	
-0.398254	
-0.397644	
-0.395508	
-0.39801	
-0.398499	
-0.39801	
-0.398071	
-0.398132	
-0.398621	
-0.398682	
-0.399597	
-0.39856	
-0.397827	
-0.395752	
-0.39856	
-0.399109	
-0.398987	
-0.398987	
-0.399048	
-0.399292	
-0.399353	
-0.400391	
-0.399048	
-0.398682	
-0.396912	
-0.399536	
-0.399231	
-0.39917	
-0.39978	
-0.399353	
-0.400208	
-0.39978	
-0.400879	
-0.399597	
-0.399597	
-0.39801	
-0.400513	
-0.400574	
-0.400146	
-0.401001	
-0.401184	
-0.401672	
-0.401062	
-0.400635	
-0.399231	
-0.400146	
-0.39856	
-0.400696	
-0.402039	
-0.401001	
-0.401611	
-0.401062	
-0.401611	
-0.40155	
-0.401001	
-0.399902	
-0.400085	
-0.399902	
-0.400635	
-0.40094	
-0.399841	
-0.400146	
-0.399719	
-0.39978	
-0.400452	
-0.399719	
-0.399292	
-0.398438	
-0.39917	
-0.400024	
-0.400269	
-0.399231	
-0.398987	
-0.399475	
-0.399475	
-0.400696	
-0.399475	
-0.399231	
-0.398499	
-0.398071	
-0.399292	
-0.399841	
-0.399109	
-0.398682	
-0.399536	
-0.398804	
-0.400085	
-0.39856	
-0.398865	
-0.398743	
-0.397949	
-0.399597	
-0.40033	
-0.399109	
-0.398682	
-0.398682	
-0.399353	
-0.400879	
-0.398315	
-0.399475	
-0.398376	
-0.397888	
-0.398804	
-0.399475	
-0.398987	
-0.398987	
-0.39801	
-0.398682	
-0.400452	
-0.398315	
-0.398621	
-0.398499	
-0.398132	
-0.398132	
-0.398804	
-0.398132	
-0.398376	
-0.397034	
-0.398743	
-0.399719	
-0.398254	
-0.398132	
-0.397522	
-0.397705	
-0.398132	
-0.398315	
-0.398132	
-0.397522	
-0.397156	
-0.397827	
-0.398926	
-0.398254	
-0.397827	
-0.397217	
-0.39679	
-0.398132	
-0.397461	
-0.396973	
-0.397217	
-0.396729	
-0.39679	
-0.397766	
-0.395874	
-0.394897	
-0.393677	
-0.393555	
-0.394165	
-0.393433	
-0.393921	
-0.394104	
-0.394409	
-0.395508	
-0.396301	
-0.395935	
-0.395508	
-0.395142	
-0.394714	
-0.396423	
-0.395874	
-0.396057	
-0.396484	
-0.395874	
-0.395935	
-0.397705	
-0.39679	
-0.397034	
-0.396057	
-0.395569	
-0.396851	
-0.396362	
-0.39679	
-0.396484	
-0.396667	
-0.396423	
-0.398071	
-0.39679	
-0.396118	
-0.395996	
-0.396118	
-0.397095	
-0.39624	
-0.396118	
-0.396179	
-0.396362	
-0.396606	
-0.397461	
-0.396179	
-0.396973	
-0.395874	
-0.396973	
-0.39679	
-0.396851	
-0.396729	
-0.395813	
-0.396423	
-0.396484	
-0.396606	
-0.396179	
-0.395874	
-0.395264	
-0.395874	
-0.396667	
-0.396606	
-0.395935	
-0.39563	
-0.395874	
-0.395447	
-0.396301	
-0.395142	
-0.395081	
-0.394775	
-0.395203	
-0.395142	
-0.394775	
-0.39447	
-0.394653	
-0.394714	
-0.394836	
-0.396423	
-0.394653	
-0.394714	
-0.394653	
-0.39563	
-0.394897	
-0.395203	
-0.395264	
-0.395447	
-0.395203	
-0.395203	
-0.396423	
-0.394653	
-0.395142	
-0.39447	
-0.395691	
-0.394897	
-0.394775	
-0.395142	
-0.395325	
-0.394897	
-0.395081	
-0.396362	
-0.394897	
-0.395081	
-0.394958	
-0.396118	
-0.394592	
-0.395081	
-0.394165	
-0.39502	
-0.394958	
-0.395081	
-0.396729	
-0.39386	
-0.394592	
-0.393677	
-0.39502	
-0.394165	
-0.394348	
-0.393066	
-0.394531	
-0.394836	
-0.394897	
-0.396667	
-0.394165	
-0.394836	
-0.394226	
-0.394348	
-0.394287	
-0.394836	
-0.393738	
-0.394775	
-0.39502	
-0.394775	
-0.396362	
-0.393005	
-0.39386	
-0.393066	
-0.393982	
-0.39386	
-0.394043	
-0.393066	
-0.393799	
-0.393677	
-0.393799	
-0.394958	
-0.391785	
-0.392273	
-0.391724	
-0.392456	
-0.392212	
-0.392273	
-0.391357	
-0.391785	
-0.39209	
-0.391785	
-0.391968	
-0.390259	
-0.391602	
-0.390381	
-0.391907	
-0.392395	
-0.392578	
-0.392029	
-0.393127	
-0.393066	
-0.392761	
-0.393799	
-0.392883	
-0.393372	
-0.393005	
-0.393555	
-0.393738	
-0.392883	
-0.392151	
-0.392822	
-0.392578	
-0.392273	
-0.392822	
-0.391174	
-0.391785	
-0.391968	
-0.392334	
-0.392334	
-0.392334	
-0.393311	
-0.393921	
-0.393799	
-0.394043	
-0.394531	
-0.392761	
-0.394043	
-0.394592	
-0.393372	
-0.394104	
-0.394165	
-0.393677	
-0.393738	
-0.394165	
-0.394836	
-0.394348	
-0.392639	
-0.393982	
-0.393921	
-0.393188	
-0.393799	
-0.393372	
-0.393066	
-0.393494	
-0.393738	
-0.393677	
-0.393372	
-0.39209	
-0.392883	
-0.3927	
-0.391846	
-0.393555	
-0.392822	
-0.391907	
-0.392456	
-0.392822	
-0.393494	
-0.3927	
-0.392029	
-0.392334	
-0.392395	
-0.391785	
-0.392883	
-0.392822	
-0.392212	
-0.392273	
-0.393127	
-0.393799	
-0.392883	
-0.391846	
-0.391663	
-0.392456	
-0.391602	
-0.392517	
-0.392273	
-0.391113	
-0.391968	
-0.392395	
-0.391846	
-0.392273	
-0.391602	
-0.390442	
-0.391418	
-0.391113	
-0.391052	
-0.391602	
-0.391113	
-0.392029	
-0.392151	
-0.391724	
-0.392822	
-0.393066	
-0.392395	
-0.392395	
-0.392151	
-0.392517	
-0.392883	
-0.392395	
-0.39325	
-0.393005	
-0.392517	
-0.39325	
-0.393372	
-0.393005	
-0.392151	
-0.392517	
-0.392761	
-0.393188	
-0.392761	
-0.393311	
-0.394165	
-0.393188	
-0.394043	
-0.393433	
-0.393433	
-0.393555	
-0.393066	
-0.393311	
-0.39325	
-0.392822	
-0.39386	
-0.393188	
-0.392883	
-0.393494	
-0.392456	
-0.3927	
-0.392944	
-0.392822	
-0.393188	
-0.393372	
-0.393127	
-0.393616	
-0.39386	
-0.393188	
-0.393372	
-0.393005	
-0.393555	
-0.392883	
-0.393188	
-0.393494	
-0.393616	
-0.393433	
-0.394409	
-0.39386	
-0.393982	
-0.394226	
-0.393677	
-0.394409	
-0.393616	
-0.393494	
-0.394226	
-0.393677	
-0.393921	
-0.39502	
-0.394653	
-0.39386	
-0.394531	
-0.394592	
-0.394287	
-0.394287	
-0.394165	
-0.394592	
-0.39386	
-0.394104	
-0.395386	
-0.394104	
-0.395081	
-0.395996	
-0.395813	
-0.395447	
-0.396179	
-0.396545	
-0.397095	
-0.397217	
-0.397827	
-0.399109	
-0.398499	
-0.398621	
-0.398987	
-0.397705	
-0.3974	
-0.396851	
-0.396484	
-0.396423	
-0.397156	
-0.396423	
-0.397217	
-0.396179	
-0.396667	
-0.39624	
-0.396057	
-0.396057	
-0.394775	
-0.395935	
-0.395813	
-0.395203	
-0.395386	
-0.396729	
-0.395447	
-0.395569	
-0.39563	
-0.396057	
-0.395508	
-0.394775	
-0.394836	
-0.395386	
-0.395081	
-0.39502	
-0.396423	
-0.395203	
-0.395691	
-0.395386	
-0.395142	
-0.395569	
-0.394714	
-0.395203	
-0.39502	
-0.395081	
-0.395203	
-0.396301	
-0.395386	
-0.395142	
-0.395264	
-0.395752	
-0.395752	
-0.395569	
-0.394958	
-0.395691	
-0.396057	
-0.395691	
-0.39801	
-0.396667	
-0.396973	
-0.397156	
-0.396729	
-0.396667	
-0.397217	
-0.398132	
-0.397461	
-0.397705	
-0.397705	
-0.399109	
-0.398132	
-0.397949	
-0.397705	
-0.397644	
-0.397644	
-0.397156	
-0.397095	
-0.3974	
-0.396973	
-0.396301	
-0.397644	
-0.397034	
-0.397705	
-0.395935	
-0.396545	
-0.396606	
-0.397217	
-0.397339	
-0.396484	
-0.396729	
-0.39624	
-0.398193	
-0.397339	
-0.397827	
-0.397156	
-0.397095	
-0.396301	
-0.396423	
-0.397583	
-0.396851	
-0.396301	
-0.395813	
-0.39801	
-0.396667	
-0.398193	
-0.397095	
-0.397095	
-0.396912	
-0.3974	
-0.398193	
-0.397644	
-0.397949	
-0.396851	
-0.399109	
-0.3974	
-0.398438	
-0.397583	
-0.397339	
-0.396973	
-0.397278	
-0.397217	
-0.397705	
-0.397156	
-0.395996	
-0.399048	
-0.39801	
-0.397949	
-0.397156	
-0.397644	
-0.396973	
-0.397522	
-0.398193	
-0.397888	
-0.39801	
-0.3974	
-0.399353	
-0.39856	
-0.398499	
-0.398682	
-0.398193	
-0.397888	
-0.398499	
-0.399292	
-0.399414	
-0.398926	
-0.398376	
-0.401062	
-0.399658	
-0.400085	
-0.399719	
-0.400085	
-0.399414	
-0.400146	
-0.401123	
-0.400085	
-0.400208	
-0.399048	
-0.401245	
-0.399719	
-0.399353	
-0.398987	
-0.398499	
-0.398865	
-0.398499	
-0.398804	
-0.398254	
-0.397888	
-0.3974	
-0.399536	
-0.398743	
-0.398865	
-0.398926	
-0.398865	
-0.399597	
-0.399048	
-0.400024	
-0.399292	
-0.39978	
-0.398926	
-0.401367	
-0.400085	
-0.399536	
-0.397949	
-0.398743	
-0.398254	
-0.398376	
-0.398682	
-0.397583	
-0.397156	
-0.397644	
-0.399353	
-0.398315	
-0.397644	
-0.39679	
-0.3974	
-0.397522	
-0.397217	
-0.398743	
-0.397888	
-0.397705	
-0.397339	
-0.398499	
-0.398071	
-0.397644	
-0.397217	
-0.397278	
-0.398071	
-0.398315	
-0.399231	
-0.39856	
-0.39856	
-0.398743	
-0.398926	
-0.39856	
-0.398926	
-0.398376	
-0.398438	
-0.398682	
-0.398926	
-0.400269	
-0.398987	
-0.398804	
-0.399292	
-0.400024	
-0.399597	
-0.398804	
-0.399109	
-0.400085	
-0.399475	
-0.399841	
-0.400208	
-0.400146	
-0.400452	
-0.400391	
-0.400452	
-0.400146	
-0.399902	
-0.399902	
-0.400146	
-0.399475	
-0.399597	
-0.400513	
-0.40033	
-0.40094	
-0.400208	
-0.400879	
-0.399719	
-0.399963	
-0.400024	
-0.399658	
-0.39801	
-0.398926	
-0.398254	
-0.398987	
-0.399231	
-0.399048	
-0.39917	
-0.398926	
-0.399048	
-0.398438	
-0.399048	
-0.397156	
-0.398132	
-0.397644	
-0.398193	
-0.398254	
-0.399048	
-0.399231	
-0.39856	
-0.398743	
-0.397949	
-0.399536	
-0.397949	
-0.398438	
-0.397461	
-0.397949	
-0.397705	
-0.398315	
-0.398499	
-0.398071	
-0.398682	
-0.397766	
-0.399353	
-0.397644	
-0.398315	
-0.399109	
-0.397888	
-0.398132	
-0.39917	
-0.398926	
-0.397827	
-0.398499	
-0.397278	
-0.398254	
-0.397278	
-0.397949	
-0.397949	
-0.397644	
-0.397949	
-0.398376	
-0.398315	
-0.398193	
-0.398132	
-0.396729	
-0.397949	
-0.39624	
-0.39679	
-0.398499	
-0.397156	
-0.397278	
-0.39801	
-0.397705	
-0.397461	
-0.397156	
-0.396301	
-0.397705	
-0.396973	
-0.397156	
-0.397705	
-0.396667	
-0.39679	
-0.397644	
-0.397583	
-0.396851	
-0.39801	
-0.396179	
-0.396729	
-0.395813	
-0.395569	
-0.396484	
-0.395081	
-0.39563	
-0.395264	
-0.39502	
-0.394226	
-0.393494	
-0.392273	
-0.392883	
-0.392578	
-0.392944	
-0.393555	
-0.394043	
-0.393677	
-0.394714	
-0.395386	
-0.394653	
-0.395264	
-0.394531	
-0.394836	
-0.394714	
-0.394897	
-0.395386	
-0.393982	
-0.395325	
-0.395996	
-0.396118	
-0.39563	
-0.395813	
-0.395142	
-0.395935	
-0.39563	
-0.395691	
-0.39563	
-0.394714	
-0.395325	
-0.395752	
-0.395996	
-0.395142	
-0.395874	
-0.395325	
-0.395508	
-0.39563	
-0.395569	
-0.395752	
-0.394775	
-0.395813	
-0.395081	
-0.395752	
-0.395508	
-0.395569	
-0.395142	
-0.395874	
-0.396729	
-0.395996	
-0.396057	
-0.395264	
-0.395508	
-0.395508	
-0.395325	
-0.394897	
-0.395508	
-0.394897	
-0.395264	
-0.395569	
-0.394714	
-0.39502	
-0.39386	
-0.394714	
-0.393921	
-0.394531	
-0.394287	
-0.393982	
-0.393494	
-0.394348	
-0.394836	
-0.39386	
-0.393066	
-0.393127	
-0.393982	
-0.394226	
-0.394287	
-0.393616	
-0.394531	
-0.394104	
-0.394348	
-0.394531	
-0.394165	
-0.394165	
-0.393799	
-0.393372	
-0.393982	
-0.395142	
-0.394409	
-0.394104	
-0.393372	
-0.393738	
-0.394653	
-0.39447	
-0.393555	
-0.39386	
-0.393738	
-0.394043	
-0.394409	
-0.394226	
-0.394836	
-0.393677	
-0.393982	
-0.394409	
-0.394592	
-0.394043	
-0.393555	
-0.393616	
-0.393433	
-0.393738	
-0.393799	
-0.393677	
-0.393005	
-0.393005	
-0.393372	
-0.394043	
-0.393005	
-0.393433	
-0.393555	
-0.394226	
-0.394348	
-0.393616	
-0.394348	
-0.392639	
-0.393494	
-0.394043	
-0.394165	
-0.393372	
-0.393005	
-0.392517	
-0.393372	
-0.393799	
-0.392883	
-0.393311	
-0.391418	
-0.393066	
-0.392883	
-0.393188	
-0.3927	
-0.392334	
-0.391357	
-0.392517	
-0.392395	
-0.391602	
-0.39209	
-0.389404	
-0.391174	
-0.391602	
-0.391174	
-0.390503	
-0.390259	
-0.389526	
-0.390198	
	
