E:\DOCUMENTS AND SETTINGS\JPOTAS\MEUS DOCUMENTOS\UFRJ\RSCI-BM 12 WK SERIES\070720-RSCI-BM-04\RSCI-BM-04-LEMG\070720-RSCI-BM-LEMG-0017.ACQ
0.025000 msec/sample
1 channel
Analog input
Volts
CH1	
2000	
-0.391052	
-0.391113	
-0.392334	
-0.392212	
-0.39209	
-0.392456	
-0.392578	
-0.393494	
-0.394287	
-0.395447	
-0.394836	
-0.394836	
-0.395081	
-0.396057	
-0.395813	
-0.395142	
-0.39447	
-0.393494	
-0.394897	
-0.394653	
-0.395447	
-0.394653	
-0.393921	
-0.394226	
-0.395569	
-0.395203	
-0.394714	
-0.394348	
-0.393005	
-0.394714	
-0.394897	
-0.394531	
-0.393982	
-0.394043	
-0.393433	
-0.394592	
-0.394836	
-0.393982	
-0.393433	
-0.392822	
-0.393555	
-0.393677	
-0.39447	
-0.393738	
-0.393188	
-0.393066	
-0.394165	
-0.394775	
-0.393372	
-0.392883	
-0.392761	
-0.393555	
-0.394165	
-0.39447	
-0.393188	
-0.3927	
-0.39325	
-0.394348	
-0.394653	
-0.392883	
-0.392578	
-0.392639	
-0.393555	
-0.394531	
-0.394287	
-0.393433	
-0.393555	
-0.393616	
-0.395264	
-0.395569	
-0.39502	
-0.393982	
-0.394653	
-0.395325	
-0.396362	
-0.395752	
-0.395447	
-0.395264	
-0.394775	
-0.396851	
-0.397339	
-0.395874	
-0.394287	
-0.395142	
-0.395142	
-0.395569	
-0.395325	
-0.395325	
-0.394287	
-0.394287	
-0.395203	
-0.396179	
-0.394348	
-0.393433	
-0.394104	
-0.395142	
-0.395874	
-0.395264	
-0.394531	
-0.39386	
-0.395325	
-0.39502	
-0.395386	
-0.39447	
-0.394165	
-0.394775	
-0.394775	
-0.394775	
-0.395569	
-0.395081	
-0.393921	
-0.394714	
-0.395142	
-0.396118	
-0.394653	
-0.393921	
-0.39447	
-0.395142	
-0.395264	
-0.395508	
-0.395447	
-0.395447	
-0.395874	
-0.39563	
-0.396057	
-0.395264	
-0.394043	
-0.394043	
-0.395203	
-0.395569	
-0.395081	
-0.394592	
-0.394653	
-0.395142	
-0.395325	
-0.395752	
-0.394653	
-0.393311	
-0.393188	
-0.394958	
-0.395447	
-0.394714	
-0.394287	
-0.394653	
-0.394775	
-0.394714	
-0.396118	
-0.394897	
-0.393982	
-0.39447	
-0.396606	
-0.396667	
-0.396118	
-0.395569	
-0.395691	
-0.396362	
-0.396912	
-0.397522	
-0.396301	
-0.395386	
-0.396118	
-0.397461	
-0.397461	
-0.3974	
-0.396545	
-0.39624	
-0.397339	
-0.397705	
-0.397766	
-0.396851	
-0.395752	
-0.395935	
-0.398132	
-0.398682	
-0.399109	
-0.398743	
-0.398682	
-0.400146	
-0.400635	
-0.400208	
-0.400024	
-0.400085	
-0.398682	
-0.401062	
-0.400513	
-0.39917	
-0.398682	
-0.398132	
-0.399109	
-0.39978	
-0.398987	
-0.398132	
-0.397888	
-0.396912	
-0.399231	
-0.398621	
-0.398193	
-0.36969	
-0.372803	
-0.378235	
-0.380798	
-0.380493	
-0.380127	
-0.412964	
-0.401978	
-0.398865	
-0.397095	
-0.396362	
-0.395508	
-0.394348	
-0.395813	
-0.395752	
-0.395813	
-0.395142	
-0.394714	
-0.393799	
-0.395447	
-0.395142	
-0.394043	
-0.394409	
-0.394165	
-0.39563	
-0.395508	
-0.395508	
-0.394836	
-0.395203	
-0.393677	
-0.396179	
-0.395874	
-0.395386	
-0.395325	
-0.395386	
-0.396667	
-0.397766	
-0.397339	
-0.397583	
-0.397339	
-0.396912	
-0.399048	
-0.399353	
-0.398926	
-0.399109	
-0.399109	
-0.400085	
-0.400085	
-0.39978	
-0.399292	
-0.399353	
-0.399109	
-0.40094	
-0.402222	
-0.402039	
-0.403381	
-0.405212	
-0.409119	
-0.413757	
-0.418335	
-0.423157	
-0.427612	
-0.433838	
-0.440674	
-0.445068	
-0.450684	
-0.455688	
-0.462952	
-0.471252	
-0.480713	
-0.487915	
-0.49469	
-0.499512	
-0.505859	
-0.512024	
-0.516174	
-0.519958	
-0.522217	
-0.524536	
-0.526001	
-0.526123	
-0.526245	
-0.525574	
-0.524658	
-0.524963	
-0.52478	
-0.522522	
-0.521179	
-0.518677	
-0.516907	
-0.514771	
-0.511414	
-0.507507	
-0.503967	
-0.500854	
-0.499146	
-0.497437	
-0.494141	
-0.492615	
-0.492371	
-0.49292	
-0.49408	
-0.495239	
-0.496155	
-0.497253	
-0.499023	
-0.502014	
-0.503845	
-0.504211	
-0.50531	
-0.505432	
-0.506042	
-0.505859	
-0.503174	
-0.499634	
-0.496277	
-0.49292	
-0.490356	
-0.486938	
-0.483215	
-0.478882	
-0.474976	
-0.473022	
-0.471252	
-0.468506	
-0.465759	
-0.464111	
-0.462341	
-0.462952	
-0.461243	
-0.459351	
-0.456604	
-0.455872	
-0.454346	
-0.453125	
-0.448792	
-0.444702	
-0.440796	
-0.436401	
-0.432495	
-0.426697	
-0.420837	
-0.413452	
-0.408203	
-0.401733	
-0.396057	
-0.387817	
-0.380249	
-0.371887	
-0.364502	
-0.359009	
-0.350342	
-0.343018	
-0.334839	
-0.32666	
-0.320618	
-0.31366	
-0.305359	
-0.297119	
-0.288696	
-0.280396	
-0.273132	
-0.264771	
-0.257935	
-0.250366	
-0.246155	
-0.242188	
-0.240784	
-0.237854	
-0.236816	
-0.236023	
-0.236206	
-0.238953	
-0.239624	
-0.240784	
-0.243958	
-0.247681	
-0.251465	
-0.255737	
-0.26001	
-0.264465	
-0.268921	
-0.276794	
-0.282471	
-0.287476	
-0.29303	
-0.299133	
-0.304749	
-0.310425	
-0.314331	
-0.318726	
-0.321899	
-0.327698	
-0.330444	
-0.333984	
-0.335876	
-0.339661	
-0.342957	
-0.345947	
-0.347717	
-0.348938	
-0.351135	
-0.352966	
-0.355896	
-0.356323	
-0.357971	
-0.359436	
-0.360229	
-0.361206	
-0.363403	
-0.363525	
-0.364441	
-0.363892	
-0.366333	
-0.366272	
-0.366699	
-0.366272	
-0.367188	
-0.36792	
-0.369446	
-0.36969	
-0.369507	
-0.369995	
-0.370361	
-0.371582	
-0.370789	
-0.370911	
-0.37085	
-0.371765	
-0.372375	
-0.37384	
-0.371887	
-0.372375	
-0.371521	
-0.372986	
-0.372681	
-0.372803	
-0.372375	
-0.373352	
-0.373108	
-0.373901	
-0.37439	
-0.373901	
-0.373535	
-0.373169	
-0.374207	
-0.373779	
-0.373535	
-0.373352	
-0.374207	
-0.374878	
-0.375854	
-0.374817	
-0.374268	
-0.374268	
-0.374329	
-0.374329	
-0.373962	
-0.373413	
-0.374573	
-0.374573	
-0.373901	
-0.375671	
-0.374756	
-0.374146	
-0.372986	
-0.374329	
-0.374939	
-0.374451	
-0.373535	
-0.374634	
-0.374573	
-0.375427	
-0.375549	
-0.374634	
-0.37439	
-0.374512	
-0.374207	
-0.374573	
-0.373413	
-0.374695	
-0.374817	
-0.374878	
-0.374329	
-0.374878	
-0.373779	
-0.374329	
-0.373108	
-0.374268	
-0.374023	
-0.374695	
-0.374573	
-0.374695	
-0.374939	
-0.375977	
-0.374878	
-0.375793	
-0.374146	
-0.37616	
-0.376282	
-0.376038	
-0.376343	
-0.376953	
-0.377563	
-0.377747	
-0.377258	
-0.37738	
-0.377808	
-0.377136	
-0.37738	
-0.37561	
-0.376526	
-0.376709	
-0.376587	
-0.376282	
-0.377991	
-0.376038	
-0.376831	
-0.37439	
-0.376648	
-0.375427	
-0.377136	
-0.378174	
-0.378906	
-0.378845	
-0.379822	
-0.379211	
-0.378906	
-0.379272	
-0.380005	
-0.379089	
-0.379761	
-0.380432	
-0.38031	
-0.381165	
-0.381287	
-0.383057	
-0.382324	
-0.383545	
-0.381226	
-0.384033	
-0.382751	
-0.384277	
-0.38446	
-0.384949	
-0.38562	
-0.384888	
-0.384277	
-0.384338	
-0.384949	
-0.384399	
-0.38501	
-0.384705	
-0.385254	
-0.385803	
-0.386353	
-0.385925	
-0.386292	
-0.38562	
-0.385376	
-0.385254	
-0.385315	
-0.384521	
-0.384827	
-0.385864	
-0.386047	
-0.386047	
-0.38562	
-0.38623	
-0.385498	
-0.385437	
-0.384949	
-0.384949	
-0.384399	
-0.384033	
-0.38501	
-0.384827	
-0.384216	
-0.384399	
-0.384033	
-0.383484	
-0.383423	
-0.383667	
-0.383545	
-0.382141	
-0.383423	
-0.382629	
-0.383606	
-0.383606	
-0.384827	
-0.384827	
-0.383667	
-0.383667	
-0.383789	
-0.384094	
-0.384399	
-0.384277	
-0.38501	
-0.384949	
-0.385864	
-0.385559	
-0.386353	
-0.385864	
-0.386047	
-0.38501	
-0.385681	
-0.385864	
-0.386597	
-0.386597	
-0.387146	
-0.388672	
-0.387268	
-0.387878	
-0.386292	
-0.386902	
-0.387207	
-0.387695	
-0.387512	
-0.388123	
-0.388062	
-0.387756	
-0.387573	
-0.388367	
-0.388	
-0.38739	
-0.387695	
-0.38739	
-0.387512	
-0.388245	
-0.387939	
-0.388062	
-0.389648	
-0.389282	
-0.388794	
-0.387573	
-0.389221	
-0.387329	
-0.388733	
-0.387756	
-0.389038	
-0.38916	
-0.389893	
-0.389709	
-0.389099	
-0.389526	
-0.388367	
-0.388428	
-0.388306	
-0.388672	
-0.388977	
-0.38916	
-0.38916	
-0.389709	
-0.389526	
-0.389832	
-0.38855	
-0.388672	
-0.388367	
-0.388977	
-0.388306	
-0.388611	
-0.388855	
-0.389221	
-0.389343	
-0.389526	
-0.389587	
-0.389893	
-0.389465	
-0.388062	
-0.389587	
-0.389709	
-0.389954	
-0.391174	
-0.391663	
-0.391663	
-0.392273	
-0.391602	
-0.392395	
-0.392944	
-0.391907	
-0.393738	
-0.394409	
-0.394287	
-0.394592	
-0.394531	
-0.394775	
-0.39447	
-0.393677	
-0.394775	
-0.393677	
-0.393677	
-0.393494	
-0.394165	
-0.394226	
-0.394714	
-0.393799	
-0.394287	
-0.39447	
-0.39386	
-0.393616	
-0.392761	
-0.393677	
-0.392334	
-0.393433	
-0.393311	
-0.393982	
-0.393127	
-0.393982	
-0.393494	
-0.393677	
-0.392883	
-0.391357	
-0.392639	
-0.393066	
-0.393677	
-0.393494	
-0.393066	
-0.39325	
-0.393677	
-0.393066	
-0.393433	
-0.3927	
-0.390991	
-0.392395	
-0.392334	
-0.392822	
-0.393188	
-0.392578	
-0.393188	
-0.393982	
-0.392578	
-0.394043	
-0.393127	
-0.393127	
-0.391785	
-0.393555	
-0.393982	
-0.394836	
-0.393921	
-0.393982	
-0.396362	
-0.395081	
-0.394836	
-0.39386	
-0.395142	
-0.395996	
-0.395386	
-0.395142	
-0.395935	
-0.395813	
-0.395569	
-0.396057	
-0.396179	
-0.395508	
-0.392944	
-0.394531	
-0.394165	
-0.394714	
-0.394897	
-0.39447	
-0.394836	
-0.395081	
-0.394775	
-0.394836	
-0.393738	
-0.393066	
-0.393738	
-0.394775	
-0.394348	
-0.394714	
-0.394775	
-0.394531	
-0.395569	
-0.395142	
-0.394531	
-0.393433	
-0.393372	
-0.394226	
-0.394653	
-0.394836	
-0.395142	
-0.395081	
-0.39502	
-0.395569	
-0.395752	
-0.394714	
-0.39386	
-0.393494	
-0.395142	
-0.394958	
-0.39502	
-0.396301	
-0.394958	
-0.395996	
-0.395508	
-0.395874	
-0.394409	
-0.393127	
-0.393616	
-0.394348	
-0.394531	
-0.394958	
-0.395203	
-0.394653	
-0.395691	
-0.39386	
-0.394775	
-0.393005	
-0.393738	
-0.393433	
-0.39447	
-0.394226	
-0.394653	
-0.393982	
-0.394287	
-0.395325	
-0.395935	
-0.394958	
-0.394409	
-0.394897	
-0.393982	
-0.395142	
-0.395508	
-0.39563	
-0.395813	
-0.396423	
-0.39679	
-0.397583	
-0.396545	
-0.395935	
-0.395752	
-0.395569	
-0.396545	
-0.396729	
-0.397827	
-0.396912	
-0.397156	
-0.397156	
-0.397278	
-0.395813	
-0.395935	
-0.396118	
-0.396667	
-0.398132	
-0.398804	
-0.399658	
-0.398865	
-0.400269	
-0.399597	
-0.399719	
-0.399109	
-0.39856	
-0.399231	
-0.398438	
-0.399475	
-0.399475	
-0.399658	
-0.398865	
-0.39917	
-0.3974	
-0.397766	
-0.396606	
-0.397644	
-0.397339	
-0.397278	
-0.3974	
-0.397766	
-0.397339	
-0.397644	
-0.397766	
-0.39624	
-0.396423	
-0.394653	
-0.395142	
-0.394531	
-0.394836	
-0.394714	
-0.394531	
-0.394409	
-0.394592	
-0.395447	
-0.395508	
-0.395142	
-0.394165	
-0.394165	
-0.394653	
-0.394958	
-0.395142	
-0.394775	
-0.394104	
-0.394775	
-0.394775	
-0.395508	
-0.395081	
-0.394531	
-0.394592	
-0.394897	
-0.395264	
-0.395508	
-0.395691	
-0.395752	
-0.396667	
-0.395813	
-0.397156	
-0.397461	
-0.39679	
-0.397156	
-0.397034	
-0.397278	
-0.397766	
-0.398682	
-0.398499	
-0.400146	
-0.399109	
-0.400513	
-0.399475	
-0.399475	
-0.398804	
-0.399109	
-0.399536	
-0.399902	
-0.401123	
-0.400085	
-0.401123	
-0.398987	
-0.400085	
-0.398926	
-0.39917	
-0.398865	
-0.398682	
-0.399109	
-0.399414	
-0.400146	
-0.399109	
-0.399597	
-0.398682	
-0.399597	
-0.398804	
-0.398315	
-0.396973	
-0.397156	
-0.397522	
-0.397522	
-0.398071	
-0.398315	
-0.39801	
-0.396057	
-0.397278	
-0.397156	
-0.396729	
-0.39563	
-0.395691	
-0.396912	
-0.396973	
-0.397461	
-0.398376	
-0.397766	
-0.397583	
-0.397217	
-0.396729	
-0.397583	
-0.396851	
-0.396729	
-0.397705	
-0.397522	
-0.397217	
-0.397034	
-0.396851	
-0.396912	
-0.395874	
-0.396667	
-0.396851	
-0.395874	
-0.395264	
-0.396729	
-0.398132	
-0.396912	
-0.397339	
-0.396912	
-0.3974	
-0.397034	
-0.396912	
-0.396912	
-0.396912	
-0.396545	
-0.397278	
-0.398193	
-0.397888	
-0.397583	
-0.396301	
-0.397522	
-0.397461	
-0.397888	
-0.397278	
-0.397827	
-0.397827	
-0.397949	
-0.39801	
-0.398071	
-0.397583	
-0.396057	
-0.397095	
-0.396851	
-0.396484	
-0.396667	
-0.395325	
-0.395508	
-0.395569	
-0.39563	
-0.395752	
-0.394836	
-0.392822	
-0.393066	
-0.393372	
-0.393127	
-0.392456	
-0.392334	
-0.392822	
-0.393311	
-0.393372	
-0.392578	
-0.393555	
-0.391724	
-0.393188	
-0.393311	
-0.392944	
-0.392395	
-0.392029	
-0.392761	
-0.393066	
-0.393372	
-0.393188	
-0.393921	
-0.391724	
-0.39386	
-0.394043	
-0.393555	
-0.3927	
-0.392944	
-0.39386	
-0.39386	
-0.394287	
-0.393738	
-0.393921	
-0.392761	
-0.394775	
-0.394104	
-0.393555	
-0.393555	
-0.392639	
-0.393372	
-0.394226	
-0.394348	
-0.393738	
-0.393677	
-0.392944	
-0.39502	
-0.393616	
-0.394287	
-0.394104	
-0.394104	
-0.39447	
-0.394592	
-0.394897	
-0.394043	
-0.394165	
-0.393433	
-0.395142	
-0.393066	
-0.393555	
-0.392944	
-0.393433	
-0.394043	
-0.39386	
-0.393921	
-0.392883	
-0.3927	
-0.392212	
-0.393982	
-0.392212	
-0.391968	
-0.390869	
-0.391968	
-0.392578	
-0.392883	
-0.392761	
-0.392456	
-0.392151	
-0.391602	
-0.392944	
-0.392456	
-0.392883	
-0.39209	
-0.3927	
-0.392578	
-0.393372	
-0.393127	
-0.393311	
-0.392517	
-0.391907	
-0.393616	
-0.392761	
-0.392334	
-0.392273	
-0.393127	
-0.392944	
-0.393188	
-0.392944	
-0.393799	
-0.392944	
-0.392944	
-0.393494	
-0.393127	
-0.392517	
-0.391418	
-0.392334	
-0.392822	
-0.393982	
-0.392395	
-0.393494	
-0.39209	
-0.393005	
-0.392029	
-0.392456	
-0.391785	
-0.391235	
-0.392639	
-0.392456	
-0.392822	
-0.392395	
-0.393311	
-0.391663	
-0.39386	
-0.391846	
-0.392578	
-0.392273	
-0.39325	
-0.392639	
-0.393127	
-0.393921	
-0.39325	
-0.393677	
-0.392761	
-0.394165	
-0.392395	
-0.393066	
-0.392151	
-0.393433	
-0.393005	
-0.393066	
-0.393738	
-0.392639	
-0.392212	
-0.392212	
-0.393066	
-0.390869	
-0.39209	
-0.389893	
-0.391113	
-0.391785	
-0.391785	
-0.391968	
-0.391235	
-0.391052	
-0.390747	
-0.391663	
-0.389648	
-0.390015	
-0.389343	
-0.390625	
-0.390808	
-0.391052	
-0.391846	
-0.390991	
-0.389587	
-0.389648	
-0.390076	
-0.388367	
-0.388855	
-0.387085	
-0.388489	
-0.388184	
-0.387939	
-0.387878	
-0.387451	
-0.386719	
-0.387207	
-0.388672	
-0.387939	
-0.388062	
-0.387024	
-0.389099	
-0.38916	
-0.389526	
-0.389526	
-0.389648	
-0.389099	
-0.389282	
-0.389893	
-0.389832	
-0.389893	
-0.38855	
-0.390137	
-0.391052	
-0.391541	
-0.391602	
-0.391479	
-0.391968	
-0.392456	
-0.392395	
-0.392395	
-0.392395	
-0.390686	
-0.392456	
-0.392822	
-0.392761	
-0.391968	
-0.392761	
-0.392212	
-0.3927	
-0.392395	
-0.392273	
-0.392578	
-0.390625	
-0.393005	
-0.393372	
-0.392761	
-0.392334	
-0.392029	
-0.391785	
-0.391968	
-0.392212	
-0.391602	
-0.391418	
-0.389771	
-0.391479	
-0.391785	
-0.392151	
-0.390625	
-0.389587	
-0.389648	
-0.390686	
-0.39032	
-0.38916	
-0.389343	
-0.388245	
-0.388977	
-0.38855	
-0.389099	
-0.38855	
-0.387634	
-0.387634	
-0.388123	
-0.388123	
-0.387451	
-0.386963	
-0.387207	
-0.387939	
-0.388184	
-0.388733	
-0.388	
-0.388489	
-0.38739	
-0.389282	
-0.389526	
-0.388367	
-0.388367	
-0.387573	
-0.388672	
-0.388489	
-0.388977	
-0.388977	
-0.390198	
-0.388367	
-0.390137	
-0.390442	
-0.390076	
-0.389465	
-0.388611	
-0.390442	
-0.389954	
-0.390442	
-0.389832	
-0.390808	
-0.389709	
-0.390259	
-0.390381	
-0.389954	
-0.389526	
-0.388733	
-0.390198	
-0.390381	
-0.389465	
-0.388245	
-0.390015	
-0.389343	
-0.390015	
-0.389343	
-0.389771	
-0.390015	
-0.389526	
-0.390137	
-0.390625	
-0.390564	
-0.390808	
-0.390747	
-0.390259	
-0.391235	
-0.389526	
-0.389465	
-0.389771	
-0.389099	
-0.389709	
-0.390015	
-0.389587	
-0.390076	
-0.390259	
-0.390076	
-0.39093	
-0.389221	
-0.390015	
-0.389099	
-0.389282	
-0.390076	
-0.390076	
-0.389465	
-0.389038	
-0.389282	
-0.389099	
-0.389954	
-0.389832	
-0.389221	
-0.388428	
-0.389648	
-0.389893	
-0.390381	
-0.389648	
-0.390625	
-0.390564	
-0.391724	
-0.391418	
-0.392029	
-0.391602	
-0.391357	
-0.393127	
-0.393066	
-0.394531	
-0.393799	
-0.393921	
-0.393921	
-0.394714	
-0.393921	
-0.393738	
-0.393494	
-0.393494	
-0.393188	
-0.393738	
-0.394897	
-0.393372	
-0.394287	
-0.392944	
-0.393616	
-0.393433	
-0.39386	
-0.393433	
-0.39325	
-0.392395	
-0.393372	
-0.393311	
-0.391785	
-0.393677	
-0.392151	
-0.393494	
-0.393127	
-0.392883	
-0.392029	
-0.39325	
-0.392639	
-0.392395	
-0.392761	
-0.392395	
-0.39325	
-0.391235	
-0.393066	
-0.39209	
-0.392578	
-0.392761	
-0.392883	
-0.392639	
-0.392151	
-0.392395	
-0.392639	
-0.392883	
-0.390747	
-0.392944	
-0.391357	
-0.392151	
-0.391785	
-0.393127	
-0.392639	
-0.392456	
-0.392761	
-0.393433	
-0.393372	
-0.392944	
-0.394043	
-0.393372	
-0.393738	
-0.393433	
-0.394165	
-0.393982	
-0.394836	
-0.394409	
-0.395386	
-0.394775	
-0.395142	
-0.395081	
-0.394836	
-0.39447	
-0.39386	
-0.395325	
-0.394104	
-0.394043	
-0.393677	
-0.394226	
-0.393433	
-0.393799	
-0.393677	
-0.394165	
-0.393677	
-0.393494	
-0.394226	
-0.393372	
-0.394226	
-0.392883	
-0.394409	
-0.394043	
-0.394409	
-0.393555	
-0.393799	
-0.393799	
-0.39386	
-0.394531	
-0.393555	
-0.394165	
-0.392944	
-0.39386	
-0.393494	
-0.394958	
-0.392944	
-0.394226	
-0.393311	
-0.394653	
-0.394836	
-0.394287	
-0.395203	
-0.394043	
-0.394836	
-0.394043	
-0.394592	
-0.393311	
-0.394409	
-0.392883	
-0.394104	
-0.394592	
-0.393799	
-0.394775	
-0.39386	
-0.39386	
-0.393616	
-0.393616	
-0.393616	
-0.393738	
-0.393005	
-0.393799	
-0.394653	
-0.393188	
-0.393799	
-0.393494	
-0.393616	
-0.392639	
-0.393311	
-0.39386	
-0.393738	
-0.394043	
-0.394226	
-0.394409	
-0.394287	
-0.395203	
-0.39447	
-0.395081	
-0.394409	
-0.394592	
-0.394897	
-0.395996	
-0.395142	
-0.395386	
-0.395813	
-0.39624	
-0.395935	
-0.395447	
-0.396179	
-0.395874	
-0.394897	
-0.395935	
-0.395935	
-0.395996	
-0.396301	
-0.396667	
-0.397278	
-0.397583	
-0.396973	
-0.397583	
-0.398743	
-0.397095	
-0.398743	
-0.398987	
-0.398926	
-0.398987	
-0.398743	
-0.399109	
-0.398804	
-0.397339	
-0.397949	
-0.398132	
-0.396423	
-0.397095	
-0.397217	
-0.397278	
-0.397156	
-0.396667	
-0.397156	
-0.396912	
-0.39563	
-0.395813	
-0.396851	
-0.39563	
-0.395447	
-0.394714	
-0.394104	
-0.394714	
-0.394409	
-0.394226	
-0.393982	
-0.393188	
-0.3927	
-0.394531	
-0.393677	
-0.394043	
-0.393494	
-0.39386	
-0.393799	
-0.394043	
-0.394226	
-0.393799	
-0.393555	
-0.393616	
-0.394531	
-0.393311	
-0.393982	
-0.393494	
-0.393677	
-0.394409	
-0.394653	
-0.395081	
-0.394897	
-0.394165	
-0.394836	
-0.39624	
-0.395752	
-0.395325	
-0.395081	
-0.396057	
-0.396912	
-0.397827	
-0.397217	
-0.397095	
-0.397156	
-0.397766	
-0.398621	
-0.398804	
-0.398376	
-0.398254	
-0.398621	
-0.39978	
-0.399292	
-0.399109	
-0.399231	
-0.398193	
-0.399231	
-0.399597	
-0.398987	
-0.39917	
-0.398621	
-0.398499	
-0.399231	
-0.398071	
-0.398499	
-0.398254	
-0.397766	
-0.398132	
-0.399109	
-0.398621	
-0.398193	
-0.397949	
-0.397095	
-0.398254	
-0.396545	
-0.396667	
-0.396301	
-0.396362	
-0.396912	
-0.397827	
-0.397339	
-0.396301	
-0.396301	
-0.396545	
-0.397644	
-0.395508	
-0.396301	
-0.395691	
-0.396545	
-0.396545	
-0.397949	
-0.396423	
-0.396423	
-0.396973	
-0.3974	
-0.397888	
-0.39563	
-0.397034	
-0.395874	
-0.396179	
-0.396545	
-0.397278	
-0.396362	
-0.396362	
-0.395996	
-0.39624	
-0.397156	
-0.395203	
-0.396057	
-0.395813	
-0.396912	
-0.396362	
-0.3974	
-0.397217	
-0.396606	
-0.395996	
-0.396606	
-0.396729	
-0.395142	
-0.396118	
-0.395813	
-0.396729	
-0.397034	
-0.397339	
-0.396729	
-0.397095	
-0.397156	
-0.397827	
-0.397095	
-0.396362	
-0.397217	
-0.396362	
-0.397095	
-0.397278	
-0.397522	
-0.396484	
-0.396912	
-0.395813	
-0.396301	
-0.395142	
-0.394958	
-0.394653	
-0.395264	
-0.394165	
-0.39386	
-0.394287	
-0.392944	
-0.392639	
-0.391968	
-0.393311	
-0.392273	
-0.391724	
-0.392212	
-0.393127	
-0.392456	
-0.392334	
-0.393311	
-0.391968	
-0.3927	
-0.392212	
-0.393433	
-0.392029	
-0.392029	
-0.392151	
-0.393372	
-0.392761	
-0.393188	
-0.393982	
-0.393494	
-0.393921	
-0.393005	
-0.394714	
-0.393311	
-0.393188	
-0.39325	
-0.39386	
-0.393188	
-0.392761	
-0.393616	
-0.393494	
-0.394226	
-0.393494	
-0.394104	
-0.393738	
-0.393677	
-0.392944	
-0.394165	
-0.393066	
-0.393311	
-0.393921	
-0.393494	
-0.394836	
-0.393799	
-0.395142	
-0.393433	
-0.393982	
-0.393921	
-0.394409	
-0.39386	
-0.393799	
-0.394531	
-0.393921	
-0.393982	
-0.392883	
-0.395081	
-0.391846	
-0.393494	
-0.3927	
-0.393616	
-0.392639	
-0.392761	
-0.393127	
-0.392822	
-0.392273	
-0.392273	
-0.393616	
-0.391968	
-0.391724	
-0.391541	
-0.392517	
-0.392151	
-0.392395	
-0.392578	
-0.393127	
-0.392578	
-0.392395	
-0.393921	
-0.392395	
-0.39209	
-0.391846	
-0.393188	
-0.392578	
-0.392639	
-0.392822	
-0.393494	
-0.392883	
-0.391968	
-0.39325	
-0.392517	
-0.392944	
-0.39209	
-0.392334	
-0.392517	
-0.392761	
-0.3927	
-0.39325	
-0.392639	
-0.391724	
-0.392029	
-0.392944	
-0.392883	
-0.391541	
-0.392456	
-0.392395	
-0.39209	
-0.391846	
-0.391968	
-0.392456	
-0.391296	
-0.391907	
-0.392151	
-0.392517	
-0.391785	
-0.3927	
-0.3927	
-0.392883	
-0.39325	
-0.392456	
-0.392761	
-0.391907	
-0.393005	
-0.392944	
-0.392761	
-0.393677	
-0.393066	
-0.392761	
-0.392822	
-0.394409	
-0.39325	
-0.393005	
-0.39209	
-0.393799	
-0.392822	
-0.392883	
-0.3927	
-0.392212	
-0.392639	
-0.392334	
-0.392883	
-0.392151	
-0.391296	
-0.390686	
-0.391724	
-0.391235	
-0.391418	
-0.39093	
-0.390808	
-0.390808	
-0.390625	
-0.391479	
-0.390564	
-0.390686	
-0.389404	
-0.391113	
-0.390869	
-0.390625	
-0.39093	
-0.390442	
-0.39032	
-0.390076	
-0.390198	
-0.388916	
-0.38855	
-0.387024	
-0.388489	
-0.387939	
-0.387695	
-0.388184	
-0.38739	
-0.387634	
-0.388123	
-0.389221	
-0.388184	
-0.388733	
-0.387817	
-0.389832	
-0.389587	
-0.389099	
-0.389343	
-0.389709	
-0.390076	
-0.389526	
-0.390686	
-0.390442	
-0.389954	
-0.389587	
-0.391602	
-0.390747	
-0.391357	
-0.392944	
-0.392334	
-0.391968	
-0.392456	
-0.392944	
-0.392395	
-0.392212	
-0.391479	
-0.393738	
-0.393127	
-0.391418	
-0.393372	
-0.393127	
-0.392883	
-0.392761	
-0.392822	
-0.3927	
-0.392334	
-0.391479	
-0.393066	
-0.392578	
-0.392456	
-0.393433	
-0.392456	
-0.392273	
-0.392334	
-0.391846	
-0.392029	
-0.392029	
-0.390869	
-0.392273	
-0.391602	
-0.391479	
-0.391541	
-0.390808	
-0.39093	
-0.389832	
-0.389648	
-0.389709	
-0.390015	
-0.388733	
-0.389465	
-0.388428	
-0.389038	
-0.388855	
-0.388123	
-0.388489	
-0.38855	
-0.387756	
-0.387695	
-0.388794	
-0.387878	
-0.38855	
-0.387207	
-0.388367	
-0.388428	
-0.388672	
-0.388855	
-0.388428	
-0.389099	
-0.389282	
-0.388916	
-0.388916	
-0.38916	
-0.388306	
-0.389709	
-0.389221	
-0.389526	
-0.389465	
-0.389954	
-0.390198	
-0.390747	
-0.390381	
-0.389893	
-0.389893	
-0.389954	
-0.390991	
-0.38916	
-0.390076	
-0.390381	
-0.389954	
-0.390503	
-0.390808	
-0.390015	
-0.389954	
-0.389954	
-0.390015	
-0.390259	
-0.388672	
-0.390076	
-0.390381	
-0.391174	
-0.389771	
-0.39093	
-0.390198	
-0.390381	
-0.390564	
-0.390625	
-0.390625	
-0.389893	
-0.390503	
-0.390381	
-0.391785	
-0.390686	
-0.391296	
-0.389832	
-0.39032	
-0.389648	
-0.390869	
-0.390442	
-0.389465	
-0.390381	
-0.390564	
-0.391968	
-0.390259	
-0.390198	
-0.389404	
-0.389893	
-0.390015	
-0.389893	
-0.390503	
-0.389038	
-0.390259	
-0.389832	
-0.390564	
-0.39032	
-0.390137	
-0.388672	
-0.390015	
-0.39093	
-0.390747	
	
