E:\DOCUMENTS AND SETTINGS\JPOTAS\MEUS DOCUMENTOS\UFRJ\RSCI-BM 12 WK SERIES\070720-RSCI-BM-04\RSCI-BM-04-LEMG\070720-RSCI-BM-LEMG-0002.ACQ
0.025000 msec/sample
1 channel
Analog input
Volts
CH1	
2000	
-0.391418	
-0.391296	
-0.390503	
-0.390198	
-0.389648	
-0.389404	
-0.388	
-0.389465	
-0.389954	
-0.389648	
-0.389954	
-0.389893	
-0.389465	
-0.390137	
-0.390564	
-0.390015	
-0.389832	
-0.389709	
-0.390442	
-0.391174	
-0.392578	
-0.392029	
-0.391785	
-0.392883	
-0.3927	
-0.393311	
-0.393372	
-0.393311	
-0.392944	
-0.392944	
-0.394287	
-0.393555	
-0.393616	
-0.393738	
-0.394165	
-0.393555	
-0.394165	
-0.395081	
-0.394287	
-0.394836	
-0.394531	
-0.394592	
-0.395203	
-0.395874	
-0.394592	
-0.39502	
-0.393921	
-0.394348	
-0.395264	
-0.395325	
-0.394531	
-0.394104	
-0.393921	
-0.39563	
-0.39502	
-0.394531	
-0.394897	
-0.39447	
-0.393921	
-0.394287	
-0.393982	
-0.393738	
-0.393433	
-0.392334	
-0.393738	
-0.392883	
-0.392883	
-0.392395	
-0.391296	
-0.390747	
-0.392151	
-0.392212	
-0.391968	
-0.392212	
-0.391724	
-0.392334	
-0.393127	
-0.393494	
-0.393066	
-0.393982	
-0.39325	
-0.393311	
-0.394043	
-0.39386	
-0.39386	
-0.393066	
-0.392822	
-0.394348	
-0.394775	
-0.394348	
-0.394897	
-0.393982	
-0.393433	
-0.39447	
-0.394897	
-0.394409	
-0.394836	
-0.3927	
-0.395142	
-0.395691	
-0.395508	
-0.395569	
-0.394897	
-0.395508	
-0.395386	
-0.396912	
-0.39502	
-0.395508	
-0.394897	
-0.394592	
-0.395325	
-0.395386	
-0.395325	
-0.395203	
-0.394775	
-0.39502	
-0.395325	
-0.395142	
-0.395508	
-0.394836	
-0.395081	
-0.396057	
-0.395935	
-0.395813	
-0.39624	
-0.394226	
-0.394287	
-0.395081	
-0.395447	
-0.395142	
-0.395447	
-0.393494	
-0.39563	
-0.395752	
-0.395203	
-0.394897	
-0.393005	
-0.392822	
-0.393433	
-0.39386	
-0.392151	
-0.391907	
-0.391235	
-0.391785	
-0.39209	
-0.392212	
-0.391724	
-0.391235	
-0.390015	
-0.389221	
-0.390503	
-0.389648	
-0.389465	
-0.389526	
-0.390137	
-0.390259	
-0.390503	
-0.39093	
-0.39093	
-0.389587	
-0.390503	
-0.391479	
-0.391113	
-0.391174	
-0.391235	
-0.39032	
-0.39032	
-0.392151	
-0.392395	
-0.39209	
-0.392029	
-0.3927	
-0.392212	
-0.392395	
-0.393555	
-0.393127	
-0.393738	
-0.394104	
-0.394592	
-0.394531	
-0.394714	
-0.394897	
-0.393311	
-0.394775	
-0.395813	
-0.39563	
-0.395569	
-0.395935	
-0.396912	
-0.396912	
-0.398193	
-0.397461	
-0.397339	
-0.397156	
-0.3974	
-0.396667	
-0.396606	
-0.36792	
-0.371521	
-0.378967	
-0.380554	
-0.381226	
-0.381897	
-0.416687	
-0.405518	
-0.398682	
-0.398193	
-0.396179	
-0.396057	
-0.394958	
-0.395264	
-0.395142	
-0.39502	
-0.39563	
-0.394348	
-0.395386	
-0.394897	
-0.395447	
-0.393372	
-0.393982	
-0.393921	
-0.393616	
-0.39447	
-0.394226	
-0.394409	
-0.394409	
-0.394714	
-0.394836	
-0.393555	
-0.394104	
-0.393677	
-0.39447	
-0.393677	
-0.394531	
-0.394958	
-0.395264	
-0.39563	
-0.395081	
-0.396118	
-0.395569	
-0.396667	
-0.394348	
-0.394958	
-0.394409	
-0.394836	
-0.394043	
-0.394348	
-0.394653	
-0.394714	
-0.395935	
-0.395142	
-0.395996	
-0.396362	
-0.397644	
-0.399597	
-0.402466	
-0.40625	
-0.40979	
-0.413879	
-0.41803	
-0.42218	
-0.424805	
-0.429016	
-0.432678	
-0.437439	
-0.442688	
-0.449951	
-0.456482	
-0.461548	
-0.46582	
-0.468689	
-0.471863	
-0.472046	
-0.473389	
-0.473999	
-0.473694	
-0.473145	
-0.472473	
-0.471863	
-0.470825	
-0.468994	
-0.468018	
-0.466125	
-0.464294	
-0.462097	
-0.459839	
-0.457214	
-0.455261	
-0.451721	
-0.450134	
-0.447205	
-0.443542	
-0.442444	
-0.440552	
-0.439758	
-0.437927	
-0.438416	
-0.437439	
-0.440186	
-0.441284	
-0.444519	
-0.447144	
-0.450317	
-0.454285	
-0.45752	
-0.462097	
-0.464539	
-0.467407	
-0.468689	
-0.470154	
-0.469849	
-0.471069	
-0.469971	
-0.467957	
-0.466003	
-0.463867	
-0.461365	
-0.456299	
-0.453796	
-0.449341	
-0.446533	
-0.442688	
-0.441162	
-0.438232	
-0.43689	
-0.434814	
-0.434021	
-0.433044	
-0.431702	
-0.43219	
-0.431091	
-0.42926	
-0.431458	
-0.43158	
-0.43042	
-0.429138	
-0.427551	
-0.425293	
-0.423035	
-0.420776	
-0.415588	
-0.410278	
-0.406006	
-0.400818	
-0.393616	
-0.389771	
-0.383179	
-0.376648	
-0.370483	
-0.364319	
-0.356628	
-0.34845	
-0.340942	
-0.331177	
-0.321899	
-0.313843	
-0.304138	
-0.295959	
-0.288147	
-0.279541	
-0.271057	
-0.263428	
-0.255981	
-0.248779	
-0.240234	
-0.233582	
-0.229858	
-0.226379	
-0.225525	
-0.224548	
-0.224365	
-0.226013	
-0.228027	
-0.231262	
-0.235596	
-0.238708	
-0.242615	
-0.24884	
-0.254395	
-0.260681	
-0.266541	
-0.27301	
-0.280151	
-0.287231	
-0.29303	
-0.299133	
-0.304321	
-0.310181	
-0.315247	
-0.320923	
-0.326233	
-0.33075	
-0.334961	
-0.3396	
-0.34259	
-0.345154	
-0.347473	
-0.348389	
-0.352478	
-0.353699	
-0.356628	
-0.358826	
-0.360291	
-0.361633	
-0.363342	
-0.364075	
-0.365417	
-0.364197	
-0.365967	
-0.366394	
-0.368164	
-0.368408	
-0.368896	
-0.369751	
-0.37085	
-0.371948	
-0.371399	
-0.372192	
-0.370483	
-0.371826	
-0.371521	
-0.37262	
-0.373169	
-0.373657	
-0.373779	
-0.374146	
-0.374817	
-0.37439	
-0.374817	
-0.373108	
-0.374756	
-0.374634	
-0.375	
-0.375061	
-0.375	
-0.374878	
-0.375793	
-0.375732	
-0.375854	
-0.376038	
-0.374207	
-0.375427	
-0.375366	
-0.375366	
-0.375916	
-0.375488	
-0.375488	
-0.376221	
-0.376221	
-0.376099	
-0.375	
-0.374207	
-0.375671	
-0.375366	
-0.375366	
-0.375244	
-0.375122	
-0.375061	
-0.375427	
-0.375732	
-0.375061	
-0.374023	
-0.372375	
-0.373352	
-0.373718	
-0.373962	
-0.374451	
-0.375	
-0.374939	
-0.376343	
-0.377014	
-0.375793	
-0.375488	
-0.374634	
-0.375	
-0.374451	
-0.374878	
-0.374451	
-0.374634	
-0.374817	
-0.375916	
-0.375061	
-0.374573	
-0.375061	
-0.374207	
-0.375122	
-0.374939	
-0.375549	
-0.375916	
-0.375854	
-0.37616	
-0.378418	
-0.376831	
-0.37738	
-0.376709	
-0.376953	
-0.37738	
-0.377808	
-0.378357	
-0.378235	
-0.378235	
-0.379089	
-0.379639	
-0.378479	
-0.379761	
-0.378723	
-0.379211	
-0.378662	
-0.379028	
-0.379517	
-0.379883	
-0.380127	
-0.381104	
-0.381531	
-0.381287	
-0.380676	
-0.38092	
-0.380371	
-0.379883	
-0.379517	
-0.380188	
-0.380249	
-0.380554	
-0.381287	
-0.38092	
-0.381287	
-0.380554	
-0.380676	
-0.381592	
-0.382141	
-0.381104	
-0.381836	
-0.382507	
-0.383301	
-0.384644	
-0.384155	
-0.38446	
-0.383423	
-0.383972	
-0.384766	
-0.38501	
-0.384521	
-0.385498	
-0.385254	
-0.385498	
-0.386963	
-0.386475	
-0.386841	
-0.385193	
-0.386414	
-0.385925	
-0.387329	
-0.386841	
-0.387024	
-0.387146	
-0.387146	
-0.388672	
-0.388306	
-0.388123	
-0.386963	
-0.387878	
-0.387451	
-0.387634	
-0.387756	
-0.38855	
-0.388672	
-0.38916	
-0.389771	
-0.389526	
-0.389954	
-0.389404	
-0.388855	
-0.388611	
-0.389587	
-0.389282	
-0.390015	
-0.390015	
-0.390625	
-0.391113	
-0.39093	
-0.391113	
-0.390137	
-0.389893	
-0.390442	
-0.390564	
-0.390076	
-0.389099	
-0.389832	
-0.389404	
-0.390137	
-0.390686	
-0.390991	
-0.390686	
-0.389648	
-0.391296	
-0.391174	
-0.391418	
-0.390625	
-0.392029	
-0.392517	
-0.392944	
-0.393555	
-0.393127	
-0.392151	
-0.39209	
-0.393066	
-0.393127	
-0.393555	
-0.39325	
-0.393555	
-0.394043	
-0.394897	
-0.394653	
-0.394714	
-0.393738	
-0.393555	
-0.394104	
-0.394958	
-0.394836	
-0.393677	
-0.39502	
-0.395264	
-0.39679	
-0.395996	
-0.395874	
-0.394531	
-0.395203	
-0.394165	
-0.394714	
-0.394836	
-0.394226	
-0.395203	
-0.394592	
-0.396301	
-0.394897	
-0.394348	
-0.393188	
-0.394287	
-0.394287	
-0.394165	
-0.393677	
-0.393921	
-0.393799	
-0.394287	
-0.395264	
-0.394592	
-0.393433	
-0.392456	
-0.393677	
-0.393433	
-0.393921	
-0.393494	
-0.393555	
-0.393799	
-0.394043	
-0.393921	
-0.394104	
-0.392517	
-0.39209	
-0.393372	
-0.3927	
-0.392761	
-0.392273	
-0.392029	
-0.392151	
-0.392334	
-0.391479	
-0.391357	
-0.390015	
-0.388611	
-0.389587	
-0.389221	
-0.388916	
-0.388977	
-0.388855	
-0.390015	
-0.390564	
-0.389832	
-0.390381	
-0.389343	
-0.388428	
-0.389099	
-0.38916	
-0.390381	
-0.390076	
-0.390991	
-0.391296	
-0.392212	
-0.392761	
-0.393738	
-0.391357	
-0.391785	
-0.39209	
-0.393188	
-0.393188	
-0.393616	
-0.394165	
-0.394226	
-0.395142	
-0.394226	
-0.39563	
-0.392761	
-0.393066	
-0.394287	
-0.395203	
-0.395142	
-0.394653	
-0.395142	
-0.395386	
-0.395203	
-0.395874	
-0.396118	
-0.39447	
-0.394714	
-0.39563	
-0.395325	
-0.395447	
-0.395264	
-0.395081	
-0.395081	
-0.395569	
-0.396179	
-0.396545	
-0.393982	
-0.394165	
-0.395447	
-0.393372	
-0.394165	
-0.394531	
-0.39447	
-0.394165	
-0.39447	
-0.394653	
-0.39386	
-0.392273	
-0.392883	
-0.393494	
-0.3927	
-0.393127	
-0.39325	
-0.393188	
-0.393433	
-0.393738	
-0.394165	
-0.394775	
-0.394226	
-0.394165	
-0.394653	
-0.394836	
-0.394836	
-0.394226	
-0.394348	
-0.395142	
-0.394714	
-0.395813	
-0.395996	
-0.395996	
-0.395508	
-0.395447	
-0.395447	
-0.395569	
-0.395752	
-0.395874	
-0.395996	
-0.395874	
-0.397217	
-0.397095	
-0.396912	
-0.396851	
-0.396545	
-0.396667	
-0.396851	
-0.396973	
-0.396973	
-0.396667	
-0.396606	
-0.397278	
-0.397278	
-0.396545	
-0.396545	
-0.396484	
-0.396423	
-0.395447	
-0.396179	
-0.397278	
-0.397522	
-0.39679	
-0.397583	
-0.398438	
-0.397522	
-0.39801	
-0.396729	
-0.396729	
-0.396545	
-0.397034	
-0.397705	
-0.397156	
-0.397156	
-0.397156	
-0.397339	
-0.395935	
-0.396118	
-0.39502	
-0.395203	
-0.395264	
-0.394287	
-0.394165	
-0.39447	
-0.394043	
-0.394043	
-0.395447	
-0.393372	
-0.393005	
-0.392822	
-0.392395	
-0.391907	
-0.390747	
-0.391296	
-0.391541	
-0.391663	
-0.391479	
-0.393005	
-0.391052	
-0.391968	
-0.392639	
-0.392517	
-0.392456	
-0.392456	
-0.392212	
-0.393005	
-0.393127	
-0.393066	
-0.394409	
-0.392273	
-0.393738	
-0.393188	
-0.393616	
-0.394104	
-0.394104	
-0.393066	
-0.394958	
-0.396118	
-0.395935	
-0.39624	
-0.395569	
-0.395813	
-0.394897	
-0.395447	
-0.396423	
-0.396484	
-0.395142	
-0.397278	
-0.39856	
-0.398315	
-0.399292	
-0.399719	
-0.398987	
-0.398071	
-0.40033	
-0.399658	
-0.399536	
-0.398071	
-0.399414	
-0.399719	
-0.398926	
-0.399231	
-0.399048	
-0.398254	
-0.397156	
-0.398682	
-0.397827	
-0.398071	
-0.396851	
-0.396118	
-0.397705	
-0.398254	
-0.398132	
-0.397339	
-0.396667	
-0.39624	
-0.397461	
-0.396118	
-0.396667	
-0.395935	
-0.396057	
-0.396912	
-0.397644	
-0.398132	
-0.396729	
-0.397461	
-0.396179	
-0.397278	
-0.397766	
-0.397705	
-0.396545	
-0.396606	
-0.397217	
-0.397217	
-0.397278	
-0.397034	
-0.396973	
-0.396606	
-0.3974	
-0.396912	
-0.397217	
-0.39679	
-0.396423	
-0.396729	
-0.396851	
-0.398193	
-0.397461	
-0.397217	
-0.395935	
-0.398621	
-0.397156	
-0.395996	
-0.396851	
-0.397766	
-0.396851	
-0.398071	
-0.399414	
-0.398682	
-0.398438	
-0.398071	
-0.398743	
-0.398254	
-0.398682	
-0.397278	
-0.397156	
-0.396851	
-0.39679	
-0.39801	
-0.3974	
-0.396667	
-0.397339	
-0.397644	
-0.397461	
-0.397339	
-0.395691	
-0.396423	
-0.396423	
-0.396484	
-0.396729	
-0.396423	
-0.396301	
-0.396301	
-0.39502	
-0.395874	
-0.395874	
-0.395569	
-0.395447	
-0.395203	
-0.395447	
-0.395569	
-0.395386	
-0.394897	
-0.395447	
-0.394348	
-0.395386	
-0.395935	
-0.394287	
-0.395508	
-0.395569	
-0.394531	
-0.396301	
-0.397949	
-0.396545	
-0.396301	
-0.397278	
-0.396606	
-0.396729	
-0.396667	
-0.396851	
-0.397156	
-0.397156	
-0.397034	
-0.397522	
-0.397339	
-0.397705	
-0.398499	
-0.397705	
-0.397949	
-0.398376	
-0.397766	
-0.398682	
-0.398499	
-0.398682	
-0.399536	
-0.39917	
-0.399292	
-0.399536	
-0.397095	
-0.399475	
-0.399475	
-0.397827	
-0.399414	
-0.399597	
-0.400024	
-0.40155	
-0.402588	
-0.401428	
-0.402222	
-0.401367	
-0.402466	
-0.40271	
-0.401367	
-0.402771	
-0.403198	
-0.4021	
-0.403442	
-0.40448	
-0.402893	
-0.403503	
-0.403748	
-0.40271	
-0.402893	
-0.4021	
-0.402466	
-0.401978	
-0.401794	
-0.402039	
-0.402527	
-0.400391	
-0.400574	
-0.401306	
-0.399231	
-0.399597	
-0.400269	
-0.398132	
-0.399231	
-0.399475	
-0.398926	
-0.399048	
-0.399719	
-0.399231	
-0.399048	
-0.396973	
-0.398315	
-0.398438	
-0.397949	
-0.397827	
-0.397888	
-0.398376	
-0.398682	
-0.398865	
-0.397949	
-0.398682	
-0.397217	
-0.397949	
-0.39856	
-0.398071	
-0.398438	
-0.39856	
-0.398254	
-0.398315	
-0.399902	
-0.399048	
-0.398865	
-0.399475	
-0.399536	
-0.399597	
-0.398193	
-0.399353	
-0.399841	
-0.399231	
-0.400696	
-0.401672	
-0.400574	
-0.400696	
-0.401733	
-0.401001	
-0.401245	
-0.401672	
-0.400818	
-0.400818	
-0.399536	
-0.400391	
-0.401306	
-0.401184	
-0.400635	
-0.400391	
-0.399841	
-0.40033	
-0.400879	
-0.399109	
-0.399414	
-0.399292	
-0.399231	
-0.399292	
-0.400024	
-0.39917	
-0.398682	
-0.397766	
-0.398499	
-0.398376	
-0.396729	
-0.397949	
-0.398132	
-0.397461	
-0.397888	
-0.398865	
-0.397888	
-0.397766	
-0.398071	
-0.398132	
-0.397888	
-0.397034	
-0.397034	
-0.398254	
-0.397888	
-0.39801	
-0.398621	
-0.398071	
-0.3974	
-0.397949	
-0.397339	
-0.397461	
-0.397034	
-0.397217	
-0.397644	
-0.397034	
-0.397583	
-0.397827	
-0.398804	
-0.398193	
-0.39801	
-0.39624	
-0.397583	
-0.397522	
-0.396667	
-0.397034	
-0.396301	
-0.398071	
-0.398865	
-0.400146	
-0.398743	
-0.399475	
-0.399902	
-0.400085	
-0.401001	
-0.39917	
-0.400146	
-0.39978	
-0.400635	
-0.40155	
-0.402161	
-0.401733	
-0.40155	
-0.403259	
-0.402039	
-0.403137	
-0.402283	
-0.401978	
-0.403015	
-0.403137	
-0.402832	
-0.403015	
-0.403076	
-0.4021	
-0.402832	
-0.402466	
-0.402344	
-0.401733	
-0.401367	
-0.40155	
-0.40094	
-0.400879	
-0.401001	
-0.401672	
-0.400269	
-0.400635	
-0.400146	
-0.399841	
-0.399231	
-0.399109	
-0.398743	
-0.398254	
-0.399109	
-0.399048	
-0.399719	
-0.399048	
-0.39801	
-0.398254	
-0.397095	
-0.397705	
-0.395996	
-0.396484	
-0.396118	
-0.396057	
-0.396057	
-0.396301	
-0.396667	
-0.396179	
-0.396973	
-0.396118	
-0.396729	
-0.395813	
-0.395325	
-0.395874	
-0.396301	
-0.397095	
-0.397217	
-0.397766	
-0.397339	
-0.398071	
-0.396912	
-0.397583	
-0.397644	
-0.397156	
-0.397461	
-0.397156	
-0.398071	
-0.398071	
-0.398254	
-0.398254	
-0.398438	
-0.397522	
-0.397583	
-0.399048	
-0.397827	
-0.397949	
-0.397278	
-0.39801	
-0.39856	
-0.399048	
-0.39801	
-0.398132	
-0.398499	
-0.397522	
-0.398865	
-0.397095	
-0.397827	
-0.397522	
-0.398193	
-0.39801	
-0.398743	
-0.399475	
-0.397705	
-0.398254	
-0.398193	
-0.398315	
-0.397339	
-0.397339	
-0.398193	
-0.397827	
-0.398804	
-0.399109	
-0.398621	
-0.398376	
-0.398804	
-0.398132	
-0.396179	
-0.398376	
-0.396851	
-0.397095	
-0.396729	
-0.397034	
-0.397156	
-0.397034	
-0.397766	
-0.398254	
-0.398743	
-0.397766	
-0.398254	
-0.397766	
-0.397949	
-0.397888	
-0.398193	
-0.39856	
-0.39856	
-0.399475	
-0.398926	
-0.398071	
-0.398621	
-0.398621	
-0.398132	
-0.398926	
-0.398804	
-0.398315	
-0.399597	
-0.400085	
-0.399231	
-0.400269	
-0.399963	
-0.399414	
-0.398438	
-0.400269	
-0.399963	
-0.399719	
-0.399902	
-0.399963	
-0.400146	
-0.399475	
-0.400208	
-0.400085	
-0.399292	
-0.398987	
-0.398376	
-0.397461	
-0.398804	
-0.398804	
-0.397461	
-0.399353	
-0.398071	
-0.398865	
-0.398376	
-0.39801	
-0.397522	
-0.397766	
-0.397766	
-0.396973	
-0.397522	
-0.396851	
-0.396851	
-0.396973	
-0.397705	
-0.397583	
-0.397522	
-0.396667	
-0.395874	
-0.395691	
-0.396179	
-0.395996	
-0.395935	
-0.396423	
-0.395935	
-0.39624	
-0.396362	
-0.396362	
-0.395325	
-0.394226	
-0.394104	
-0.394287	
-0.394165	
-0.393372	
-0.391846	
-0.393005	
-0.391602	
-0.392639	
-0.391541	
-0.391846	
-0.391357	
-0.391907	
-0.391785	
-0.391602	
-0.391724	
-0.391174	
-0.392639	
-0.391968	
-0.392456	
-0.392395	
-0.393555	
-0.392944	
-0.392883	
-0.393005	
-0.394409	
-0.394287	
-0.394287	
-0.395325	
-0.394958	
-0.395508	
-0.395325	
-0.396606	
-0.395569	
-0.394592	
-0.395386	
-0.395813	
-0.395996	
-0.396118	
-0.395386	
-0.396667	
-0.396667	
-0.397827	
-0.397156	
-0.39679	
-0.396362	
-0.397095	
-0.396484	
-0.396729	
-0.396912	
-0.396729	
-0.39679	
-0.396606	
-0.397217	
-0.396423	
-0.397644	
-0.396729	
-0.396484	
-0.395264	
-0.396484	
-0.396545	
-0.396057	
-0.396179	
-0.395813	
-0.396118	
-0.395203	
-0.396667	
-0.395569	
-0.39386	
-0.394409	
-0.394226	
-0.394165	
-0.394104	
-0.393433	
-0.39386	
-0.39386	
-0.394287	
-0.395325	
-0.39386	
-0.393738	
-0.394592	
-0.394409	
-0.395203	
-0.395264	
-0.39624	
-0.395447	
-0.395264	
-0.396118	
-0.396301	
-0.396545	
-0.395569	
-0.395691	
-0.395996	
-0.396362	
-0.39624	
-0.396484	
-0.396851	
-0.396729	
-0.39679	
-0.396301	
-0.397217	
-0.396606	
-0.396851	
-0.396118	
-0.397156	
-0.397339	
-0.397583	
-0.396851	
-0.397583	
-0.397949	
-0.39624	
-0.397705	
-0.397766	
-0.396423	
-0.396301	
-0.396667	
-0.397339	
-0.397583	
-0.397949	
-0.397156	
-0.397888	
-0.397583	
-0.398254	
-0.398987	
-0.397644	
-0.397766	
-0.398376	
-0.397766	
-0.397949	
-0.398132	
-0.397827	
-0.397766	
-0.398499	
-0.397644	
-0.39856	
-0.397034	
-0.397095	
-0.397217	
-0.396301	
-0.395813	
-0.395813	
-0.395325	
-0.395264	
-0.395386	
-0.393982	
-0.394897	
-0.394714	
-0.393677	
-0.392639	
-0.393188	
-0.393555	
-0.392822	
-0.393127	
-0.392273	
-0.392273	
-0.392578	
-0.393005	
-0.3927	
-0.39093	
-0.392578	
-0.393616	
-0.392822	
-0.392883	
-0.392883	
-0.393311	
-0.393372	
-0.394104	
-0.394592	
-0.394104	
-0.393677	
-0.393982	
-0.394104	
-0.394409	
-0.394775	
-0.39502	
-0.395569	
-0.395935	
-0.39679	
-0.395386	
-0.396545	
-0.396484	
-0.396606	
-0.396179	
-0.396423	
-0.396973	
-0.397034	
-0.39801	
-0.397888	
-0.398193	
-0.39856	
-0.399597	
-0.399841	
-0.399536	
-0.399048	
-0.39978	
-0.399963	
-0.400146	
-0.400269	
-0.400085	
-0.400208	
-0.399658	
-0.39978	
-0.399963	
-0.399048	
-0.398743	
-0.398804	
-0.398438	
-0.398376	
-0.398376	
-0.397095	
-0.398193	
-0.398743	
-0.398132	
-0.398071	
-0.396301	
-0.397217	
-0.397034	
-0.397461	
-0.397156	
-0.397217	
-0.397461	
-0.397278	
-0.398438	
-0.397461	
-0.397034	
-0.396973	
-0.397034	
-0.396851	
-0.397278	
-0.397583	
-0.3974	
-0.397278	
-0.396912	
-0.39801	
-0.396851	
-0.396179	
-0.397583	
-0.396606	
-0.396179	
-0.397217	
-0.398132	
-0.396851	
-0.39679	
-0.39801	
-0.397644	
-0.397766	
-0.397583	
-0.397522	
-0.395813	
-0.396851	
-0.397156	
-0.396729	
-0.398132	
-0.397522	
-0.397644	
-0.396973	
-0.398621	
-0.399658	
-0.398132	
-0.398865	
-0.397827	
-0.397766	
-0.397583	
-0.397705	
-0.397522	
-0.397217	
-0.396545	
-0.398193	
-0.398071	
-0.395508	
-0.397217	
-0.396912	
-0.396912	
-0.396545	
-0.397522	
-0.396912	
-0.396729	
-0.397034	
-0.397156	
-0.397217	
-0.395569	
-0.396301	
-0.394592	
-0.39624	
-0.396057	
-0.395813	
-0.395752	
-0.39563	
-0.395996	
-0.395264	
-0.396423	
-0.395386	
-0.394897	
-0.395081	
-0.394958	
-0.395203	
-0.394287	
-0.395935	
-0.395874	
-0.395935	
-0.395752	
-0.396423	
-0.39624	
-0.394836	
-0.396973	
-0.39502	
-0.396301	
-0.396423	
-0.397949	
-0.396912	
-0.397034	
-0.397644	
-0.397339	
-0.398254	
-0.397461	
-0.39801	
-0.396912	
-0.397461	
-0.397339	
-0.397522	
-0.397949	
-0.398193	
-0.398621	
-0.39856	
-0.399658	
-0.398743	
-0.398865	
-0.398682	
-0.398865	
-0.398987	
-0.398743	
-0.399475	
-0.399048	
-0.399536	
-0.399475	
-0.400879	
-0.400757	
-0.400574	
-0.401855	
-0.401428	
-0.402161	
-0.401367	
-0.403076	
-0.402649	
-0.402649	
-0.403076	
-0.402588	
-0.403076	
-0.402222	
-0.402527	
-0.400635	
-0.40155	
-0.401611	
-0.401306	
-0.402283	
-0.401489	
-0.401306	
-0.400574	
-0.401001	
-0.39978	
-0.399536	
-0.398926	
-0.398193	
-0.398682	
-0.398132	
-0.399048	
-0.398743	
-0.398132	
-0.3974	
-0.399414	
-0.39856	
-0.396973	
-0.397766	
-0.397278	
-0.397217	
-0.39679	
-0.397949	
-0.397339	
-0.397095	
-0.397034	
-0.39679	
-0.397156	
-0.395691	
-0.396423	
-0.396851	
-0.396606	
-0.396545	
-0.396545	
-0.3974	
-0.397034	
-0.397339	
-0.397217	
-0.398193	
-0.397705	
-0.397949	
-0.397766	
-0.39679	
-0.397522	
-0.398193	
-0.398193	
-0.39856	
-0.399353	
-0.39801	
-0.399963	
-0.400146	
-0.399536	
-0.39978	
-0.398682	
-0.399475	
-0.399536	
-0.400452	
-0.399231	
-0.399231	
-0.398865	
-0.399048	
-0.398804	
-0.397461	
-0.398621	
-0.397644	
-0.397217	
-0.398071	
-0.397461	
-0.397583	
-0.39801	
-0.398132	
-0.397156	
-0.3974	
-0.397705	
-0.39624	
-0.396545	
-0.39624	
-0.396667	
-0.39624	
-0.396057	
-0.395813	
-0.395691	
-0.39563	
-0.396667	
-0.395569	
-0.395447	
-0.396606	
-0.395203	
-0.395813	
-0.395813	
-0.395569	
-0.395569	
-0.395569	
-0.394897	
-0.395996	
-0.395691	
-0.394104	
-0.395569	
-0.394348	
-0.394287	
-0.395203	
-0.395447	
-0.395508	
-0.395447	
-0.395569	
-0.395203	
-0.395508	
-0.395386	
-0.395142	
-0.395081	
-0.394836	
-0.395203	
-0.395081	
-0.39502	
-0.39502	
-0.395203	
-0.395813	
-0.397339	
-0.396545	
-0.395935	
-0.397949	
-0.397339	
-0.396667	
-0.3974	
-0.397766	
-0.398438	
-0.398132	
-0.398865	
-0.399719	
-0.398804	
-0.399414	
-0.399902	
-0.400146	
-0.400024	
-0.400574	
-0.400574	
-0.400574	
-0.400391	
-0.399719	
-0.400085	
-0.400208	
-0.399841	
-0.399536	
-0.398499	
-0.398926	
-0.398865	
-0.398682	
-0.398132	
-0.397949	
-0.398499	
-0.398071	
-0.398132	
-0.397705	
-0.395813	
-0.396912	
-0.396362	
-0.395752	
-0.396301	
-0.396118	
-0.396301	
-0.395264	
-0.395386	
-0.396179	
-0.395874	
-0.395508	
-0.395203	
-0.394714	
-0.393738	
-0.393372	
-0.393555	
-0.393188	
-0.392944	
-0.393066	
-0.393372	
-0.392578	
-0.393066	
-0.393005	
-0.393005	
-0.392761	
-0.392944	
-0.392456	
-0.39325	
-0.392761	
-0.393799	
-0.393982	
-0.394043	
-0.393677	
-0.394043	
-0.394287	
-0.394226	
-0.393738	
-0.394043	
-0.394714	
-0.394409	
-0.394043	
-0.393738	
-0.39563	
-0.394836	
-0.394653	
-0.395203	
-0.394775	
-0.394043	
-0.394653	
-0.395325	
-0.394165	
-0.394531	
-0.395081	
-0.394775	
-0.394348	
-0.395447	
-0.39502	
-0.394409	
-0.39447	
-0.394897	
-0.393982	
-0.395203	
-0.39447	
-0.395996	
-0.394226	
-0.394897	
-0.394653	
-0.395081	
-0.394409	
-0.39447	
-0.393799	
-0.394043	
-0.395996	
-0.395142	
-0.39502	
-0.395203	
-0.396057	
-0.394592	
-0.395569	
-0.394775	
-0.395081	
-0.394043	
-0.393311	
-0.394287	
-0.394348	
-0.394531	
-0.39386	
-0.393677	
-0.394653	
-0.393616	
-0.395203	
-0.394531	
-0.39502	
-0.393921	
-0.395325	
-0.396179	
-0.394897	
-0.395813	
-0.395325	
-0.395874	
-0.394775	
-0.396179	
-0.394836	
-0.395874	
-0.395386	
-0.395874	
-0.395813	
-0.395935	
-0.396729	
-0.395874	
-0.395081	
-0.396118	
-0.396912	
-0.395386	
-0.396484	
-0.396667	
-0.395569	
-0.397339	
-0.397522	
-0.39679	
-0.397034	
-0.3974	
-0.396057	
-0.395996	
-0.396301	
-0.39563	
-0.395508	
-0.393982	
-0.395447	
-0.39624	
-0.395874	
-0.395264	
-0.395569	
-0.394165	
-0.394165	
-0.396362	
-0.395203	
-0.394775	
-0.394043	
-0.394165	
-0.394104	
-0.395203	
-0.395081	
-0.394409	
-0.393494	
-0.393188	
-0.394531	
-0.3927	
-0.393494	
-0.393188	
-0.392456	
-0.393738	
-0.393738	
-0.393738	
-0.393188	
-0.39386	
-0.392639	
-0.392761	
-0.392822	
-0.391724	
-0.39209	
-0.389893	
	
