E:\DOCUMENTS AND SETTINGS\JPOTAS\MEUS DOCUMENTOS\UFRJ\RSCI-BM 12 WK SERIES\070720-RSCI-BM-04\RSCI-BM-04-LEMG\070720-RSCI-BM-LEMG-0003.ACQ
0.025000 msec/sample
1 channel
Analog input
Volts
CH1	
2000	
-0.394226	
-0.395081	
-0.394836	
-0.393188	
-0.395508	
-0.394714	
-0.39502	
-0.395935	
-0.395325	
-0.394531	
-0.394409	
-0.395447	
-0.395325	
-0.39502	
-0.395325	
-0.395264	
-0.395691	
-0.395142	
-0.396851	
-0.39624	
-0.39679	
-0.397095	
-0.397461	
-0.397766	
-0.397156	
-0.397827	
-0.397034	
-0.397095	
-0.396851	
-0.396973	
-0.395813	
-0.396057	
-0.395386	
-0.394592	
-0.395508	
-0.394775	
-0.394958	
-0.393616	
-0.394104	
-0.393982	
-0.39386	
-0.394226	
-0.394043	
-0.393738	
-0.392639	
-0.394531	
-0.393677	
-0.393066	
-0.393555	
-0.393066	
-0.393616	
-0.392456	
-0.393738	
-0.39209	
-0.393433	
-0.392883	
-0.393494	
-0.394043	
-0.392761	
-0.393311	
-0.393005	
-0.393616	
-0.393127	
-0.393677	
-0.392212	
-0.3927	
-0.3927	
-0.393433	
-0.393738	
-0.3927	
-0.39386	
-0.391541	
-0.394409	
-0.393677	
-0.394043	
-0.394043	
-0.394104	
-0.394287	
-0.39386	
-0.395325	
-0.394287	
-0.394897	
-0.394592	
-0.395142	
-0.394958	
-0.394958	
-0.396484	
-0.395996	
-0.396057	
-0.395447	
-0.396301	
-0.396057	
-0.396057	
-0.396118	
-0.394775	
-0.395447	
-0.394531	
-0.396118	
-0.39502	
-0.39447	
-0.394592	
-0.394531	
-0.395203	
-0.394043	
-0.395813	
-0.393127	
-0.394409	
-0.394714	
-0.39447	
-0.393494	
-0.393677	
-0.393738	
-0.393555	
-0.395325	
-0.394531	
-0.394348	
-0.393066	
-0.394348	
-0.393799	
-0.393921	
-0.394348	
-0.393677	
-0.393188	
-0.392822	
-0.394897	
-0.394043	
-0.393494	
-0.393433	
-0.394226	
-0.393616	
-0.392822	
-0.393799	
-0.393555	
-0.393433	
-0.393372	
-0.39386	
-0.393311	
-0.392944	
-0.393372	
-0.39325	
-0.392639	
-0.391602	
-0.392029	
-0.392395	
-0.392212	
-0.391846	
-0.391357	
-0.391846	
-0.391479	
-0.391296	
-0.389526	
-0.392273	
-0.391296	
-0.390198	
-0.392395	
-0.391663	
-0.391724	
-0.392029	
-0.393433	
-0.391968	
-0.392456	
-0.392517	
-0.392578	
-0.392639	
-0.392822	
-0.392334	
-0.392822	
-0.39325	
-0.393005	
-0.394653	
-0.393982	
-0.394226	
-0.394348	
-0.39563	
-0.394531	
-0.394226	
-0.39386	
-0.394653	
-0.394165	
-0.393738	
-0.39325	
-0.393372	
-0.393188	
-0.393127	
-0.392212	
-0.393188	
-0.393066	
-0.392273	
-0.39386	
-0.393433	
-0.392883	
-0.392273	
-0.39386	
-0.392151	
-0.39325	
-0.392456	
-0.392761	
-0.365417	
-0.368286	
-0.375244	
-0.377136	
-0.377502	
-0.377563	
-0.41095	
-0.401123	
-0.395447	
-0.394531	
-0.391602	
-0.392761	
-0.360413	
-0.369812	
-0.374573	
-0.376526	
-0.37738	
-0.377686	
-0.405212	
-0.401001	
-0.395874	
-0.392944	
-0.391663	
-0.391968	
-0.390625	
-0.391296	
-0.391052	
-0.390747	
-0.390503	
-0.391174	
-0.391724	
-0.391479	
-0.392578	
-0.390442	
-0.391357	
-0.390991	
-0.39209	
-0.39209	
-0.391846	
-0.391846	
-0.392334	
-0.393982	
-0.393311	
-0.394287	
-0.392883	
-0.39325	
-0.392822	
-0.392944	
-0.392639	
-0.392151	
-0.391724	
-0.392029	
-0.3927	
-0.3927	
-0.394958	
-0.39502	
-0.394714	
-0.397522	
-0.399902	
-0.403259	
-0.407532	
-0.4104	
-0.415955	
-0.420471	
-0.425171	
-0.429993	
-0.433289	
-0.438354	
-0.444763	
-0.453064	
-0.458679	
-0.464539	
-0.470093	
-0.47406	
-0.476624	
-0.478516	
-0.48175	
-0.482056	
-0.4823	
-0.482483	
-0.482605	
-0.481262	
-0.480225	
-0.479431	
-0.47821	
-0.47699	
-0.474854	
-0.473877	
-0.471375	
-0.46759	
-0.466492	
-0.463928	
-0.460815	
-0.457092	
-0.453796	
-0.451294	
-0.44928	
-0.448669	
-0.447815	
-0.44635	
-0.445801	
-0.447571	
-0.448853	
-0.450989	
-0.453552	
-0.454895	
-0.459839	
-0.463928	
-0.468628	
-0.470215	
-0.472961	
-0.473511	
-0.474487	
-0.474548	
-0.474915	
-0.473145	
-0.470032	
-0.468445	
-0.465515	
-0.463806	
-0.460388	
-0.45636	
-0.452515	
-0.449829	
-0.446777	
-0.444092	
-0.442322	
-0.439331	
-0.438232	
-0.437012	
-0.435974	
-0.435486	
-0.43457	
-0.431885	
-0.430664	
-0.431946	
-0.430237	
-0.42926	
-0.427307	
-0.425232	
-0.422607	
-0.419495	
-0.417542	
-0.411438	
-0.406738	
-0.40033	
-0.396545	
-0.389465	
-0.384216	
-0.377808	
-0.371094	
-0.364929	
-0.357727	
-0.351013	
-0.341614	
-0.333313	
-0.322632	
-0.314209	
-0.306152	
-0.297546	
-0.288696	
-0.280151	
-0.272461	
-0.264771	
-0.257813	
-0.250549	
-0.24408	
-0.237488	
-0.231384	
-0.231201	
-0.229187	
-0.228149	
-0.227722	
-0.22937	
-0.231628	
-0.235413	
-0.238708	
-0.242065	
-0.246338	
-0.251343	
-0.255737	
-0.260864	
-0.266602	
-0.271973	
-0.278381	
-0.284546	
-0.291321	
-0.296143	
-0.302307	
-0.306458	
-0.31427	
-0.317871	
-0.323792	
-0.328674	
-0.33197	
-0.335999	
-0.340271	
-0.34375	
-0.346375	
-0.348022	
-0.351013	
-0.353027	
-0.355347	
-0.357483	
-0.357666	
-0.360291	
-0.362122	
-0.364624	
-0.364746	
-0.366089	
-0.365906	
-0.365906	
-0.367493	
-0.368469	
-0.368774	
-0.369446	
-0.370483	
-0.371582	
-0.372375	
-0.371765	
-0.37207	
-0.370178	
-0.372009	
-0.372375	
-0.372986	
-0.373474	
-0.373596	
-0.373718	
-0.374756	
-0.375671	
-0.374817	
-0.375061	
-0.374512	
-0.376343	
-0.374878	
-0.376343	
-0.376587	
-0.376282	
-0.376465	
-0.377319	
-0.37793	
-0.37738	
-0.377136	
-0.375977	
-0.377991	
-0.377197	
-0.377625	
-0.377258	
-0.377625	
-0.377686	
-0.378601	
-0.378296	
-0.378235	
-0.378052	
-0.377319	
-0.378845	
-0.378418	
-0.378723	
-0.378113	
-0.378357	
-0.378357	
-0.378418	
-0.377747	
-0.377441	
-0.376038	
-0.375183	
-0.376221	
-0.375916	
-0.375732	
-0.375916	
-0.376282	
-0.37677	
-0.376587	
-0.376343	
-0.376587	
-0.375732	
-0.375916	
-0.375977	
-0.376282	
-0.375427	
-0.375183	
-0.374939	
-0.374817	
-0.37616	
-0.37561	
-0.37384	
-0.373901	
-0.374023	
-0.374695	
-0.374207	
-0.373779	
-0.373962	
-0.375244	
-0.375366	
-0.375549	
-0.377502	
-0.375488	
-0.376099	
-0.376587	
-0.37738	
-0.377686	
-0.378113	
-0.377502	
-0.379272	
-0.379456	
-0.379272	
-0.379395	
-0.379028	
-0.379272	
-0.378357	
-0.379456	
-0.380249	
-0.379944	
-0.381409	
-0.381165	
-0.382019	
-0.382629	
-0.381897	
-0.383057	
-0.383057	
-0.383972	
-0.38385	
-0.384155	
-0.383362	
-0.385315	
-0.385864	
-0.385742	
-0.38739	
-0.385986	
-0.386475	
-0.38678	
-0.386963	
-0.387512	
-0.387268	
-0.386047	
-0.388428	
-0.388306	
-0.387756	
-0.388977	
-0.387756	
-0.388184	
-0.387512	
-0.388489	
-0.388733	
-0.389404	
-0.389465	
-0.389465	
-0.389282	
-0.389771	
-0.390076	
-0.388611	
-0.390015	
-0.389282	
-0.390259	
-0.390076	
-0.390808	
-0.39093	
-0.39209	
-0.391235	
-0.391296	
-0.392639	
-0.39093	
-0.392212	
-0.391663	
-0.391663	
-0.39209	
-0.392273	
-0.392273	
-0.393372	
-0.393188	
-0.392212	
-0.393188	
-0.39209	
-0.392822	
-0.392761	
-0.392273	
-0.392273	
-0.391785	
-0.391907	
-0.393188	
-0.393677	
-0.392578	
-0.393188	
-0.392151	
-0.392761	
-0.393555	
-0.392334	
-0.393555	
-0.392883	
-0.393799	
-0.394958	
-0.39502	
-0.393677	
-0.394226	
-0.394226	
-0.394287	
-0.394348	
-0.393311	
-0.393616	
-0.392822	
-0.394592	
-0.395691	
-0.394897	
-0.394226	
-0.394165	
-0.394409	
-0.39447	
-0.393982	
-0.393372	
-0.394531	
-0.394653	
-0.394958	
-0.395508	
-0.396057	
-0.395081	
-0.39502	
-0.394714	
-0.395325	
-0.394836	
-0.395203	
-0.394653	
-0.395081	
-0.395142	
-0.394897	
-0.39563	
-0.395203	
-0.396179	
-0.394348	
-0.395874	
-0.394714	
-0.395203	
-0.394043	
-0.39563	
-0.395935	
-0.394714	
-0.395935	
-0.394958	
-0.396423	
-0.39447	
-0.395264	
-0.393982	
-0.394653	
-0.394714	
-0.395569	
-0.395508	
-0.39502	
-0.394836	
-0.394287	
-0.395203	
-0.394165	
-0.394104	
-0.392517	
-0.393921	
-0.393677	
-0.393616	
-0.393921	
-0.393372	
-0.393188	
-0.392578	
-0.394226	
-0.392334	
-0.392456	
-0.391663	
-0.392212	
-0.392639	
-0.393494	
-0.393982	
-0.393921	
-0.394226	
-0.3927	
-0.394043	
-0.392151	
-0.393738	
-0.392883	
-0.393799	
-0.394226	
-0.394836	
-0.394592	
-0.394348	
-0.39502	
-0.394165	
-0.395752	
-0.393982	
-0.394714	
-0.394226	
-0.395691	
-0.39624	
-0.396545	
-0.396301	
-0.396851	
-0.397278	
-0.397034	
-0.397766	
-0.396729	
-0.397034	
-0.396179	
-0.397339	
-0.39679	
-0.39679	
-0.396545	
-0.396667	
-0.396179	
-0.395752	
-0.396179	
-0.394287	
-0.394958	
-0.393982	
-0.394287	
-0.39447	
-0.394897	
-0.394775	
-0.394348	
-0.394897	
-0.394409	
-0.395142	
-0.39386	
-0.394165	
-0.392761	
-0.393188	
-0.394043	
-0.394531	
-0.393555	
-0.393677	
-0.394409	
-0.393921	
-0.394531	
-0.394592	
-0.393982	
-0.39325	
-0.393555	
-0.393799	
-0.393982	
-0.393738	
-0.394165	
-0.394226	
-0.394226	
-0.394958	
-0.394592	
-0.393677	
-0.393616	
-0.393738	
-0.394043	
-0.394958	
-0.394775	
-0.394531	
-0.394958	
-0.395935	
-0.396667	
-0.395752	
-0.394043	
-0.395569	
-0.395691	
-0.396301	
-0.396545	
-0.396301	
-0.396179	
-0.396912	
-0.398132	
-0.397522	
-0.397217	
-0.396545	
-0.396729	
-0.396729	
-0.396179	
-0.397278	
-0.396729	
-0.396606	
-0.396301	
-0.397705	
-0.396851	
-0.396179	
-0.395203	
-0.395386	
-0.395386	
-0.394531	
-0.396545	
-0.39563	
-0.395447	
-0.394531	
-0.397156	
-0.39624	
-0.395874	
-0.395508	
-0.394958	
-0.395813	
-0.395447	
-0.395447	
-0.395081	
-0.395081	
-0.394653	
-0.395935	
-0.395203	
-0.394958	
-0.395142	
-0.395142	
-0.395325	
-0.395447	
-0.395386	
-0.395203	
-0.395264	
-0.395691	
-0.39624	
-0.39563	
-0.394714	
-0.39386	
-0.393738	
-0.395264	
-0.394775	
-0.394775	
-0.394592	
-0.393677	
-0.393921	
-0.394714	
-0.394531	
-0.393677	
-0.393127	
-0.39325	
-0.392334	
-0.39386	
-0.392334	
-0.392883	
-0.393555	
-0.393677	
-0.394226	
-0.394104	
-0.394104	
-0.392761	
-0.393982	
-0.393188	
-0.394653	
-0.393433	
-0.394287	
-0.394165	
-0.394592	
-0.395264	
-0.394958	
-0.395752	
-0.394226	
-0.39624	
-0.394714	
-0.396606	
-0.395752	
-0.396301	
-0.396362	
-0.396423	
-0.396851	
-0.39624	
-0.397278	
-0.39502	
-0.395447	
-0.394836	
-0.395081	
-0.394714	
-0.394958	
-0.39447	
-0.395264	
-0.396057	
-0.395203	
-0.395752	
-0.394531	
-0.395081	
-0.394226	
-0.394653	
-0.394348	
-0.393738	
-0.394958	
-0.394531	
-0.395569	
-0.394958	
-0.395752	
-0.393616	
-0.39447	
-0.394531	
-0.394287	
-0.394165	
-0.394165	
-0.39386	
-0.393127	
-0.394165	
-0.394287	
-0.394897	
-0.392761	
-0.394165	
-0.394653	
-0.392944	
-0.393555	
-0.393677	
-0.393555	
-0.392456	
-0.394348	
-0.393799	
-0.393677	
-0.392944	
-0.393372	
-0.393494	
-0.391479	
-0.394531	
-0.393616	
-0.393555	
-0.392883	
-0.393738	
-0.393677	
-0.394043	
-0.394897	
-0.39386	
-0.394104	
-0.393188	
-0.395386	
-0.394531	
-0.393677	
-0.394226	
-0.395325	
-0.395752	
-0.39502	
-0.39563	
-0.395142	
-0.39502	
-0.395203	
-0.395874	
-0.395081	
-0.394348	
-0.395508	
-0.39502	
-0.394958	
-0.39502	
-0.395935	
-0.395325	
-0.395569	
-0.395386	
-0.394958	
-0.39502	
-0.39502	
-0.395386	
-0.394714	
-0.395325	
-0.394775	
-0.395996	
-0.395203	
-0.395752	
-0.395813	
-0.394836	
-0.395386	
-0.395386	
-0.39563	
-0.394104	
-0.394897	
-0.394958	
-0.395569	
-0.395874	
-0.396057	
-0.396362	
-0.394653	
-0.39624	
-0.39563	
-0.395874	
-0.394897	
-0.39563	
-0.395935	
-0.395935	
-0.396606	
-0.395935	
-0.395874	
-0.394287	
-0.396912	
-0.396118	
-0.395874	
-0.395752	
-0.396057	
-0.395935	
-0.396057	
-0.397217	
-0.39624	
-0.396179	
-0.395752	
-0.396667	
-0.39624	
-0.395813	
-0.396545	
-0.39679	
-0.396912	
-0.397278	
-0.398743	
-0.397156	
-0.397461	
-0.397766	
-0.398132	
-0.39856	
-0.398132	
-0.397766	
-0.398926	
-0.398621	
-0.398621	
-0.399902	
-0.39917	
-0.399109	
-0.399414	
-0.39917	
-0.399353	
-0.398743	
-0.39856	
-0.39801	
-0.39856	
-0.398865	
-0.398926	
-0.398621	
-0.398499	
-0.398315	
-0.397156	
-0.398315	
-0.398132	
-0.397644	
-0.397827	
-0.397583	
-0.397461	
-0.397949	
-0.398071	
-0.39801	
-0.398438	
-0.395569	
-0.398499	
-0.397156	
-0.395813	
-0.395935	
-0.395996	
-0.395508	
-0.396423	
-0.397644	
-0.395813	
-0.396057	
-0.394836	
-0.396484	
-0.396667	
-0.396118	
-0.396606	
-0.397278	
-0.396606	
-0.397827	
-0.399536	
-0.398071	
-0.398499	
-0.398132	
-0.399048	
-0.398804	
-0.398132	
-0.398499	
-0.397705	
-0.398376	
-0.399414	
-0.399902	
-0.399536	
-0.399292	
-0.39978	
-0.399231	
-0.399658	
-0.40033	
-0.399536	
-0.397949	
-0.398804	
-0.400085	
-0.400574	
-0.399536	
-0.399353	
-0.399963	
-0.399597	
-0.40033	
-0.400146	
-0.399719	
-0.399658	
-0.399658	
-0.400208	
-0.400146	
-0.400085	
-0.399719	
-0.400269	
-0.399719	
-0.399719	
-0.399841	
-0.399597	
-0.399719	
-0.399719	
-0.399475	
-0.399597	
-0.399231	
-0.398865	
-0.398987	
-0.398254	
-0.398804	
-0.398743	
-0.398193	
-0.397766	
-0.397461	
-0.396973	
-0.398438	
-0.397888	
-0.398132	
-0.398193	
-0.397888	
-0.398193	
-0.398193	
-0.397705	
-0.398132	
-0.397705	
-0.398376	
-0.398865	
-0.398987	
-0.39917	
-0.398743	
-0.398193	
-0.397217	
-0.399353	
-0.398987	
-0.399292	
-0.398865	
-0.398865	
-0.39917	
-0.399719	
-0.400146	
-0.398682	
-0.398499	
-0.398682	
-0.40033	
-0.399475	
-0.399536	
-0.399536	
-0.399536	
-0.399353	
-0.400513	
-0.400818	
-0.399658	
-0.399597	
-0.399292	
-0.400574	
-0.399292	
-0.399414	
-0.399414	
-0.399475	
-0.399475	
-0.401123	
-0.400635	
-0.399475	
-0.400574	
-0.400208	
-0.400452	
-0.400635	
-0.401367	
-0.40094	
-0.400269	
-0.400513	
-0.401978	
-0.402039	
-0.401794	
-0.401733	
-0.401184	
-0.402283	
-0.40155	
-0.401184	
-0.401306	
-0.399902	
-0.400452	
-0.401672	
-0.401428	
-0.400513	
-0.400696	
-0.400024	
-0.40033	
-0.400879	
-0.401245	
-0.400085	
-0.399658	
-0.39978	
-0.399719	
-0.400146	
-0.399475	
-0.39917	
-0.397827	
-0.398926	
-0.399353	
-0.397705	
-0.398315	
-0.398499	
-0.39856	
-0.39917	
-0.40033	
-0.399536	
-0.39978	
-0.399353	
-0.39917	
-0.400269	
-0.399414	
-0.399902	
-0.39978	
-0.399902	
-0.399719	
-0.401184	
-0.400757	
-0.400391	
-0.401611	
-0.399597	
-0.40094	
-0.401367	
-0.401245	
-0.400269	
-0.399475	
-0.399536	
-0.401306	
-0.402039	
-0.401062	
-0.40094	
-0.400635	
-0.400879	
-0.40155	
-0.401794	
-0.401062	
-0.400085	
-0.400757	
-0.40155	
-0.401733	
-0.400696	
-0.40155	
-0.40094	
-0.401001	
-0.402039	
-0.401733	
-0.401367	
-0.401306	
-0.401306	
-0.401855	
-0.402527	
-0.4021	
-0.402039	
-0.401123	
-0.402039	
-0.401978	
-0.402039	
-0.401855	
-0.401428	
-0.400879	
-0.401611	
-0.402588	
-0.401245	
-0.40094	
-0.40094	
-0.401184	
-0.40155	
-0.401184	
-0.400146	
-0.400513	
-0.399658	
-0.40094	
-0.402344	
-0.401062	
-0.400818	
-0.401062	
-0.400818	
-0.401062	
-0.402527	
-0.401123	
-0.400879	
-0.40033	
-0.401062	
-0.401794	
-0.401367	
-0.401245	
-0.401306	
-0.400024	
-0.400635	
-0.401489	
-0.399475	
-0.400452	
-0.400024	
-0.399231	
-0.400574	
-0.401001	
-0.400391	
-0.399719	
-0.399292	
-0.399963	
-0.401184	
-0.401001	
-0.400269	
-0.400024	
-0.399231	
-0.400269	
-0.40033	
-0.399719	
-0.399475	
-0.398865	
-0.399902	
-0.400696	
-0.400146	
-0.399719	
-0.399658	
-0.399597	
-0.399597	
-0.399902	
-0.39978	
-0.399231	
-0.398071	
-0.399048	
-0.399658	
-0.400024	
-0.398499	
-0.399536	
-0.398926	
-0.400024	
-0.400085	
-0.399719	
-0.399292	
-0.398254	
-0.399292	
-0.398621	
-0.39856	
-0.398071	
-0.398438	
-0.397156	
-0.39801	
-0.398621	
-0.398682	
-0.396912	
-0.39679	
-0.397461	
-0.396973	
-0.397034	
-0.396484	
-0.396667	
-0.395508	
-0.395508	
-0.396545	
-0.396606	
-0.395874	
-0.395325	
-0.396423	
-0.39679	
-0.397461	
-0.396729	
-0.395325	
-0.395935	
-0.395508	
-0.397522	
-0.396912	
-0.396973	
-0.396301	
-0.397034	
-0.397278	
-0.397705	
-0.397888	
-0.396973	
-0.396729	
-0.396912	
-0.397461	
-0.397095	
-0.398438	
-0.397583	
-0.39801	
-0.398193	
-0.399292	
-0.400085	
-0.399231	
-0.398682	
-0.398865	
-0.399536	
-0.399536	
-0.400696	
-0.398865	
-0.398376	
-0.398926	
-0.398682	
-0.398071	
-0.397278	
-0.396179	
-0.395813	
-0.397034	
-0.397278	
-0.397156	
-0.396667	
-0.395691	
-0.396667	
-0.397461	
-0.397095	
-0.395935	
-0.395386	
-0.394348	
-0.394775	
-0.396179	
-0.395691	
-0.39563	
-0.394958	
-0.395203	
-0.396179	
-0.395935	
-0.395996	
-0.394836	
-0.394775	
-0.395203	
-0.396667	
-0.395508	
-0.395325	
-0.395081	
-0.394897	
-0.394409	
-0.395752	
-0.395813	
-0.394287	
-0.394226	
-0.395386	
-0.39563	
-0.395203	
-0.396423	
-0.395203	
-0.394958	
-0.39502	
-0.397339	
-0.396667	
-0.396179	
-0.395325	
-0.396851	
-0.397095	
-0.397339	
-0.397156	
-0.396545	
-0.396545	
-0.397278	
-0.399414	
-0.398315	
-0.397888	
-0.397156	
-0.397461	
-0.397278	
-0.398132	
-0.397644	
-0.397217	
-0.3974	
-0.397217	
-0.398132	
-0.396973	
-0.396912	
-0.396301	
-0.396545	
-0.395874	
-0.396545	
-0.396912	
-0.396667	
-0.396118	
-0.395081	
-0.396118	
-0.396362	
-0.397034	
-0.396362	
-0.395081	
-0.395752	
-0.396179	
-0.397034	
-0.396179	
-0.395691	
-0.394653	
-0.395142	
-0.396057	
-0.396301	
-0.395447	
-0.394775	
-0.395264	
-0.395386	
-0.396606	
-0.396301	
-0.395569	
-0.395691	
-0.395752	
-0.396179	
-0.395752	
-0.395264	
-0.394653	
-0.394653	
-0.395569	
-0.395386	
-0.395203	
-0.395264	
-0.394226	
-0.393311	
-0.394653	
-0.394653	
-0.393921	
-0.392334	
-0.393311	
-0.393188	
-0.393311	
-0.394165	
-0.393127	
-0.393372	
-0.392761	
-0.394165	
-0.394226	
-0.393799	
-0.392883	
-0.392639	
-0.393799	
-0.394348	
-0.395264	
-0.394714	
-0.394592	
-0.394226	
-0.394226	
-0.39563	
-0.394653	
-0.394653	
-0.395203	
-0.394348	
-0.395813	
-0.39679	
-0.396667	
-0.396118	
-0.396118	
-0.396973	
-0.396729	
-0.39679	
-0.395508	
-0.395203	
-0.394226	
-0.395386	
-0.395203	
-0.395569	
-0.394897	
-0.39502	
-0.394836	
-0.394775	
-0.395935	
-0.39502	
-0.39447	
-0.393555	
-0.395264	
-0.394104	
-0.394836	
-0.394592	
-0.394165	
-0.393433	
-0.393799	
-0.396057	
-0.393921	
-0.392761	
-0.393433	
-0.393677	
-0.393982	
-0.394653	
-0.394226	
-0.394348	
-0.393372	
-0.393677	
-0.394409	
-0.393616	
-0.392456	
-0.393066	
-0.393005	
-0.393311	
-0.393127	
-0.393677	
-0.392822	
-0.392761	
-0.393738	
-0.392822	
-0.392761	
-0.392334	
-0.392822	
-0.391968	
-0.392395	
-0.392578	
-0.392822	
-0.392822	
-0.392639	
-0.392334	
-0.392212	
-0.393616	
-0.392761	
-0.392151	
-0.392151	
-0.393555	
-0.393982	
-0.394775	
-0.394348	
-0.394226	
-0.393677	
-0.394836	
-0.393982	
-0.393494	
-0.393372	
-0.393005	
-0.393677	
-0.393982	
-0.395386	
-0.395447	
-0.394958	
-0.393738	
-0.394714	
-0.394592	
-0.39447	
-0.393982	
-0.393066	
-0.393372	
-0.394043	
-0.395386	
-0.394409	
-0.394165	
-0.394165	
-0.394409	
-0.395203	
-0.394775	
-0.394409	
-0.392273	
-0.393799	
-0.394165	
-0.394653	
-0.394775	
-0.394348	
-0.394104	
-0.39447	
-0.394592	
-0.394958	
-0.394409	
-0.393555	
-0.394531	
-0.394653	
-0.395264	
-0.394836	
-0.395569	
-0.39502	
-0.394165	
-0.395874	
-0.395081	
-0.395447	
-0.394653	
-0.394775	
-0.394226	
-0.395569	
-0.395996	
-0.395935	
-0.395386	
-0.394531	
-0.395874	
-0.395203	
-0.395569	
-0.394592	
-0.394836	
-0.394836	
-0.395203	
-0.395996	
-0.39624	
-0.395813	
-0.395386	
-0.396606	
-0.396545	
-0.396667	
-0.395996	
-0.395996	
-0.396423	
-0.396973	
-0.397705	
-0.397705	
-0.397888	
-0.397156	
-0.397583	
-0.397705	
-0.398254	
-0.398315	
-0.397766	
-0.397949	
-0.398071	
-0.398193	
-0.39801	
-0.398254	
-0.3974	
-0.397583	
-0.39801	
-0.397461	
-0.397644	
-0.395935	
-0.396851	
-0.396057	
-0.397217	
-0.396912	
-0.397644	
-0.397034	
-0.395325	
-0.397522	
-0.396423	
-0.397339	
-0.396362	
-0.396606	
-0.396729	
-0.395935	
-0.396484	
-0.395447	
-0.394592	
-0.394531	
-0.39624	
-0.394958	
-0.394836	
-0.394348	
-0.393372	
-0.394836	
-0.395386	
-0.395813	
-0.395691	
-0.396362	
-0.39624	
-0.397278	
-0.396362	
-0.396912	
-0.396545	
-0.396484	
-0.397278	
-0.397095	
-0.397217	
-0.397339	
-0.398621	
-0.397705	
-0.397095	
-0.398438	
-0.398376	
-0.397888	
-0.397278	
-0.397949	
-0.397095	
-0.398315	
-0.39917	
-0.398438	
-0.397888	
-0.398254	
-0.398621	
-0.397766	
-0.398438	
-0.397278	
-0.397644	
-0.397949	
-0.398682	
-0.398193	
-0.39856	
-0.398621	
-0.398376	
-0.39856	
-0.398315	
-0.399231	
-0.397827	
-0.397644	
-0.397949	
-0.398132	
-0.39856	
-0.398254	
-0.397522	
-0.397644	
-0.3974	
-0.397705	
-0.397827	
-0.397034	
-0.397095	
-0.396912	
-0.396179	
-0.396423	
-0.397766	
-0.397339	
-0.39679	
-0.396606	
-0.395691	
-0.39679	
-0.396729	
-0.396667	
-0.39679	
-0.395264	
-0.397095	
-0.397644	
-0.397888	
-0.397522	
-0.3974	
-0.396545	
-0.397339	
-0.397766	
-0.396179	
-0.396484	
-0.396851	
-0.397461	
-0.397888	
-0.39856	
-0.397339	
-0.397095	
-0.3974	
-0.398315	
-0.398438	
-0.396973	
-0.396606	
-0.398315	
-0.398193	
-0.39801	
-0.398438	
-0.39801	
-0.398315	
-0.397644	
-0.398743	
-0.39801	
-0.397644	
-0.397583	
-0.397705	
-0.397522	
-0.398193	
-0.399536	
-0.398254	
-0.397827	
-0.397644	
-0.397827	
-0.398499	
-0.398621	
-0.397217	
-0.398438	
-0.398193	
-0.399475	
-0.400085	
-0.39917	
-0.399963	
-0.399658	
-0.399719	
-0.399841	
-0.400879	
-0.399048	
-0.399536	
-0.399353	
-0.400024	
-0.39978	
-0.400452	
-0.399597	
-0.399231	
-0.399414	
-0.398926	
-0.399231	
-0.398621	
-0.397949	
-0.398315	
-0.398865	
-0.398987	
-0.399353	
-0.398254	
-0.398254	
-0.396973	
-0.398315	
-0.39801	
-0.397766	
-0.395508	
-0.397156	
-0.39624	
-0.397034	
-0.397461	
-0.396667	
-0.397278	
-0.396729	
-0.399109	
-0.397827	
-0.398743	
-0.397217	
-0.398071	
-0.397522	
-0.398315	
-0.398987	
-0.398315	
-0.39856	
-0.398376	
-0.399475	
-0.398804	
-0.399719	
-0.398987	
-0.398621	
-0.398438	
-0.398804	
-0.399231	
-0.399353	
-0.398499	
-0.398743	
-0.398621	
-0.399109	
-0.399231	
-0.398743	
-0.398438	
-0.398804	
-0.397949	
-0.399597	
-0.39978	
-0.39856	
-0.399414	
-0.398315	
-0.39917	
-0.399231	
-0.400208	
-0.397583	
-0.400085	
-0.399658	
-0.399536	
-0.40033	
-0.400085	
-0.39978	
-0.398315	
-0.400818	
-0.399658	
-0.399719	
-0.398743	
-0.399963	
-0.400513	
-0.399719	
-0.400269	
-0.400085	
-0.399475	
-0.398865	
-0.400208	
-0.399109	
-0.399475	
-0.399536	
-0.399231	
-0.399109	
-0.39856	
-0.399414	
-0.400635	
-0.39917	
-0.397766	
-0.399353	
-0.399231	
-0.399719	
-0.399536	
-0.398254	
-0.399658	
-0.399536	
-0.400574	
-0.399963	
-0.399597	
-0.398804	
-0.399475	
-0.398987	
-0.399353	
-0.399109	
-0.398743	
-0.399048	
-0.399048	
-0.39856	
-0.398193	
-0.398926	
-0.398071	
-0.398987	
-0.399414	
-0.39856	
-0.398132	
-0.397949	
-0.398438	
-0.398132	
-0.398682	
-0.398682	
-0.398987	
-0.398193	
-0.398315	
-0.398743	
-0.398376	
-0.397827	
-0.396729	
-0.397461	
-0.397339	
-0.397766	
-0.397827	
-0.397888	
-0.397766	
-0.397583	
-0.398865	
-0.396912	
-0.397583	
-0.397034	
-0.39801	
-0.397827	
-0.397583	
-0.396729	
-0.397644	
-0.39856	
-0.397034	
-0.398621	
-0.397827	
-0.397522	
-0.396729	
-0.396912	
-0.396729	
-0.397034	
-0.397339	
-0.397095	
-0.397278	
-0.39563	
-0.39679	
-0.39624	
-0.395508	
-0.395081	
-0.394531	
-0.395081	
-0.394958	
-0.395203	
-0.394165	
-0.394653	
-0.393982	
-0.394287	
-0.395447	
-0.392944	
-0.393982	
-0.393311	
-0.395203	
-0.394348	
-0.395325	
-0.394165	
	
