E:\DOCUMENTS AND SETTINGS\JPOTAS\MEUS DOCUMENTOS\UFRJ\RSCI-BM 12 WK SERIES\070720-RSCI-BM-04\RSCI-BM-04-LEMG\070720-RSCI-BM-LEMG-0005.ACQ
0.025000 msec/sample
1 channel
Analog input
Volts
CH1	
2000	
-0.397034	
-0.397461	
-0.397339	
-0.397034	
-0.396667	
-0.396484	
-0.397156	
-0.396729	
-0.396484	
-0.396851	
-0.396484	
-0.396484	
-0.397034	
-0.398254	
-0.397217	
-0.397034	
-0.397034	
-0.397644	
-0.397278	
-0.397339	
-0.397522	
-0.396545	
-0.397095	
-0.398315	
-0.398926	
-0.398315	
-0.398315	
-0.398071	
-0.397949	
-0.397705	
-0.398682	
-0.397949	
-0.397339	
-0.397583	
-0.398132	
-0.399414	
-0.398682	
-0.400024	
-0.39917	
-0.399353	
-0.400024	
-0.400085	
-0.398254	
-0.399109	
-0.399353	
-0.399841	
-0.400391	
-0.400391	
-0.40033	
-0.399902	
-0.399658	
-0.400452	
-0.400879	
-0.399414	
-0.399719	
-0.399719	
-0.400269	
-0.400696	
-0.400757	
-0.400208	
-0.400024	
-0.400635	
-0.40033	
-0.400146	
-0.399658	
-0.399231	
-0.398804	
-0.397949	
-0.397705	
-0.398621	
-0.397156	
-0.397217	
-0.397034	
-0.396118	
-0.395935	
-0.395996	
-0.395081	
-0.394409	
-0.394653	
-0.394836	
-0.394958	
-0.395691	
-0.395142	
-0.395508	
-0.395386	
-0.396301	
-0.397339	
-0.396057	
-0.395813	
-0.396729	
-0.397095	
-0.397705	
-0.397766	
-0.397827	
-0.398132	
-0.397888	
-0.398438	
-0.39856	
-0.397705	
-0.398071	
-0.399353	
-0.398926	
-0.398621	
-0.400085	
-0.399719	
-0.399231	
-0.399353	
-0.398865	
-0.399658	
-0.398804	
-0.399048	
-0.399963	
-0.398621	
-0.400024	
-0.400452	
-0.400452	
-0.400146	
-0.400452	
-0.400391	
-0.40033	
-0.401123	
-0.400513	
-0.400757	
-0.400696	
-0.400818	
-0.401855	
-0.402222	
-0.401245	
-0.401123	
-0.399414	
-0.400208	
-0.400574	
-0.398865	
-0.398987	
-0.399597	
-0.399475	
-0.398804	
-0.399841	
-0.398865	
-0.398071	
-0.397644	
-0.399231	
-0.398987	
-0.397034	
-0.396606	
-0.397339	
-0.39801	
-0.397766	
-0.398438	
-0.397217	
-0.397949	
-0.3974	
-0.398254	
-0.398254	
-0.397583	
-0.397705	
-0.397034	
-0.396606	
-0.397949	
-0.400269	
-0.398132	
-0.397705	
-0.397583	
-0.39856	
-0.398132	
-0.398254	
-0.396729	
-0.397034	
-0.397217	
-0.397766	
-0.399475	
-0.398071	
-0.397949	
-0.397949	
-0.399353	
-0.39856	
-0.398315	
-0.39679	
-0.396729	
-0.396973	
-0.397278	
-0.39856	
-0.397217	
-0.396301	
-0.396118	
-0.397766	
-0.398376	
-0.3974	
-0.396362	
-0.39624	
-0.396545	
-0.396912	
-0.397156	
-0.397095	
-0.3974	
-0.397034	
-0.396667	
-0.371887	
-0.375488	
-0.38031	
-0.38092	
-0.382874	
-0.383362	
-0.41449	
-0.406372	
-0.400146	
-0.398743	
-0.397705	
-0.398865	
-0.397705	
-0.396484	
-0.395325	
-0.395142	
-0.395752	
-0.395264	
-0.39679	
-0.39447	
-0.39447	
-0.393677	
-0.394775	
-0.394165	
-0.364563	
-0.370422	
-0.375	
-0.378174	
-0.378906	
-0.379578	
-0.41156	
-0.401184	
-0.396057	
-0.393677	
-0.395874	
-0.394836	
-0.394836	
-0.393982	
-0.394958	
-0.394836	
-0.395752	
-0.396973	
-0.395325	
-0.39563	
-0.39502	
-0.395874	
-0.394165	
-0.393433	
-0.392151	
-0.393127	
-0.393677	
-0.393433	
-0.395386	
-0.394348	
-0.395264	
-0.396057	
-0.398926	
-0.400085	
-0.40332	
-0.405579	
-0.410767	
-0.41571	
-0.421143	
-0.42688	
-0.430176	
-0.434692	
-0.439453	
-0.447388	
-0.452332	
-0.4599	
-0.466431	
-0.473267	
-0.479065	
-0.483276	
-0.488892	
-0.490417	
-0.493225	
-0.49469	
-0.49762	
-0.49707	
-0.495972	
-0.494568	
-0.494385	
-0.494141	
-0.49292	
-0.492493	
-0.489502	
-0.488098	
-0.485413	
-0.484619	
-0.480591	
-0.477173	
-0.473511	
-0.470581	
-0.467163	
-0.46405	
-0.462585	
-0.459595	
-0.459473	
-0.458801	
-0.460022	
-0.460144	
-0.461426	
-0.461243	
-0.464783	
-0.467468	
-0.471252	
-0.474121	
-0.476196	
-0.478271	
-0.479431	
-0.481323	
-0.480286	
-0.479614	
-0.476563	
-0.474854	
-0.472412	
-0.46936	
-0.466248	
-0.461914	
-0.459167	
-0.455444	
-0.451172	
-0.44873	
-0.445862	
-0.441345	
-0.440002	
-0.439087	
-0.437744	
-0.437012	
-0.436157	
-0.434265	
-0.434204	
-0.433289	
-0.433228	
-0.432251	
-0.430481	
-0.428528	
-0.427368	
-0.425415	
-0.423218	
-0.421326	
-0.415833	
-0.411133	
-0.40686	
-0.4021	
-0.395508	
-0.389465	
-0.381836	
-0.376526	
-0.370422	
-0.363281	
-0.356201	
-0.346802	
-0.338501	
-0.329712	
-0.32251	
-0.312561	
-0.30365	
-0.293579	
-0.286255	
-0.277466	
-0.269714	
-0.261902	
-0.253601	
-0.245483	
-0.239014	
-0.233459	
-0.229492	
-0.228149	
-0.225586	
-0.227051	
-0.227966	
-0.229004	
-0.231995	
-0.233887	
-0.237061	
-0.241028	
-0.246216	
-0.249023	
-0.253113	
-0.257935	
-0.263123	
-0.268799	
-0.275024	
-0.281982	
-0.28656	
-0.292114	
-0.298035	
-0.303528	
-0.308228	
-0.311768	
-0.317566	
-0.321838	
-0.325989	
-0.3302	
-0.333252	
-0.335327	
-0.339355	
-0.342346	
-0.343506	
-0.346069	
-0.348694	
-0.351013	
-0.353088	
-0.355225	
-0.357727	
-0.357971	
-0.359558	
-0.360596	
-0.362671	
-0.36377	
-0.363953	
-0.364319	
-0.36615	
-0.367188	
-0.368408	
-0.368591	
-0.368958	
-0.369568	
-0.36969	
-0.369263	
-0.369263	
-0.368591	
-0.369934	
-0.370422	
-0.370728	
-0.372009	
-0.371033	
-0.370605	
-0.37146	
-0.371765	
-0.371582	
-0.370422	
-0.369446	
-0.37085	
-0.370972	
-0.371338	
-0.373047	
-0.370972	
-0.370544	
-0.371277	
-0.37207	
-0.37146	
-0.370728	
-0.370972	
-0.371094	
-0.371094	
-0.37146	
-0.371826	
-0.371094	
-0.370422	
-0.371704	
-0.37146	
-0.370605	
-0.3703	
-0.370483	
-0.369995	
-0.369568	
-0.370239	
-0.370789	
-0.369751	
-0.369568	
-0.369751	
-0.370239	
-0.370117	
-0.369385	
-0.369629	
-0.369141	
-0.369507	
-0.370728	
-0.371216	
-0.370422	
-0.370667	
-0.371033	
-0.371155	
-0.370422	
-0.369873	
-0.369812	
-0.370667	
-0.370483	
-0.370178	
-0.36969	
-0.369019	
-0.369141	
-0.369812	
-0.369812	
-0.368103	
-0.366882	
-0.368164	
-0.368774	
-0.369141	
-0.370483	
-0.369507	
-0.369751	
-0.369995	
-0.370972	
-0.371887	
-0.371277	
-0.370544	
-0.37146	
-0.372986	
-0.373047	
-0.373291	
-0.373657	
-0.373474	
-0.374023	
-0.374451	
-0.374817	
-0.374512	
-0.375061	
-0.37561	
-0.376343	
-0.378479	
-0.377441	
-0.377319	
-0.377136	
-0.378906	
-0.379456	
-0.378967	
-0.377502	
-0.379211	
-0.380188	
-0.380615	
-0.381226	
-0.380798	
-0.380859	
-0.380859	
-0.381531	
-0.381653	
-0.380859	
-0.38147	
-0.381165	
-0.382263	
-0.382751	
-0.381897	
-0.382141	
-0.381775	
-0.383667	
-0.38269	
-0.383179	
-0.382874	
-0.383057	
-0.382813	
-0.383789	
-0.384827	
-0.384155	
-0.384705	
-0.385071	
-0.387268	
-0.385986	
-0.386292	
-0.385864	
-0.387024	
-0.387451	
-0.388306	
-0.388794	
-0.388306	
-0.388245	
-0.38855	
-0.389954	
-0.389038	
-0.388428	
-0.387451	
-0.38916	
-0.388977	
-0.389893	
-0.390198	
-0.38855	
-0.388367	
-0.38855	
-0.389526	
-0.388916	
-0.388245	
-0.387024	
-0.388367	
-0.389038	
-0.389526	
-0.390503	
-0.389709	
-0.389709	
-0.390625	
-0.391113	
-0.39032	
-0.390076	
-0.388611	
-0.389954	
-0.390198	
-0.390991	
-0.390808	
-0.389648	
-0.388794	
-0.390137	
-0.391113	
-0.390686	
-0.390381	
-0.388489	
-0.390076	
-0.390442	
-0.391052	
-0.391785	
-0.391174	
-0.389954	
-0.391235	
-0.391418	
-0.391418	
-0.390808	
-0.390564	
-0.39093	
-0.391541	
-0.391785	
-0.3927	
-0.392456	
-0.392212	
-0.392273	
-0.392334	
-0.392578	
-0.392151	
-0.392822	
-0.39209	
-0.392761	
-0.392151	
-0.392761	
-0.393005	
-0.393188	
-0.393616	
-0.39325	
-0.394409	
-0.39209	
-0.393311	
-0.392639	
-0.394165	
-0.394104	
-0.393738	
-0.393005	
-0.394836	
-0.394043	
-0.394409	
-0.394287	
-0.39386	
-0.394653	
-0.394592	
-0.395142	
-0.39563	
-0.395386	
-0.393799	
-0.396423	
-0.395386	
-0.395325	
-0.39563	
-0.395325	
-0.394592	
-0.393555	
-0.395203	
-0.395874	
-0.394592	
-0.394104	
-0.395813	
-0.395142	
-0.394897	
-0.393127	
-0.394714	
-0.395142	
-0.394714	
-0.395447	
-0.395081	
-0.395264	
-0.394775	
-0.395081	
-0.395325	
-0.395325	
-0.39447	
-0.395325	
-0.394775	
-0.395935	
-0.396118	
-0.395447	
-0.39502	
-0.395813	
-0.39563	
-0.395874	
-0.395813	
-0.395386	
-0.395935	
-0.395569	
-0.395813	
-0.396545	
-0.396179	
-0.396057	
-0.396912	
-0.396912	
-0.396912	
-0.39679	
-0.397217	
-0.397217	
-0.397034	
-0.396362	
-0.397827	
-0.397522	
-0.397888	
-0.397217	
-0.397888	
-0.398315	
-0.396606	
-0.39856	
-0.398376	
-0.398254	
-0.397888	
-0.399963	
-0.398804	
-0.398987	
-0.398315	
-0.399109	
-0.399475	
-0.398254	
-0.400269	
-0.399841	
-0.399109	
-0.399292	
-0.400879	
-0.399414	
-0.39978	
-0.399841	
-0.399719	
-0.399475	
-0.399414	
-0.400513	
-0.399719	
-0.399902	
-0.399658	
-0.401184	
-0.399902	
-0.39978	
-0.400391	
-0.399231	
-0.398132	
-0.397888	
-0.398438	
-0.397217	
-0.397278	
-0.396606	
-0.397461	
-0.396545	
-0.396179	
-0.396118	
-0.395386	
-0.39502	
-0.395447	
-0.395508	
-0.394714	
-0.394897	
-0.394836	
-0.396179	
-0.395874	
-0.396545	
-0.396118	
-0.396362	
-0.396484	
-0.396179	
-0.397278	
-0.397217	
-0.397156	
-0.397034	
-0.398621	
-0.397888	
-0.398438	
-0.397644	
-0.397888	
-0.398254	
-0.398315	
-0.399536	
-0.398865	
-0.398682	
-0.399231	
-0.400146	
-0.399109	
-0.400024	
-0.398743	
-0.398315	
-0.399109	
-0.398621	
-0.40094	
-0.399719	
-0.400085	
-0.40033	
-0.400879	
-0.400879	
-0.401306	
-0.400513	
-0.399658	
-0.400818	
-0.40033	
-0.401672	
-0.401001	
-0.401489	
-0.401611	
-0.401672	
-0.401306	
-0.40155	
-0.40094	
-0.399719	
-0.40033	
-0.399597	
-0.401062	
-0.399658	
-0.399353	
-0.399475	
-0.399292	
-0.399963	
-0.399597	
-0.399475	
-0.398682	
-0.398132	
-0.39679	
-0.398438	
-0.398743	
-0.398254	
-0.397766	
-0.3974	
-0.398926	
-0.398499	
-0.398865	
-0.3974	
-0.398315	
-0.397644	
-0.399414	
-0.398376	
-0.39856	
-0.398926	
-0.398254	
-0.39917	
-0.398071	
-0.399231	
-0.398071	
-0.398376	
-0.396912	
-0.399414	
-0.398987	
-0.398499	
-0.399109	
-0.398315	
-0.398682	
-0.398499	
-0.400146	
-0.398499	
-0.397888	
-0.396545	
-0.399109	
-0.39801	
-0.398254	
-0.398376	
-0.397522	
-0.397827	
-0.396545	
-0.399353	
-0.397278	
-0.397217	
-0.396973	
-0.398132	
-0.397217	
-0.397644	
-0.397522	
-0.398071	
-0.398071	
-0.398071	
-0.39917	
-0.397888	
-0.397949	
-0.397583	
-0.39917	
-0.398315	
-0.398743	
-0.3974	
-0.397949	
-0.398376	
-0.397888	
-0.39856	
-0.39801	
-0.397278	
-0.396912	
-0.397461	
-0.397034	
-0.397095	
-0.396179	
-0.396179	
-0.395874	
-0.395935	
-0.395691	
-0.395569	
-0.39386	
-0.394531	
-0.394348	
-0.394714	
-0.395325	
-0.394165	
-0.394287	
-0.39447	
-0.395142	
-0.395142	
-0.39502	
-0.394348	
-0.394958	
-0.394775	
-0.395569	
-0.395447	
-0.396118	
-0.395447	
-0.39563	
-0.396606	
-0.396301	
-0.396667	
-0.395081	
-0.394836	
-0.394104	
-0.394714	
-0.395386	
-0.394958	
-0.394958	
-0.395081	
-0.395691	
-0.395508	
-0.396667	
-0.395813	
-0.395447	
-0.395386	
-0.395935	
-0.396301	
-0.395569	
-0.395752	
-0.395996	
-0.396362	
-0.396484	
-0.397156	
-0.395203	
-0.394897	
-0.396484	
-0.396362	
-0.396423	
-0.395752	
-0.396118	
-0.395813	
-0.395752	
-0.396729	
-0.396545	
-0.395264	
-0.395142	
-0.395813	
-0.395264	
-0.395752	
-0.395142	
-0.395081	
-0.395142	
-0.395691	
-0.396851	
-0.396118	
-0.395325	
-0.394775	
-0.395569	
-0.394409	
-0.395691	
-0.395142	
-0.395569	
-0.395142	
-0.394409	
-0.396423	
-0.395508	
-0.39563	
-0.395325	
-0.395508	
-0.394226	
-0.395386	
-0.395752	
-0.395691	
-0.395447	
-0.394226	
-0.395874	
-0.395874	
-0.395508	
-0.394836	
-0.395813	
-0.393616	
-0.394592	
-0.394653	
-0.394836	
-0.394897	
-0.393799	
-0.395142	
-0.395081	
-0.39502	
-0.394592	
-0.39502	
-0.393738	
-0.394287	
-0.395142	
-0.394714	
-0.395264	
-0.393921	
-0.394592	
-0.395386	
-0.396057	
-0.394714	
-0.394531	
-0.393616	
-0.394775	
-0.394775	
-0.394287	
-0.39447	
-0.394653	
-0.394409	
-0.395325	
-0.395813	
-0.394958	
-0.393372	
-0.393555	
-0.394775	
-0.394165	
-0.39447	
-0.394836	
-0.394165	
-0.394226	
-0.395081	
-0.394897	
-0.393982	
-0.392822	
-0.392639	
-0.393372	
-0.392761	
-0.393799	
-0.39325	
-0.393372	
-0.393555	
-0.393738	
-0.393921	
-0.393005	
-0.392151	
-0.391663	
-0.3927	
-0.391968	
-0.392517	
-0.392517	
-0.391968	
-0.391663	
-0.392944	
-0.392822	
-0.392334	
-0.391052	
-0.390198	
-0.391846	
-0.39032	
-0.391846	
-0.391785	
-0.391846	
-0.39032	
-0.392639	
-0.392273	
-0.391113	
-0.390625	
-0.390564	
-0.390198	
-0.390076	
-0.391785	
-0.390869	
-0.390991	
-0.390808	
-0.392395	
-0.391968	
-0.391541	
-0.391418	
-0.391663	
-0.39093	
-0.392273	
-0.394287	
-0.393372	
-0.394043	
-0.393982	
-0.394958	
-0.395691	
-0.396301	
-0.395569	
-0.394958	
-0.394897	
-0.394897	
-0.396179	
-0.395691	
-0.395874	
-0.396301	
-0.395691	
-0.395508	
-0.395874	
-0.394775	
-0.394226	
-0.394287	
-0.393494	
-0.394226	
-0.39386	
-0.393616	
-0.393555	
-0.393555	
-0.393494	
-0.393555	
-0.393311	
-0.392273	
-0.391418	
-0.392029	
-0.392761	
-0.392883	
-0.391907	
-0.391541	
-0.391541	
-0.39209	
-0.392517	
-0.3927	
-0.391968	
-0.39032	
-0.390259	
-0.391785	
-0.392029	
-0.390991	
-0.390442	
-0.390503	
-0.391052	
-0.391418	
-0.39093	
-0.390137	
-0.389709	
-0.389465	
-0.390686	
-0.391174	
-0.390137	
-0.390686	
-0.391541	
-0.391602	
-0.392273	
-0.392334	
-0.391174	
-0.391907	
-0.391541	
-0.393311	
-0.394043	
-0.393188	
-0.39325	
-0.393799	
-0.394165	
-0.394714	
-0.395081	
-0.394165	
-0.394409	
-0.39386	
-0.393555	
-0.39502	
-0.394348	
-0.394775	
-0.394348	
-0.394348	
-0.395447	
-0.394714	
-0.393433	
-0.393005	
-0.393311	
-0.392395	
-0.394531	
-0.393677	
-0.39386	
-0.393677	
-0.393494	
-0.394043	
-0.394104	
-0.394043	
-0.39325	
-0.393005	
-0.392883	
-0.394287	
-0.39386	
-0.39447	
-0.394104	
-0.394104	
-0.393555	
-0.393799	
-0.394287	
-0.393982	
-0.393921	
-0.39386	
-0.39447	
-0.394348	
-0.394531	
-0.394775	
-0.395203	
-0.39502	
-0.394775	
-0.394348	
-0.394287	
-0.394653	
-0.393921	
-0.395264	
-0.394592	
-0.394409	
-0.394043	
-0.395081	
-0.394531	
-0.394409	
-0.394165	
-0.394348	
-0.394043	
-0.392944	
-0.394958	
-0.394165	
-0.393921	
-0.394531	
-0.394958	
-0.394348	
-0.394287	
-0.394165	
-0.394226	
-0.394531	
-0.393433	
-0.395508	
-0.395691	
-0.395569	
-0.395996	
-0.397034	
-0.397278	
-0.396973	
-0.397705	
-0.3974	
-0.397034	
-0.397034	
-0.397644	
-0.39801	
-0.397827	
-0.398254	
-0.3974	
-0.39801	
-0.397766	
-0.398621	
-0.397095	
-0.395935	
-0.396484	
-0.396729	
-0.397339	
-0.396362	
-0.396057	
-0.396118	
-0.396057	
-0.396484	
-0.397705	
-0.397034	
-0.396423	
-0.397888	
-0.396362	
-0.398193	
-0.397217	
-0.397034	
-0.397217	
-0.397461	
-0.397217	
-0.397217	
-0.39624	
-0.395203	
-0.396057	
-0.395691	
-0.397217	
-0.396729	
-0.396362	
-0.396362	
-0.396545	
-0.397339	
-0.3974	
-0.395874	
-0.395325	
-0.39624	
-0.395874	
-0.396729	
-0.396484	
-0.39679	
-0.396484	
-0.396301	
-0.397339	
-0.397461	
-0.397278	
-0.395996	
-0.396362	
-0.396301	
-0.396667	
-0.397461	
-0.396606	
-0.396851	
-0.396729	
-0.397888	
-0.397705	
-0.396973	
-0.396179	
-0.396423	
-0.396606	
-0.396545	
-0.397888	
-0.396606	
-0.396729	
-0.397278	
-0.397949	
-0.397827	
-0.3974	
-0.396423	
-0.397278	
-0.397278	
-0.397339	
-0.398193	
-0.397644	
-0.398254	
-0.397888	
-0.398926	
-0.398315	
-0.397949	
-0.396301	
-0.397949	
-0.398376	
-0.398621	
-0.398682	
-0.397766	
-0.397888	
-0.398315	
-0.399292	
-0.398193	
-0.397583	
-0.396362	
-0.397705	
-0.397583	
-0.39679	
-0.397644	
-0.397766	
-0.397705	
-0.397522	
-0.398071	
-0.397827	
-0.398071	
-0.3974	
-0.397339	
-0.397339	
-0.39624	
-0.398315	
-0.397949	
-0.397888	
-0.397461	
-0.398254	
-0.398071	
-0.397949	
-0.39801	
-0.397705	
-0.397522	
-0.396545	
-0.397827	
-0.398071	
-0.397644	
-0.398071	
-0.398499	
-0.398071	
-0.399048	
-0.39917	
-0.398132	
-0.399048	
-0.398621	
-0.399048	
-0.399414	
-0.398804	
-0.398743	
-0.399231	
-0.399353	
-0.39917	
-0.399475	
-0.39801	
-0.398987	
-0.398926	
-0.39978	
-0.400452	
-0.399536	
-0.400085	
-0.400024	
-0.400513	
-0.400757	
-0.400879	
-0.399109	
-0.399475	
-0.400452	
-0.400696	
-0.401123	
-0.400757	
-0.400879	
-0.400452	
-0.401672	
-0.401428	
-0.400879	
-0.400269	
-0.399841	
-0.400452	
-0.400635	
-0.401855	
-0.40094	
-0.400757	
-0.401184	
-0.401917	
-0.40155	
-0.400085	
-0.399719	
-0.399292	
-0.398804	
-0.398315	
-0.398865	
-0.397583	
-0.397888	
-0.398132	
-0.398254	
-0.397522	
-0.397034	
-0.39624	
-0.39563	
-0.395752	
-0.394897	
-0.395691	
-0.395325	
-0.39563	
-0.396423	
-0.39679	
-0.397339	
-0.396912	
-0.397034	
-0.397278	
-0.397217	
-0.396729	
-0.398438	
-0.39801	
-0.398132	
-0.398743	
-0.398987	
-0.39917	
-0.399292	
-0.399048	
-0.398193	
-0.399048	
-0.398987	
-0.399353	
-0.39917	
-0.399414	
-0.399353	
-0.399902	
-0.400024	
-0.399841	
-0.399963	
-0.399048	
-0.399536	
-0.399963	
-0.400146	
-0.400635	
-0.400391	
-0.400391	
-0.401611	
-0.401245	
-0.401794	
-0.401306	
-0.400208	
-0.401062	
-0.401611	
-0.401733	
-0.401978	
-0.401245	
-0.40094	
-0.401672	
-0.4021	
-0.401794	
-0.400574	
-0.400452	
-0.399658	
-0.400085	
-0.399414	
-0.399292	
-0.399048	
-0.398743	
-0.398193	
-0.399597	
-0.399292	
-0.39801	
-0.398193	
-0.398132	
-0.39801	
-0.397156	
-0.397522	
-0.397278	
-0.397522	
-0.397461	
-0.398682	
-0.398071	
-0.398315	
-0.398254	
-0.39801	
-0.396912	
-0.398132	
-0.398682	
-0.398132	
-0.398071	
-0.397888	
-0.399414	
-0.398682	
-0.398987	
-0.397705	
-0.398499	
-0.397827	
-0.398071	
-0.39801	
-0.398315	
-0.398071	
-0.397583	
-0.399658	
-0.398621	
-0.398682	
-0.396973	
-0.398071	
-0.3974	
-0.397583	
-0.397461	
-0.397461	
-0.396973	
-0.395874	
-0.398804	
-0.397522	
-0.398132	
-0.396973	
-0.397217	
-0.396667	
-0.397156	
-0.39679	
-0.397217	
-0.397156	
-0.39679	
-0.398193	
-0.397461	
-0.397888	
-0.396973	
-0.397888	
-0.397522	
-0.397888	
-0.396973	
-0.397827	
-0.397522	
-0.396362	
-0.398376	
-0.397461	
-0.397156	
-0.396729	
-0.396912	
-0.396179	
-0.395935	
-0.396057	
-0.395874	
-0.395142	
-0.394592	
-0.39502	
-0.394836	
-0.394348	
-0.394165	
-0.393494	
-0.39386	
-0.392761	
-0.394531	
-0.393616	
-0.392883	
-0.393433	
-0.394165	
-0.393921	
-0.394043	
-0.39447	
-0.392883	
-0.394409	
-0.393921	
-0.395264	
-0.394958	
-0.395203	
-0.394897	
-0.395081	
-0.396484	
-0.394897	
-0.395081	
-0.393127	
-0.393677	
-0.39325	
-0.393982	
-0.394226	
-0.394104	
-0.394287	
-0.394104	
-0.396179	
-0.394714	
-0.395691	
-0.39447	
-0.39502	
-0.394714	
-0.394958	
-0.395081	
-0.395325	
-0.394714	
-0.394653	
-0.396179	
-0.394836	
-0.395386	
-0.394958	
-0.395203	
-0.395264	
-0.395203	
-0.394165	
-0.39447	
-0.394897	
-0.39502	
-0.395508	
-0.394775	
-0.394958	
-0.394592	
-0.392944	
-0.394836	
-0.393555	
-0.394897	
-0.394348	
-0.394287	
-0.393433	
-0.394653	
-0.395386	
-0.394653	
-0.394897	
-0.394226	
-0.394531	
-0.393738	
-0.394104	
-0.394287	
-0.394836	
-0.393982	
-0.394104	
-0.395142	
-0.394714	
-0.394958	
-0.394226	
-0.394714	
-0.394165	
-0.393982	
-0.394653	
-0.394287	
-0.393921	
-0.394775	
-0.394775	
-0.394287	
-0.394897	
-0.392883	
-0.393188	
-0.393677	
-0.392578	
-0.393921	
-0.393555	
-0.393188	
-0.392456	
-0.394287	
-0.394226	
-0.394653	
-0.393494	
-0.392761	
-0.393738	
-0.393005	
-0.393982	
-0.393616	
-0.393372	
-0.393433	
-0.394714	
-0.393982	
-0.393982	
-0.393921	
-0.392944	
-0.393738	
-0.392395	
-0.394592	
-0.393616	
-0.39325	
-0.393066	
-0.394714	
-0.39447	
-0.393555	
-0.394043	
-0.393555	
-0.393555	
-0.392944	
-0.393921	
-0.393433	
-0.392944	
-0.393311	
-0.39386	
-0.393677	
-0.392639	
-0.393433	
-0.392212	
-0.392334	
-0.391663	
-0.392944	
-0.392456	
-0.392029	
-0.392273	
-0.392334	
-0.393005	
-0.392334	
-0.392822	
-0.392029	
-0.390991	
-0.389832	
-0.391541	
-0.391113	
-0.391357	
-0.391479	
-0.390137	
-0.390991	
-0.391357	
-0.391785	
-0.389465	
-0.390198	
-0.389343	
-0.390625	
-0.390869	
-0.390259	
-0.390381	
-0.390015	
-0.390503	
-0.390381	
-0.391907	
-0.388489	
-0.389038	
-0.389893	
-0.389587	
-0.390686	
-0.390259	
-0.389771	
-0.389771	
-0.390991	
-0.390564	
-0.391846	
-0.390198	
-0.390747	
-0.391541	
-0.392456	
-0.393555	
-0.3927	
-0.393066	
-0.393494	
-0.394287	
-0.394653	
-0.395508	
-0.394714	
-0.394409	
-0.394592	
-0.395508	
-0.395935	
-0.394897	
-0.394592	
-0.394226	
-0.394409	
-0.394958	
-0.39386	
-0.393677	
-0.392151	
-0.392334	
-0.391479	
-0.393005	
-0.392273	
-0.392517	
-0.39209	
-0.392334	
-0.392761	
-0.392212	
-0.392822	
-0.391174	
-0.391235	
-0.389648	
-0.391418	
-0.390991	
-0.391113	
-0.390564	
-0.390076	
-0.391541	
-0.390808	
-0.39209	
-0.390076	
-0.390137	
-0.389465	
-0.390564	
-0.390076	
-0.389832	
-0.389648	
-0.388611	
-0.390015	
-0.389282	
-0.390503	
-0.388977	
-0.389221	
-0.389099	
-0.389709	
-0.390381	
-0.390076	
-0.389954	
-0.389099	
-0.39032	
-0.390808	
-0.391907	
-0.390808	
-0.390442	
-0.391418	
-0.391541	
-0.393311	
-0.392761	
-0.392395	
-0.392212	
-0.393372	
-0.393677	
-0.393982	
-0.393372	
-0.391357	
-0.393188	
-0.391846	
-0.394165	
-0.393311	
-0.393555	
-0.393188	
-0.392822	
-0.393372	
-0.393127	
-0.39325	
-0.390564	
-0.392273	
-0.391235	
-0.393738	
-0.392395	
-0.392395	
-0.392395	
-0.392639	
-0.39386	
-0.392578	
-0.393494	
-0.391235	
-0.392456	
-0.391968	
-0.39325	
-0.392944	
-0.392578	
-0.392334	
-0.392212	
-0.394592	
-0.393127	
-0.394226	
-0.392822	
-0.393372	
-0.392578	
-0.393005	
-0.393555	
-0.393311	
-0.393433	
-0.392334	
-0.39447	
-0.393677	
-0.395081	
-0.393921	
-0.393799	
-0.393982	
-0.393005	
-0.393738	
-0.393555	
-0.393433	
-0.392639	
-0.394226	
-0.393127	
-0.393188	
-0.393555	
-0.392822	
-0.392883	
-0.3927	
-0.394165	
-0.392761	
-0.392822	
-0.392639	
-0.394348	
-0.393616	
-0.393799	
-0.394592	
-0.393127	
-0.394653	
-0.39386	
-0.396423	
-0.395325	
-0.395508	
-0.395996	
-0.39679	
-0.396362	
-0.396729	
-0.396973	
-0.39563	
-0.397095	
-0.395813	
-0.397705	
-0.396912	
-0.396851	
-0.396606	
-0.396729	
-0.397339	
-0.396545	
-0.396912	
-0.394043	
-0.395874	
-0.394958	
-0.394958	
-0.395264	
-0.395081	
-0.395203	
-0.39624	
-0.397766	
-0.396545	
-0.397705	
-0.396301	
-0.396667	
-0.395996	
-0.395508	
-0.397156	
-0.395996	
-0.395752	
-0.394531	
-0.39679	
-0.394958	
-0.39624	
-0.395935	
-0.395325	
-0.394653	
-0.395569	
-0.396362	
-0.395386	
-0.395142	
-0.395874	
-0.396912	
-0.395386	
-0.396179	
-0.395264	
-0.395447	
-0.395325	
-0.395203	
-0.396118	
-0.395203	
-0.395447	
-0.395447	
-0.396423	
-0.396179	
-0.396667	
-0.395569	
-0.395142	
-0.395996	
-0.396179	
-0.395081	
-0.39563	
-0.395874	
-0.395325	
-0.395996	
-0.39624	
-0.395935	
-0.395386	
-0.395081	
-0.395935	
-0.396301	
-0.395142	
-0.395874	
-0.39624	
-0.396301	
-0.395142	
-0.397156	
-0.396606	
-0.396179	
-0.396667	
-0.396606	
-0.397156	
-0.396729	
-0.397522	
-0.396851	
-0.397278	
-0.396606	
-0.397644	
-0.397583	
-0.397522	
-0.397461	
-0.397217	
-0.397095	
-0.397278	
-0.397888	
-0.396973	
-0.396729	
-0.396545	
-0.397339	
-0.397461	
-0.397217	
-0.395691	
-0.395996	
-0.397095	
-0.396545	
-0.397156	
-0.396606	
-0.396729	
-0.396606	
-0.397034	
-0.397583	
-0.396973	
	
