E:\DOCUMENTS AND SETTINGS\JPOTAS\MEUS DOCUMENTOS\UFRJ\RSCI-BM 12 WK SERIES\070720-RSCI-BM-04\RSCI-BM-04-LEMG\070720-RSCI-BM-LEMG-0001.ACQ
0.025000 msec/sample
1 channel
Analog input
Volts
CH1	
2000	
-0.398743	
-0.398499	
-0.399719	
-0.399231	
-0.400269	
-0.399109	
-0.398376	
-0.39801	
-0.396973	
-0.397644	
-0.396912	
-0.397522	
-0.397156	
-0.397888	
-0.397522	
-0.397095	
-0.397644	
-0.395874	
-0.396423	
-0.395264	
-0.396484	
-0.39624	
-0.395935	
-0.396667	
-0.396851	
-0.397583	
-0.397095	
-0.398132	
-0.395691	
-0.396973	
-0.395752	
-0.396362	
-0.397095	
-0.397461	
-0.397583	
-0.397705	
-0.398376	
-0.398376	
-0.39856	
-0.397278	
-0.396912	
-0.397156	
-0.39563	
-0.397522	
-0.397461	
-0.397095	
-0.397217	
-0.397705	
-0.397522	
-0.397095	
-0.398499	
-0.396301	
-0.396912	
-0.395813	
-0.397034	
-0.397339	
-0.3974	
-0.397827	
-0.398132	
-0.399109	
-0.39917	
-0.399536	
-0.398621	
-0.398315	
-0.39856	
-0.398621	
-0.399475	
-0.400146	
-0.39978	
-0.400452	
-0.400818	
-0.400879	
-0.400452	
-0.400696	
-0.400146	
-0.39978	
-0.397766	
-0.400024	
-0.399414	
-0.399658	
-0.400085	
-0.399719	
-0.399536	
-0.400146	
-0.401428	
-0.398743	
-0.398987	
-0.398071	
-0.398926	
-0.39917	
-0.398621	
-0.398865	
-0.399475	
-0.40033	
-0.399475	
-0.399475	
-0.398621	
-0.398743	
-0.398193	
-0.396851	
-0.39917	
-0.398804	
-0.398254	
-0.398804	
-0.399292	
-0.39856	
-0.399963	
-0.400574	
-0.397522	
-0.398132	
-0.3974	
-0.398438	
-0.398376	
-0.398987	
-0.39856	
-0.398682	
-0.399231	
-0.398926	
-0.399902	
-0.397949	
-0.398499	
-0.397217	
-0.396851	
-0.398254	
-0.398376	
-0.398254	
-0.398621	
-0.398865	
-0.399231	
-0.400269	
-0.40033	
-0.398315	
-0.397644	
-0.396301	
-0.398621	
-0.398376	
-0.39856	
-0.398804	
-0.398926	
-0.399414	
-0.399658	
-0.400146	
-0.398254	
-0.397644	
-0.397217	
-0.397461	
-0.398254	
-0.398315	
-0.397827	
-0.397461	
-0.398376	
-0.397827	
-0.398743	
-0.397766	
-0.39624	
-0.395386	
-0.396606	
-0.396729	
-0.396362	
-0.396179	
-0.395813	
-0.39624	
-0.396484	
-0.397034	
-0.395996	
-0.395203	
-0.395203	
-0.393921	
-0.394775	
-0.396057	
-0.395752	
-0.395813	
-0.396301	
-0.396484	
-0.396362	
-0.397583	
-0.396545	
-0.394897	
-0.393982	
-0.396057	
-0.395996	
-0.395996	
-0.396118	
-0.395935	
-0.396912	
-0.39801	
-0.398499	
-0.396667	
-0.396179	
-0.396179	
-0.396118	
-0.396973	
-0.396057	
-0.395752	
-0.395813	
-0.395935	
-0.396057	
-0.368774	
-0.40686	
-0.40155	
-0.396301	
-0.393311	
-0.394409	
-0.395447	
-0.395386	
-0.395264	
-0.395142	
-0.395142	
-0.396423	
-0.396851	
-0.395142	
-0.393982	
-0.39325	
-0.393921	
-0.39447	
-0.394775	
-0.394409	
-0.394775	
-0.394592	
-0.394836	
-0.396667	
-0.395142	
-0.394165	
-0.394043	
-0.393799	
-0.393494	
-0.394775	
-0.395081	
-0.394897	
-0.39563	
-0.395935	
-0.3974	
-0.397339	
-0.397705	
-0.397217	
-0.395813	
-0.3974	
-0.398926	
-0.39856	
-0.398376	
-0.398804	
-0.399048	
-0.398926	
-0.40094	
-0.399048	
-0.397644	
-0.397095	
-0.397217	
-0.39801	
-0.398743	
-0.399353	
-0.399902	
-0.400757	
-0.40271	
-0.406433	
-0.408813	
-0.411865	
-0.415405	
-0.418152	
-0.422363	
-0.426941	
-0.430603	
-0.434875	
-0.440308	
-0.44635	
-0.454468	
-0.460388	
-0.463989	
-0.467102	
-0.469666	
-0.471924	
-0.473999	
-0.475769	
-0.475464	
-0.475403	
-0.475098	
-0.475037	
-0.474182	
-0.472595	
-0.470886	
-0.46759	
-0.467346	
-0.466248	
-0.464417	
-0.462341	
-0.460022	
-0.457825	
-0.455444	
-0.454834	
-0.452148	
-0.448303	
-0.444092	
-0.443176	
-0.44342	
-0.443298	
-0.443665	
-0.444824	
-0.446533	
-0.448303	
-0.45282	
-0.454956	
-0.456482	
-0.459961	
-0.464478	
-0.46875	
-0.471863	
-0.474304	
-0.47644	
-0.477905	
-0.478943	
-0.480408	
-0.478455	
-0.47644	
-0.47345	
-0.468689	
-0.46698	
-0.464355	
-0.460571	
-0.457092	
-0.453003	
-0.450073	
-0.447327	
-0.44519	
-0.442383	
-0.43866	
-0.435181	
-0.43335	
-0.434448	
-0.433777	
-0.432983	
-0.431824	
-0.431091	
-0.431274	
-0.430969	
-0.429504	
-0.425842	
-0.421936	
-0.419006	
-0.416199	
-0.413269	
-0.409485	
-0.404968	
-0.399719	
-0.394897	
-0.389954	
-0.384338	
-0.376404	
-0.369141	
-0.361328	
-0.353699	
-0.347168	
-0.338623	
-0.330078	
-0.321472	
-0.312988	
-0.304688	
-0.296326	
-0.286499	
-0.276733	
-0.267151	
-0.257568	
-0.250854	
-0.243286	
-0.236084	
-0.230408	
-0.225403	
-0.222168	
-0.221924	
-0.22168	
-0.220825	
-0.221985	
-0.22406	
-0.229004	
-0.233643	
-0.238708	
-0.244019	
-0.249329	
-0.255005	
-0.260925	
-0.266602	
-0.271545	
-0.276794	
-0.281921	
-0.289063	
-0.294067	
-0.299927	
-0.304993	
-0.310486	
-0.316467	
-0.322144	
-0.323425	
-0.32666	
-0.329224	
-0.332825	
-0.336609	
-0.339355	
-0.341614	
-0.343567	
-0.345764	
-0.34845	
-0.349365	
-0.349304	
-0.350403	
-0.35083	
-0.353271	
-0.354065	
-0.35498	
-0.355347	
-0.355469	
-0.357117	
-0.358582	
-0.358765	
-0.358521	
-0.358093	
-0.358704	
-0.360657	
-0.361267	
-0.36145	
-0.361877	
-0.362976	
-0.363831	
-0.365112	
-0.36554	
-0.364685	
-0.363281	
-0.364685	
-0.365723	
-0.366577	
-0.366882	
-0.367615	
-0.367798	
-0.36853	
-0.368347	
-0.369141	
-0.368958	
-0.368896	
-0.369385	
-0.369751	
-0.369568	
-0.370117	
-0.370728	
-0.371216	
-0.37207	
-0.37146	
-0.371521	
-0.370544	
-0.370972	
-0.371094	
-0.371765	
-0.371887	
-0.371704	
-0.371582	
-0.37207	
-0.373352	
-0.373169	
-0.372742	
-0.37085	
-0.370789	
-0.370239	
-0.37085	
-0.370483	
-0.370422	
-0.369324	
-0.369507	
-0.370911	
-0.371033	
-0.371094	
-0.369568	
-0.369446	
-0.368225	
-0.369629	
-0.369263	
-0.368591	
-0.368896	
-0.368042	
-0.368774	
-0.368774	
-0.368896	
-0.367615	
-0.366333	
-0.365295	
-0.367615	
-0.367737	
-0.367493	
-0.368164	
-0.368835	
-0.369751	
-0.369995	
-0.370117	
-0.370361	
-0.369995	
-0.371216	
-0.372253	
-0.373535	
-0.373657	
-0.37384	
-0.374817	
-0.377014	
-0.377747	
-0.375916	
-0.37561	
-0.375549	
-0.376831	
-0.377258	
-0.377441	
-0.377441	
-0.378052	
-0.379395	
-0.380127	
-0.380615	
-0.379333	
-0.378235	
-0.379028	
-0.380188	
-0.380981	
-0.381165	
-0.38092	
-0.381287	
-0.382263	
-0.384155	
-0.383423	
-0.38269	
-0.38208	
-0.381653	
-0.383667	
-0.383911	
-0.384277	
-0.384155	
-0.384277	
-0.385864	
-0.385925	
-0.385376	
-0.384949	
-0.384888	
-0.384583	
-0.386353	
-0.386536	
-0.385803	
-0.38623	
-0.386597	
-0.388184	
-0.388062	
-0.387878	
-0.386658	
-0.386658	
-0.387085	
-0.387146	
-0.387085	
-0.387024	
-0.387817	
-0.388367	
-0.39032	
-0.389282	
-0.389038	
-0.387878	
-0.388062	
-0.388123	
-0.388489	
-0.388245	
-0.388123	
-0.388489	
-0.388916	
-0.390198	
-0.389343	
-0.388855	
-0.388	
-0.387634	
-0.387573	
-0.387024	
-0.387634	
-0.386963	
-0.387329	
-0.387573	
-0.388916	
-0.387634	
-0.387817	
-0.387024	
-0.386963	
-0.387024	
-0.386963	
-0.387878	
-0.387756	
-0.388184	
-0.388306	
-0.389709	
-0.389038	
-0.388977	
-0.389343	
-0.389282	
-0.389099	
-0.389526	
-0.390991	
-0.391479	
-0.392029	
-0.39209	
-0.393921	
-0.393066	
-0.393127	
-0.39325	
-0.392639	
-0.392456	
-0.393433	
-0.394348	
-0.393738	
-0.393921	
-0.394348	
-0.395996	
-0.395691	
-0.39447	
-0.394836	
-0.394653	
-0.395081	
-0.394409	
-0.395081	
-0.394958	
-0.395264	
-0.396362	
-0.397095	
-0.396912	
-0.395996	
-0.395325	
-0.395386	
-0.395935	
-0.39502	
-0.396301	
-0.396545	
-0.396484	
-0.39624	
-0.397095	
-0.397217	
-0.395935	
-0.394592	
-0.394714	
-0.395325	
-0.394531	
-0.395386	
-0.395447	
-0.395142	
-0.395752	
-0.396484	
-0.396179	
-0.39563	
-0.394104	
-0.394958	
-0.395264	
-0.395081	
-0.395569	
-0.395996	
-0.395691	
-0.395996	
-0.397339	
-0.396729	
-0.39679	
-0.396362	
-0.395752	
-0.39679	
-0.396606	
-0.396912	
-0.398071	
-0.397644	
-0.398621	
-0.399475	
-0.397583	
-0.39801	
-0.3974	
-0.39856	
-0.398376	
-0.39856	
-0.398987	
-0.398987	
-0.399231	
-0.399353	
-0.400269	
-0.398438	
-0.398438	
-0.397095	
-0.397949	
-0.397705	
-0.396912	
-0.397339	
-0.397034	
-0.397156	
-0.3974	
-0.39801	
-0.396912	
-0.396912	
-0.396179	
-0.397339	
-0.397034	
-0.396057	
-0.397583	
-0.397095	
-0.397949	
-0.397766	
-0.39856	
-0.3974	
-0.398071	
-0.397949	
-0.396729	
-0.398193	
-0.397949	
-0.398621	
-0.398499	
-0.398499	
-0.398865	
-0.40033	
-0.399414	
-0.398193	
-0.398193	
-0.398254	
-0.399109	
-0.39856	
-0.398376	
-0.398376	
-0.398438	
-0.398682	
-0.400024	
-0.398926	
-0.397949	
-0.398071	
-0.398621	
-0.398743	
-0.398926	
-0.39801	
-0.399475	
-0.399963	
-0.400513	
-0.401123	
-0.400635	
-0.400146	
-0.400085	
-0.40155	
-0.401062	
-0.401428	
-0.401367	
-0.401489	
-0.4021	
-0.402893	
-0.40271	
-0.402466	
-0.401978	
-0.401672	
-0.401733	
-0.402283	
-0.401794	
-0.401855	
-0.401855	
-0.401611	
-0.401672	
-0.402283	
-0.401611	
-0.401001	
-0.401062	
-0.40033	
-0.400024	
-0.401306	
-0.400757	
-0.400879	
-0.401245	
-0.401306	
-0.40155	
-0.401611	
-0.401489	
-0.400452	
-0.400696	
-0.400513	
-0.401001	
-0.401001	
-0.399536	
-0.401123	
-0.401245	
-0.401489	
-0.40155	
-0.401428	
-0.399902	
-0.400269	
-0.400818	
-0.400635	
-0.400757	
-0.399658	
-0.40094	
-0.401306	
-0.401489	
-0.40155	
-0.400818	
-0.399536	
-0.400208	
-0.400696	
-0.399536	
-0.400818	
-0.400024	
-0.400818	
-0.400757	
-0.401306	
-0.401917	
-0.401672	
-0.400574	
-0.400574	
-0.401855	
-0.400269	
-0.401123	
-0.400635	
-0.400818	
-0.401001	
-0.401306	
-0.401062	
-0.401428	
-0.400879	
-0.399658	
-0.399902	
-0.400513	
-0.400757	
-0.40094	
-0.400513	
-0.400452	
-0.40094	
-0.401062	
-0.401184	
-0.399231	
-0.399353	
-0.399841	
-0.400146	
-0.398071	
-0.399231	
-0.398193	
-0.399109	
-0.39978	
-0.39978	
-0.398438	
-0.397827	
-0.398621	
-0.397888	
-0.398376	
-0.397522	
-0.398071	
-0.398071	
-0.398438	
-0.39917	
-0.398987	
-0.399048	
-0.39801	
-0.398743	
-0.398621	
-0.398682	
-0.39856	
-0.398804	
-0.398254	
-0.398438	
-0.399719	
-0.399231	
-0.399109	
-0.399353	
-0.399292	
-0.39856	
-0.399231	
-0.399414	
-0.398438	
-0.399353	
-0.399292	
-0.39978	
-0.399597	
-0.40033	
-0.399536	
-0.399231	
-0.398987	
-0.398132	
-0.398132	
-0.398071	
-0.398315	
-0.397339	
-0.398376	
-0.397949	
-0.398865	
-0.397827	
-0.397827	
-0.397949	
-0.397583	
-0.398254	
-0.397949	
-0.397766	
-0.39679	
-0.398376	
-0.3974	
-0.397888	
-0.397705	
-0.397644	
-0.398193	
-0.397949	
-0.397278	
-0.398438	
-0.397217	
-0.396973	
-0.398682	
-0.397949	
-0.397949	
-0.399109	
-0.399536	
-0.399048	
-0.399536	
-0.40033	
-0.400085	
-0.400696	
-0.400452	
-0.400879	
-0.401062	
-0.401428	
-0.402039	
-0.400879	
-0.401001	
-0.401978	
-0.402039	
-0.401367	
-0.400757	
-0.401245	
-0.401611	
-0.401917	
-0.401672	
-0.40155	
-0.400024	
-0.401245	
-0.400879	
-0.401184	
-0.399231	
-0.400208	
-0.398438	
-0.399048	
-0.39917	
-0.398254	
-0.398315	
-0.397949	
-0.398987	
-0.397583	
-0.398376	
-0.396973	
-0.3974	
-0.397217	
-0.397278	
-0.397827	
-0.397278	
-0.396973	
-0.397461	
-0.397522	
-0.396912	
-0.3974	
-0.396179	
-0.396667	
-0.39679	
-0.396179	
-0.397034	
-0.396912	
-0.396423	
-0.396667	
-0.397217	
-0.396423	
-0.396667	
-0.396851	
-0.397095	
-0.396729	
-0.394592	
-0.397522	
-0.396606	
-0.396667	
-0.397644	
-0.39801	
-0.397217	
-0.397217	
-0.397888	
-0.397522	
-0.397583	
-0.397644	
-0.398499	
-0.398865	
-0.398193	
-0.39856	
-0.398499	
-0.398376	
-0.398438	
-0.399719	
-0.397766	
-0.397888	
-0.397766	
-0.398743	
-0.399231	
-0.398132	
-0.397705	
-0.39801	
-0.398621	
-0.397461	
-0.398499	
-0.397827	
-0.397888	
-0.397217	
-0.397217	
-0.396484	
-0.396118	
-0.396606	
-0.395874	
-0.396057	
-0.395874	
-0.396912	
-0.394836	
-0.395508	
-0.39502	
-0.395142	
-0.396729	
-0.396606	
-0.39624	
-0.396545	
-0.396973	
-0.398071	
-0.397583	
-0.397888	
-0.397766	
-0.398254	
-0.397888	
-0.398804	
-0.398987	
-0.398132	
-0.398743	
-0.399109	
-0.399597	
-0.398865	
-0.39917	
-0.398254	
-0.39801	
-0.39801	
-0.398315	
-0.39856	
-0.398499	
-0.398071	
-0.398254	
-0.397217	
-0.398254	
-0.398132	
-0.396423	
-0.396118	
-0.396057	
-0.397095	
-0.3974	
-0.398071	
-0.397339	
-0.397278	
-0.397339	
-0.398438	
-0.397949	
-0.397217	
-0.397339	
-0.396423	
-0.39801	
-0.397766	
-0.398499	
-0.398254	
-0.398804	
-0.398682	
-0.398865	
-0.398743	
-0.397461	
-0.396912	
-0.396118	
-0.396179	
-0.396851	
-0.397217	
-0.396667	
-0.396118	
-0.39624	
-0.394958	
-0.396912	
-0.396362	
-0.39563	
-0.394226	
-0.395264	
-0.395752	
-0.395569	
-0.396179	
-0.395081	
-0.395447	
-0.39563	
-0.396179	
-0.395813	
-0.394897	
-0.395081	
-0.395386	
-0.395752	
-0.395203	
-0.395874	
-0.395569	
-0.395996	
-0.396301	
-0.396851	
-0.396301	
-0.394409	
-0.395386	
-0.395386	
-0.395813	
-0.396301	
-0.396118	
-0.395996	
-0.395935	
-0.396729	
-0.395325	
-0.396606	
-0.395508	
-0.395691	
-0.394165	
-0.395081	
-0.39624	
-0.396484	
-0.397644	
-0.396362	
-0.396729	
-0.396057	
-0.397034	
-0.396973	
-0.396423	
-0.394409	
-0.395691	
-0.396484	
-0.396545	
-0.397217	
-0.3974	
-0.396851	
-0.396973	
-0.397705	
-0.397461	
-0.396667	
-0.395996	
-0.39679	
-0.39679	
-0.396667	
-0.396973	
-0.397095	
-0.397217	
-0.397583	
-0.397278	
-0.397583	
-0.396362	
-0.395874	
-0.395996	
-0.396729	
-0.396545	
-0.39679	
-0.397339	
-0.397095	
-0.397339	
-0.396667	
-0.397095	
-0.396606	
-0.396912	
-0.396057	
-0.397217	
-0.397827	
-0.39801	
-0.398438	
-0.3974	
-0.398132	
-0.398743	
-0.399475	
-0.398132	
-0.39679	
-0.39801	
-0.397949	
-0.398926	
-0.399048	
-0.399597	
-0.398987	
-0.399597	
-0.400391	
-0.400024	
-0.399475	
-0.399292	
-0.39801	
-0.398193	
-0.399353	
-0.399414	
-0.399536	
-0.399475	
-0.398926	
-0.399841	
-0.399109	
-0.400146	
-0.39917	
-0.39856	
-0.397583	
-0.39917	
-0.399536	
-0.399475	
-0.400574	
-0.399597	
-0.399902	
-0.400635	
-0.401184	
-0.399414	
-0.398499	
-0.399353	
-0.399597	
-0.399902	
-0.399658	
-0.399902	
-0.400208	
-0.40094	
-0.401306	
-0.400574	
-0.399658	
-0.399475	
-0.39978	
-0.40033	
-0.400208	
-0.399963	
-0.400513	
-0.400391	
-0.400208	
-0.400696	
-0.399841	
-0.400513	
-0.399841	
-0.400024	
-0.398438	
-0.399902	
-0.40033	
-0.400146	
-0.400452	
-0.400208	
-0.400208	
-0.399841	
-0.401489	
-0.399414	
-0.397034	
-0.399841	
-0.399353	
-0.39917	
-0.399292	
-0.399353	
-0.399109	
-0.398682	
-0.398621	
-0.398315	
-0.3974	
-0.395691	
-0.39679	
-0.395874	
-0.396484	
-0.397705	
-0.397217	
-0.396973	
-0.397461	
-0.397766	
-0.39624	
-0.397888	
-0.395691	
-0.396362	
-0.395752	
-0.397034	
-0.396667	
-0.396851	
-0.398132	
-0.398071	
-0.399292	
-0.398743	
-0.400879	
-0.399597	
-0.399353	
-0.399475	
-0.400208	
-0.400269	
-0.400757	
-0.400513	
-0.40033	
-0.401489	
-0.400513	
-0.400269	
-0.400818	
-0.399963	
-0.400208	
-0.399841	
-0.401489	
-0.401367	
-0.401367	
-0.401917	
-0.401428	
-0.402283	
-0.401367	
-0.402161	
-0.399902	
-0.401672	
-0.400391	
-0.401733	
-0.401611	
-0.401794	
-0.402161	
-0.401978	
-0.402832	
-0.401733	
-0.402771	
-0.400757	
-0.402039	
-0.401001	
-0.40094	
-0.401611	
-0.401428	
-0.400818	
-0.400574	
-0.400818	
-0.399536	
-0.398987	
-0.399658	
-0.398499	
-0.399414	
-0.398499	
-0.399536	
-0.399841	
-0.399414	
-0.400085	
-0.400574	
-0.40094	
-0.399841	
-0.400757	
-0.399048	
-0.400085	
-0.399109	
-0.400452	
-0.400146	
-0.40033	
-0.40155	
-0.40094	
-0.401794	
-0.401062	
-0.402161	
-0.400513	
-0.401001	
-0.401367	
-0.400818	
-0.4021	
-0.401794	
-0.401978	
-0.401855	
-0.403381	
-0.402161	
-0.401062	
-0.401855	
-0.401917	
-0.401794	
-0.401184	
-0.401184	
-0.401062	
-0.400879	
-0.401062	
-0.401367	
-0.399475	
-0.398621	
-0.400085	
-0.399475	
-0.399231	
-0.398682	
-0.398804	
-0.399109	
-0.400146	
-0.400757	
-0.40033	
-0.399475	
-0.399231	
-0.400085	
-0.399292	
-0.39978	
-0.399719	
-0.399475	
-0.400208	
-0.40033	
-0.400818	
-0.401001	
-0.401245	
-0.400635	
-0.400635	
-0.399475	
-0.400818	
-0.400208	
-0.400208	
-0.400513	
-0.400513	
-0.400513	
-0.401245	
-0.402161	
-0.399902	
-0.399475	
-0.39978	
-0.400208	
-0.399841	
-0.39856	
-0.398804	
-0.400391	
-0.400879	
-0.401184	
-0.401489	
-0.40094	
-0.401001	
-0.402039	
-0.401978	
-0.401611	
-0.401245	
-0.401611	
-0.40271	
-0.402344	
-0.402832	
-0.403259	
-0.403809	
-0.402466	
-0.402954	
-0.402649	
-0.402771	
-0.403015	
-0.403076	
-0.403198	
-0.40271	
-0.403198	
-0.402832	
-0.402771	
-0.402771	
-0.401489	
-0.401184	
-0.401917	
-0.401917	
-0.400757	
-0.401245	
-0.401978	
-0.402283	
-0.403503	
-0.402405	
-0.40155	
-0.40094	
-0.402039	
-0.401367	
-0.401855	
-0.401489	
-0.401367	
-0.40155	
-0.400879	
-0.402466	
-0.402527	
-0.402161	
-0.40094	
-0.401733	
-0.401367	
-0.401184	
-0.401489	
-0.400391	
-0.401062	
-0.401672	
-0.401489	
-0.401428	
-0.40155	
-0.400696	
-0.40094	
-0.401672	
-0.401306	
-0.400696	
-0.400085	
-0.399292	
-0.400574	
-0.40094	
-0.401123	
-0.402588	
-0.40155	
-0.400574	
-0.401489	
-0.401001	
-0.401306	
-0.401245	
-0.40094	
-0.40155	
-0.40155	
-0.402222	
-0.401733	
-0.401367	
-0.400696	
-0.401489	
-0.401489	
-0.401062	
-0.400818	
-0.400146	
-0.400879	
-0.401184	
-0.401184	
-0.400757	
-0.401123	
-0.400269	
-0.400208	
-0.400635	
-0.400269	
-0.399841	
-0.398987	
-0.399353	
-0.399658	
-0.399414	
-0.399292	
-0.400085	
-0.398682	
-0.39801	
-0.397583	
-0.397888	
-0.39801	
-0.397827	
-0.396667	
-0.398193	
-0.398804	
-0.398254	
-0.399109	
-0.39917	
-0.397156	
-0.39856	
-0.39978	
-0.39856	
-0.398376	
-0.398254	
-0.398254	
-0.398743	
-0.399109	
-0.398743	
-0.399963	
-0.397827	
-0.398193	
-0.398438	
-0.399353	
-0.399109	
-0.398438	
-0.397949	
-0.398987	
-0.399597	
-0.398804	
-0.399719	
-0.398315	
-0.399048	
-0.398254	
-0.397522	
-0.398132	
-0.397339	
-0.396179	
-0.397949	
-0.398071	
-0.397156	
-0.397583	
-0.397827	
-0.397034	
-0.397583	
-0.397766	
-0.396729	
-0.397522	
-0.396606	
-0.397278	
-0.397461	
-0.397034	
-0.397217	
-0.398132	
-0.396606	
-0.397278	
-0.397278	
-0.39624	
-0.397278	
-0.397583	
-0.396484	
-0.397949	
-0.398254	
-0.3974	
-0.398193	
-0.397278	
-0.397888	
-0.398376	
-0.39917	
-0.399109	
-0.39917	
-0.398743	
-0.400269	
-0.401062	
-0.400085	
-0.400818	
-0.401001	
-0.399841	
-0.400452	
-0.399841	
-0.400696	
-0.40033	
-0.400513	
-0.399597	
-0.400879	
-0.400696	
-0.400391	
-0.401794	
-0.399963	
-0.399658	
-0.400085	
-0.400696	
-0.399475	
-0.398621	
-0.397949	
-0.398743	
-0.398499	
-0.397522	
-0.397705	
-0.396606	
-0.396851	
-0.396606	
-0.395874	
-0.396545	
-0.396851	
-0.395691	
-0.395752	
-0.397095	
-0.396179	
-0.396179	
-0.395874	
-0.396118	
-0.395935	
-0.394592	
-0.39624	
-0.395996	
-0.395264	
-0.395081	
-0.395874	
-0.395691	
-0.395508	
-0.397278	
-0.394653	
-0.395386	
-0.395874	
-0.396667	
-0.395447	
-0.394958	
-0.396057	
-0.396301	
-0.396729	
-0.395691	
-0.396729	
-0.395874	
-0.396057	
-0.396057	
-0.394958	
-0.397034	
-0.396729	
-0.396118	
-0.396362	
-0.397583	
-0.397095	
-0.397644	
-0.398743	
-0.396606	
-0.397339	
-0.397095	
-0.397095	
-0.396973	
-0.396667	
-0.396545	
-0.3974	
-0.397522	
-0.396301	
-0.397766	
-0.395935	
-0.396545	
-0.396912	
-0.395874	
-0.395996	
-0.396057	
-0.395386	
-0.395569	
-0.395996	
-0.395081	
-0.394836	
-0.394958	
-0.394775	
-0.395264	
-0.393616	
-0.393921	
-0.394958	
-0.39447	
-0.39447	
-0.394897	
-0.394714	
-0.394409	
-0.395813	
-0.395447	
-0.39679	
-0.39624	
-0.396729	
-0.39679	
-0.395874	
-0.396301	
-0.39679	
-0.397827	
-0.396912	
-0.397522	
-0.397278	
-0.396667	
-0.396973	
-0.397705	
-0.396362	
-0.395935	
-0.396606	
-0.396545	
-0.396729	
-0.396973	
-0.39679	
-0.396362	
-0.396057	
-0.396912	
-0.394714	
-0.395386	
-0.39502	
-0.395142	
-0.39502	
-0.396118	
-0.396301	
-0.395813	
-0.396851	
-0.395874	
-0.396851	
-0.39624	
-0.396484	
-0.395386	
-0.396057	
-0.395386	
-0.396667	
-0.396667	
-0.396606	
-0.397278	
-0.396423	
-0.395508	
-0.395874	
-0.39679	
-0.395203	
-0.393921	
-0.394836	
-0.394958	
-0.39502	
-0.395447	
-0.394653	
-0.394165	
-0.394348	
-0.394592	
-0.394165	
-0.394104	
-0.392883	
-0.393799	
-0.393921	
-0.393738	
-0.393799	
-0.393372	
-0.393921	
-0.393494	
-0.39325	
-0.392883	
-0.394043	
-0.392944	
-0.392761	
-0.393005	
-0.393738	
-0.393982	
-0.394653	
-0.394836	
-0.393738	
-0.394409	
-0.394592	
-0.394958	
-0.394348	
-0.393738	
-0.393738	
-0.394043	
-0.394226	
-0.394714	
-0.394775	
-0.394348	
-0.394592	
-0.394409	
-0.394531	
-0.394348	
-0.393677	
-0.394043	
-0.394165	
-0.394043	
-0.394653	
-0.395081	
-0.394653	
-0.394226	
-0.393921	
-0.394348	
-0.395325	
-0.393799	
-0.39386	
-0.393677	
-0.394653	
-0.394958	
-0.395752	
-0.395569	
-0.395081	
-0.395569	
-0.395386	
-0.395996	
-0.394531	
-0.394775	
-0.394836	
-0.395691	
-0.39502	
-0.394836	
-0.395142	
-0.395081	
-0.395264	
-0.39447	
-0.394714	
-0.394775	
-0.394226	
-0.394165	
-0.394531	
-0.394287	
-0.394714	
-0.395691	
-0.396057	
-0.394836	
-0.39447	
-0.395081	
-0.395081	
-0.394165	
-0.394287	
-0.395508	
-0.395752	
-0.395996	
-0.396729	
-0.396301	
-0.396301	
-0.397095	
-0.397217	
-0.396484	
-0.396301	
-0.396912	
-0.39624	
-0.396851	
-0.397034	
-0.397827	
-0.397156	
-0.397461	
-0.397705	
-0.397278	
-0.396729	
-0.397156	
-0.397156	
-0.396484	
-0.396667	
-0.396912	
-0.397583	
-0.397278	
-0.397461	
-0.397095	
-0.396545	
-0.3974	
-0.397461	
-0.396362	
-0.395813	
-0.397095	
-0.397217	
-0.397583	
-0.39917	
-0.398071	
-0.397522	
-0.398315	
-0.397766	
-0.395752	
-0.397278	
-0.397827	
-0.396362	
-0.397644	
-0.397827	
-0.398132	
-0.397888	
-0.398743	
-0.398804	
-0.399414	
-0.398987	
-0.397827	
-0.396423	
-0.397339	
-0.397827	
-0.397888	
-0.397644	
-0.398193	
-0.398682	
-0.398438	
-0.397888	
-0.398315	
-0.397522	
-0.397461	
-0.397522	
-0.397888	
-0.397949	
-0.397766	
-0.398743	
-0.39801	
-0.398071	
-0.398071	
-0.398132	
-0.397217	
-0.397034	
-0.395935	
-0.396362	
-0.396606	
-0.396606	
-0.396301	
-0.395996	
-0.395996	
-0.395264	
-0.396484	
-0.395264	
-0.39447	
-0.394348	
-0.394165	
-0.394287	
-0.394958	
-0.394714	
-0.394775	
-0.394592	
-0.394714	
-0.394714	
-0.394653	
-0.393616	
-0.394104	
-0.394897	
-0.394226	
-0.395081	
-0.395752	
-0.39679	
-0.396729	
-0.397644	
-0.397522	
-0.397766	
-0.398254	
-0.397034	
-0.396606	
-0.397644	
-0.398193	
-0.398315	
-0.398254	
-0.398132	
-0.399292	
-0.39917	
-0.398499	
-0.39917	
-0.398743	
-0.397644	
-0.398743	
-0.39917	
-0.398804	
-0.398987	
-0.399719	
-0.399658	
-0.399353	
-0.399414	
-0.399048	
-0.398438	
-0.399048	
-0.398926	
-0.398743	
-0.399292	
-0.399475	
-0.400146	
-0.399292	
-0.400269	
-0.400391	
-0.39978	
-0.398865	
-0.398499	
-0.397888	
-0.398254	
-0.39856	
-0.398071	
-0.397705	
-0.397949	
-0.397827	
-0.397583	
-0.397522	
-0.397156	
-0.396912	
-0.396851	
-0.397461	
-0.396301	
-0.397156	
-0.398071	
-0.398438	
-0.3974	
-0.398254	
-0.398193	
-0.398071	
-0.397644	
-0.396667	
-0.397278	
-0.397827	
-0.398376	
-0.398438	
-0.399109	
-0.398987	
-0.400513	
-0.399902	
-0.399048	
-0.399414	
-0.398987	
-0.399109	
-0.399536	
	
