E:\DOCUMENTS AND SETTINGS\JPOTAS\MEUS DOCUMENTOS\UFRJ\RSCI-BM 12 WK SERIES\070720-RSCI-BM-04\RSCI-BM-04-LEMG\070720-RSCI-BM-LEMG-0014.ACQ
0.025000 msec/sample
1 channel
Analog input
Volts
CH1	
2000	
-0.393555	
-0.393188	
-0.392944	
-0.393066	
-0.393005	
-0.393799	
-0.393005	
-0.394104	
-0.393616	
-0.392639	
-0.393066	
-0.393066	
-0.392456	
-0.392517	
-0.392334	
-0.391907	
-0.394165	
-0.392761	
-0.393921	
-0.393799	
-0.393372	
-0.393433	
-0.393188	
-0.393311	
-0.393555	
-0.39386	
-0.392639	
-0.394226	
-0.393982	
-0.394897	
-0.395081	
-0.394714	
-0.394714	
-0.394531	
-0.395569	
-0.395508	
-0.395386	
-0.394836	
-0.396667	
-0.395813	
-0.396484	
-0.39679	
-0.396423	
-0.396606	
-0.396118	
-0.39679	
-0.396545	
-0.396851	
-0.395935	
-0.396912	
-0.396606	
-0.397095	
-0.396484	
-0.396362	
-0.397278	
-0.396545	
-0.396423	
-0.39624	
-0.396301	
-0.39447	
-0.395386	
-0.395691	
-0.396362	
-0.395508	
-0.394714	
-0.395569	
-0.394897	
-0.394958	
-0.394348	
-0.395264	
-0.394043	
-0.394592	
-0.395264	
-0.395752	
-0.394897	
-0.393555	
-0.395081	
-0.39447	
-0.395447	
-0.394287	
-0.394653	
-0.393311	
-0.394897	
-0.394592	
-0.394775	
-0.394287	
-0.392822	
-0.394226	
-0.39386	
-0.393616	
-0.393188	
-0.393311	
-0.392578	
-0.393677	
-0.394592	
-0.393738	
-0.393494	
-0.392944	
-0.393433	
-0.392761	
-0.39209	
-0.392029	
-0.39325	
-0.391541	
-0.393127	
-0.393311	
-0.393616	
-0.393188	
-0.392883	
-0.39386	
-0.393433	
-0.393188	
-0.393677	
-0.394714	
-0.39325	
-0.395203	
-0.396606	
-0.395752	
-0.396912	
-0.397217	
-0.397278	
-0.396545	
-0.396851	
-0.397705	
-0.398254	
-0.39679	
-0.397705	
-0.398438	
-0.3974	
-0.397705	
-0.397766	
-0.397156	
-0.395996	
-0.395935	
-0.396301	
-0.396362	
-0.395447	
-0.39563	
-0.395996	
-0.395264	
-0.395691	
-0.395142	
-0.39386	
-0.39325	
-0.393005	
-0.392273	
-0.391907	
-0.390625	
-0.391724	
-0.391052	
-0.390991	
-0.39093	
-0.390808	
-0.389587	
-0.388855	
-0.389526	
-0.389709	
-0.389526	
-0.389343	
-0.389404	
-0.38916	
-0.389343	
-0.390076	
-0.390198	
-0.388977	
-0.388367	
-0.389343	
-0.39032	
-0.390564	
-0.390076	
-0.391052	
-0.390991	
-0.391479	
-0.392578	
-0.392212	
-0.391235	
-0.391602	
-0.391541	
-0.392029	
-0.392273	
-0.392822	
-0.393005	
-0.39325	
-0.393372	
-0.394165	
-0.39386	
-0.392761	
-0.393494	
-0.392761	
-0.394165	
-0.394348	
-0.393677	
-0.393982	
-0.394592	
-0.394714	
-0.395935	
-0.394531	
-0.366028	
-0.3703	
-0.375854	
-0.377563	
-0.378296	
-0.378662	
-0.411194	
-0.402222	
-0.397827	
-0.396484	
-0.395203	
-0.393677	
-0.393616	
-0.394348	
-0.393188	
-0.392761	
-0.392273	
-0.392639	
-0.391968	
-0.39209	
-0.392761	
-0.391113	
-0.389709	
-0.390076	
-0.391724	
-0.390137	
-0.391174	
-0.391113	
-0.390686	
-0.39093	
-0.391479	
-0.393433	
-0.391907	
-0.390747	
-0.391968	
-0.3927	
-0.391296	
-0.392273	
-0.392334	
-0.392578	
-0.392822	
-0.394043	
-0.394653	
-0.392883	
-0.391968	
-0.392334	
-0.393677	
-0.391663	
-0.392456	
-0.391479	
-0.391541	
-0.392334	
-0.393066	
-0.395203	
-0.39447	
-0.395264	
-0.397156	
-0.400757	
-0.403137	
-0.409058	
-0.413391	
-0.419556	
-0.425354	
-0.431213	
-0.43689	
-0.441833	
-0.447937	
-0.454834	
-0.462463	
-0.47168	
-0.479797	
-0.487244	
-0.493835	
-0.501038	
-0.505371	
-0.509216	
-0.513733	
-0.515747	
-0.518982	
-0.519226	
-0.519958	
-0.519226	
-0.519287	
-0.519104	
-0.518433	
-0.51825	
-0.51593	
-0.513916	
-0.512451	
-0.510681	
-0.507141	
-0.50415	
-0.499207	
-0.497314	
-0.493958	
-0.490906	
-0.489014	
-0.485718	
-0.484497	
-0.483276	
-0.48407	
-0.483154	
-0.483643	
-0.484802	
-0.486145	
-0.487305	
-0.489014	
-0.492676	
-0.492188	
-0.492493	
-0.492981	
-0.493652	
-0.491638	
-0.490417	
-0.487976	
-0.484863	
-0.482178	
-0.478821	
-0.476624	
-0.472229	
-0.468079	
-0.465393	
-0.462463	
-0.458801	
-0.457275	
-0.455566	
-0.454956	
-0.454285	
-0.453369	
-0.453979	
-0.451599	
-0.44989	
-0.449707	
-0.447632	
-0.445496	
-0.44397	
-0.441528	
-0.438477	
-0.435303	
-0.431152	
-0.427917	
-0.422241	
-0.417114	
-0.410706	
-0.40625	
-0.399475	
-0.393616	
-0.388123	
-0.381592	
-0.375854	
-0.369507	
-0.364197	
-0.354797	
-0.34668	
-0.339905	
-0.330872	
-0.322144	
-0.314636	
-0.306335	
-0.297852	
-0.289856	
-0.281555	
-0.274841	
-0.265808	
-0.257874	
-0.252502	
-0.246948	
-0.241699	
-0.239258	
-0.238403	
-0.237305	
-0.237915	
-0.237976	
-0.239563	
-0.240295	
-0.242493	
-0.242432	
-0.246277	
-0.250305	
-0.254395	
-0.258545	
-0.263794	
-0.269592	
-0.276306	
-0.28064	
-0.285522	
-0.292419	
-0.29834	
-0.303711	
-0.308472	
-0.31427	
-0.31897	
-0.323059	
-0.326721	
-0.330566	
-0.334778	
-0.338135	
-0.340027	
-0.341919	
-0.344543	
-0.329224	
-0.326294	
-0.33374	
-0.337463	
-0.34137	
-0.341431	
-0.373352	
-0.368225	
-0.364868	
-0.363037	
-0.364258	
-0.365417	
-0.366028	
-0.367859	
-0.367371	
-0.367615	
-0.367981	
-0.369385	
-0.368103	
-0.369873	
-0.370239	
-0.370911	
-0.371643	
-0.372437	
-0.372559	
-0.374268	
-0.37262	
-0.37323	
-0.373108	
-0.373474	
-0.373352	
-0.37384	
-0.374207	
-0.374634	
-0.375488	
-0.375793	
-0.376099	
-0.376465	
-0.376404	
-0.374573	
-0.37561	
-0.375549	
-0.376526	
-0.376709	
-0.377075	
-0.37616	
-0.377014	
-0.376831	
-0.375549	
-0.374817	
-0.375183	
-0.375549	
-0.375916	
-0.376953	
-0.377991	
-0.38031	
-0.382202	
-0.386353	
-0.38916	
-0.395264	
-0.397522	
-0.404053	
-0.408936	
-0.415283	
-0.420288	
-0.426575	
-0.432495	
-0.44043	
-0.447021	
-0.454834	
-0.460815	
-0.467957	
-0.474365	
-0.479675	
-0.484009	
-0.487488	
-0.490784	
-0.492371	
-0.494263	
-0.493469	
-0.49353	
-0.492981	
-0.493408	
-0.492004	
-0.490356	
-0.488098	
-0.485596	
-0.483643	
-0.480713	
-0.479126	
-0.474243	
-0.471863	
-0.468323	
-0.467224	
-0.467773	
-0.467285	
-0.46759	
-0.468506	
-0.469666	
-0.471497	
-0.472961	
-0.472595	
-0.474731	
-0.475037	
-0.476807	
-0.478394	
-0.477478	
-0.47644	
-0.474731	
-0.471802	
-0.469971	
-0.467346	
-0.462158	
-0.459351	
-0.4552	
-0.453796	
-0.450562	
-0.447693	
-0.445313	
-0.444702	
-0.443237	
-0.442749	
-0.441711	
-0.438843	
-0.436584	
-0.43396	
-0.433655	
-0.43219	
-0.429626	
-0.42688	
-0.424011	
-0.419617	
-0.416443	
-0.412659	
-0.405884	
-0.399536	
-0.394043	
-0.389771	
-0.383789	
-0.376831	
-0.369873	
-0.363647	
-0.354736	
-0.346069	
-0.337891	
-0.327698	
-0.317505	
-0.308716	
-0.302063	
-0.293274	
-0.28479	
-0.277222	
-0.270874	
-0.264099	
-0.258484	
-0.253906	
-0.248108	
-0.244751	
-0.240784	
-0.239807	
-0.238647	
-0.238098	
-0.238647	
-0.239868	
-0.241211	
-0.242737	
-0.243591	
-0.24646	
-0.249084	
-0.253479	
-0.257629	
-0.263306	
-0.269043	
-0.274048	
-0.279602	
-0.2854	
-0.292542	
-0.296326	
-0.301208	
-0.305298	
-0.312195	
-0.316528	
-0.320618	
-0.324524	
-0.328674	
-0.331543	
-0.336243	
-0.335754	
-0.34021	
-0.342224	
-0.34491	
-0.347046	
-0.349548	
-0.351013	
-0.354431	
-0.355286	
-0.356812	
-0.357727	
-0.359497	
-0.360229	
-0.361328	
-0.363892	
-0.364319	
-0.36499	
-0.367371	
-0.36676	
-0.367188	
-0.368652	
-0.368286	
-0.368896	
-0.36853	
-0.370361	
-0.370483	
-0.370667	
-0.372742	
-0.371704	
-0.372375	
-0.372009	
-0.374023	
-0.373596	
-0.373291	
-0.373413	
-0.374146	
-0.374756	
-0.375854	
-0.375671	
-0.376099	
-0.376404	
-0.37854	
-0.378174	
-0.377625	
-0.377075	
-0.378235	
-0.379456	
-0.380188	
-0.382202	
-0.381287	
-0.381531	
-0.381042	
-0.383789	
-0.382751	
-0.383179	
-0.382446	
-0.383057	
-0.383667	
-0.383667	
-0.38385	
-0.384094	
-0.384155	
-0.383606	
-0.385742	
-0.384033	
-0.383728	
-0.38324	
-0.384033	
-0.383789	
-0.38446	
-0.383362	
-0.383545	
-0.382446	
-0.383972	
-0.383301	
-0.382141	
-0.381775	
-0.380371	
-0.382202	
-0.381958	
-0.381897	
-0.381165	
-0.380981	
-0.380798	
-0.382507	
-0.381897	
-0.381714	
-0.381592	
-0.382324	
-0.382019	
-0.383667	
-0.382141	
-0.381897	
-0.381104	
-0.383118	
-0.382874	
-0.382141	
-0.381226	
-0.382324	
-0.383057	
-0.383362	
-0.38324	
-0.383728	
-0.383057	
-0.384521	
-0.38623	
-0.384277	
-0.383789	
-0.383423	
-0.384705	
-0.386108	
-0.386108	
-0.385803	
-0.385681	
-0.384277	
-0.38678	
-0.386475	
-0.387207	
-0.387024	
-0.387817	
-0.388	
-0.389832	
-0.38855	
-0.38855	
-0.38855	
-0.389587	
-0.390259	
-0.389038	
-0.388977	
-0.387878	
-0.389709	
-0.389954	
-0.389954	
-0.389832	
-0.389832	
-0.38855	
-0.391052	
-0.390198	
-0.389954	
-0.388611	
-0.390564	
-0.389526	
-0.390381	
-0.389404	
-0.389343	
-0.388733	
-0.389404	
-0.390808	
-0.389099	
-0.389343	
-0.387451	
-0.389709	
-0.389893	
-0.390198	
-0.389526	
-0.389709	
-0.389221	
-0.390564	
-0.389526	
-0.389648	
-0.389404	
-0.388855	
-0.389954	
-0.390686	
-0.390442	
-0.389526	
-0.389526	
-0.388489	
-0.390808	
-0.389587	
-0.389404	
-0.387939	
-0.389709	
-0.389648	
-0.390259	
-0.389526	
-0.389465	
-0.388367	
-0.389709	
-0.390442	
-0.389648	
-0.388977	
-0.388611	
-0.38916	
-0.389648	
-0.389771	
-0.389099	
-0.389038	
-0.389832	
-0.390442	
-0.391479	
-0.39032	
-0.389404	
-0.389587	
-0.391113	
-0.392273	
-0.392151	
-0.391541	
-0.391968	
-0.392517	
-0.393616	
-0.394653	
-0.394226	
-0.394775	
-0.393433	
-0.395203	
-0.395691	
-0.39563	
-0.395081	
-0.394043	
-0.394775	
-0.395813	
-0.395386	
-0.393372	
-0.394104	
-0.393616	
-0.394897	
-0.393921	
-0.394348	
-0.393738	
-0.393799	
-0.393127	
-0.394226	
-0.392456	
-0.392334	
-0.391479	
-0.391541	
-0.391296	
-0.391113	
-0.389832	
-0.388733	
-0.389404	
-0.389221	
-0.388916	
-0.387634	
-0.388306	
-0.387817	
-0.38855	
-0.388611	
-0.389038	
-0.387573	
-0.388184	
-0.38739	
-0.388489	
-0.388306	
-0.387573	
-0.387207	
-0.387207	
-0.388428	
-0.388794	
-0.388977	
-0.388184	
-0.390259	
-0.389832	
-0.390869	
-0.389587	
-0.390686	
-0.389709	
-0.391479	
-0.391052	
-0.391235	
-0.390869	
-0.39209	
-0.391846	
-0.392639	
-0.393311	
-0.391479	
-0.392639	
-0.392761	
-0.392761	
-0.393555	
-0.394104	
-0.392578	
-0.39325	
-0.39325	
-0.394287	
-0.394592	
-0.394043	
-0.393555	
-0.393066	
-0.393555	
-0.393921	
-0.394287	
-0.393555	
-0.394165	
-0.393738	
-0.394897	
-0.393494	
-0.393494	
-0.392517	
-0.392639	
-0.393372	
-0.393188	
-0.392639	
-0.392273	
-0.392944	
-0.392395	
-0.391968	
-0.391296	
-0.390991	
-0.390564	
-0.390747	
-0.390442	
-0.390564	
-0.391724	
-0.390808	
-0.391418	
-0.390442	
-0.391174	
-0.391357	
-0.391663	
-0.391602	
-0.391113	
-0.391846	
-0.391663	
-0.39325	
-0.392273	
-0.392883	
-0.39209	
-0.39209	
-0.392151	
-0.392212	
-0.392761	
-0.392029	
-0.392395	
-0.391907	
-0.392944	
-0.39209	
-0.392944	
-0.393005	
-0.393555	
-0.392517	
-0.391846	
-0.392456	
-0.392273	
-0.392395	
-0.392639	
-0.393982	
-0.392944	
-0.394104	
-0.393188	
-0.393738	
-0.392944	
-0.394165	
-0.392578	
-0.394287	
-0.393982	
-0.393738	
-0.395142	
-0.395142	
-0.395691	
-0.395325	
-0.395752	
-0.394958	
-0.396057	
-0.395874	
-0.395935	
-0.39502	
-0.396606	
-0.396973	
-0.396606	
-0.397766	
-0.397095	
-0.39624	
-0.39502	
-0.395996	
-0.396423	
-0.395996	
-0.395935	
-0.396118	
-0.39624	
-0.395813	
-0.395813	
-0.395508	
-0.394287	
-0.394348	
-0.394226	
-0.393921	
-0.393311	
-0.393494	
-0.393372	
-0.393005	
-0.392883	
-0.392334	
-0.39093	
-0.390808	
-0.391052	
-0.390503	
-0.390259	
-0.389526	
-0.390747	
-0.391052	
-0.391479	
-0.391663	
-0.391479	
-0.390503	
-0.391174	
-0.391602	
-0.391785	
-0.392029	
-0.391968	
-0.392761	
-0.3927	
-0.393433	
-0.394287	
-0.394409	
-0.393982	
-0.394287	
-0.394653	
-0.394409	
-0.395325	
-0.396057	
-0.395935	
-0.396301	
-0.397278	
-0.397339	
-0.396667	
-0.395874	
-0.395935	
-0.395569	
-0.396606	
-0.39679	
-0.39679	
-0.397461	
-0.397217	
-0.398071	
-0.398132	
-0.397156	
-0.397034	
-0.397888	
-0.397461	
-0.397278	
-0.397278	
-0.397522	
-0.397217	
-0.397583	
-0.398071	
-0.397949	
-0.396973	
-0.396301	
-0.397644	
-0.397156	
-0.39679	
-0.396301	
-0.396606	
-0.396606	
-0.396606	
-0.397339	
-0.396912	
-0.395752	
-0.394714	
-0.394836	
-0.394775	
-0.394531	
-0.394287	
-0.394287	
-0.394226	
-0.394653	
-0.395264	
-0.395447	
-0.393677	
-0.393677	
-0.393677	
-0.39386	
-0.394409	
-0.394287	
-0.394287	
-0.394348	
-0.395142	
-0.395813	
-0.395935	
-0.393677	
-0.393982	
-0.394409	
-0.395142	
-0.395325	
-0.394409	
-0.394836	
-0.395386	
-0.396362	
-0.396973	
-0.396545	
-0.394836	
-0.395508	
-0.394592	
-0.395996	
-0.395874	
-0.395081	
-0.39563	
-0.39624	
-0.395752	
-0.397217	
-0.396667	
-0.395813	
-0.395386	
-0.394531	
-0.39563	
-0.395996	
-0.395203	
-0.396667	
-0.397156	
-0.397095	
-0.397827	
-0.396606	
-0.3974	
-0.396423	
-0.397095	
-0.397461	
-0.396973	
-0.395935	
-0.397217	
-0.398376	
-0.398071	
-0.398987	
-0.3974	
-0.397888	
-0.396729	
-0.398132	
-0.398193	
-0.397888	
-0.396729	
-0.397888	
-0.398682	
-0.397888	
-0.398621	
-0.396912	
-0.397156	
-0.395569	
-0.397095	
-0.396362	
-0.395935	
-0.395264	
-0.395996	
-0.39563	
-0.394897	
-0.395386	
-0.392578	
-0.393127	
-0.392212	
-0.392944	
-0.392517	
-0.392883	
-0.392639	
-0.394043	
-0.393677	
-0.393616	
-0.394897	
-0.393005	
-0.393921	
-0.392822	
-0.394592	
-0.394714	
-0.394287	
-0.394714	
-0.395691	
-0.395935	
-0.395996	
-0.39679	
-0.396301	
-0.397339	
-0.397461	
-0.398132	
-0.398865	
-0.399353	
-0.39978	
-0.400208	
-0.400452	
-0.401062	
-0.400757	
-0.400513	
-0.400696	
-0.400391	
-0.400635	
-0.401184	
-0.401855	
-0.401489	
-0.401794	
-0.401794	
-0.403076	
-0.402283	
-0.401733	
-0.401123	
-0.401489	
-0.400879	
-0.401001	
-0.400635	
-0.39978	
-0.400452	
-0.400085	
-0.400818	
-0.399414	
-0.399414	
-0.398804	
-0.399597	
-0.399597	
-0.399292	
-0.398376	
-0.398315	
-0.398621	
-0.397949	
-0.399597	
-0.397644	
-0.39801	
-0.397095	
-0.397644	
-0.396973	
-0.397217	
-0.396606	
-0.396729	
-0.397888	
-0.39679	
-0.39856	
-0.396851	
-0.39679	
-0.395874	
-0.396729	
-0.396484	
-0.3974	
-0.396667	
-0.396912	
-0.398132	
-0.398071	
-0.398315	
-0.397461	
-0.397644	
-0.397217	
-0.398987	
-0.398132	
-0.398499	
-0.397949	
-0.398865	
-0.400513	
-0.400024	
-0.400696	
-0.399963	
-0.399475	
-0.400085	
-0.400146	
-0.399963	
-0.399963	
-0.39917	
-0.400269	
-0.400696	
-0.400452	
-0.400757	
-0.399841	
-0.399048	
-0.398865	
-0.399048	
-0.398804	
-0.39917	
-0.398621	
-0.399109	
-0.399658	
-0.399841	
-0.399048	
-0.39856	
-0.397644	
-0.398132	
-0.397949	
-0.398682	
-0.398193	
-0.398132	
-0.398315	
-0.39917	
-0.398804	
-0.398743	
-0.398438	
-0.397461	
-0.39801	
-0.397888	
-0.39801	
-0.397827	
-0.397766	
-0.397949	
-0.398682	
-0.397949	
-0.397583	
-0.397034	
-0.395569	
-0.396606	
-0.395691	
-0.396057	
-0.395935	
-0.395813	
-0.395386	
-0.395691	
-0.395386	
-0.395264	
-0.394653	
-0.394592	
-0.394836	
-0.393799	
-0.394226	
-0.394165	
-0.394043	
-0.394714	
-0.395569	
-0.394165	
-0.394653	
-0.394226	
-0.394592	
-0.395081	
-0.394409	
-0.395691	
-0.395081	
-0.395752	
-0.396057	
-0.397217	
-0.396484	
-0.396851	
-0.39624	
-0.397339	
-0.397766	
-0.397034	
-0.398499	
-0.398682	
-0.399414	
-0.39978	
-0.40094	
-0.400208	
-0.400146	
-0.399048	
-0.400024	
-0.400269	
-0.39917	
-0.399841	
-0.399902	
-0.399963	
-0.399719	
-0.400452	
-0.399292	
-0.399475	
-0.398438	
-0.398621	
-0.399109	
-0.397705	
-0.397949	
-0.397034	
-0.397034	
-0.396729	
-0.396973	
-0.396057	
-0.395508	
-0.394714	
-0.394958	
-0.395203	
-0.393188	
-0.394531	
-0.394653	
-0.394409	
-0.395264	
-0.395081	
-0.39386	
-0.39447	
-0.393677	
-0.393921	
-0.394592	
-0.392944	
-0.393555	
-0.393005	
-0.39386	
-0.394165	
-0.394165	
-0.393433	
-0.394043	
-0.39325	
-0.393738	
-0.394592	
-0.392395	
-0.394165	
-0.393555	
-0.394104	
-0.395264	
-0.39502	
-0.394592	
-0.395325	
-0.394348	
-0.394775	
-0.395081	
-0.394409	
-0.39563	
-0.394897	
-0.395935	
-0.397278	
-0.397705	
-0.39679	
-0.397156	
-0.39679	
-0.396912	
-0.396851	
-0.396118	
-0.397034	
-0.396484	
-0.396851	
-0.397583	
-0.398682	
-0.397949	
-0.397705	
-0.396912	
-0.397583	
-0.39624	
-0.396729	
-0.397278	
-0.395996	
-0.397461	
-0.397644	
-0.397583	
-0.396301	
-0.395752	
-0.395813	
-0.396423	
-0.394836	
-0.395752	
-0.395569	
-0.395081	
-0.395935	
-0.395996	
-0.39563	
-0.395264	
-0.395508	
-0.395142	
-0.395325	
-0.394775	
-0.39502	
-0.39502	
-0.394897	
-0.395325	
-0.395691	
-0.396057	
-0.395142	
-0.394531	
-0.394531	
-0.394226	
-0.394287	
-0.394531	
-0.394043	
-0.394287	
-0.394226	
-0.393921	
-0.394287	
-0.394775	
-0.394043	
-0.394165	
-0.393738	
-0.393372	
-0.393799	
-0.393188	
-0.39325	
-0.393677	
-0.393066	
-0.393677	
-0.393799	
-0.393066	
-0.393005	
-0.393066	
-0.393311	
-0.393799	
-0.393616	
-0.393677	
-0.394348	
-0.39447	
-0.395081	
-0.395325	
-0.394592	
-0.395203	
-0.395874	
-0.396301	
-0.39679	
-0.397278	
-0.397766	
-0.398071	
-0.398621	
-0.398743	
-0.398254	
-0.397705	
-0.397888	
-0.397461	
-0.397644	
-0.397522	
-0.396851	
-0.397583	
-0.397034	
-0.396973	
-0.397034	
-0.396851	
-0.395996	
-0.395508	
-0.394958	
-0.39447	
-0.394592	
-0.393372	
-0.393555	
-0.39325	
-0.393616	
-0.393127	
-0.391724	
-0.390686	
-0.390442	
-0.390137	
-0.389404	
-0.390076	
-0.389038	
-0.390015	
-0.390137	
-0.389954	
-0.390076	
-0.388977	
-0.388489	
-0.389099	
-0.388977	
-0.388245	
-0.388672	
-0.387939	
-0.388977	
-0.389587	
-0.390442	
-0.39093	
-0.39032	
-0.390747	
-0.390564	
-0.390442	
-0.390686	
-0.391113	
-0.391418	
-0.391907	
-0.392029	
-0.392578	
-0.393188	
-0.392273	
-0.3927	
-0.392761	
-0.393005	
-0.393127	
-0.393311	
-0.393188	
-0.393555	
-0.394165	
-0.394226	
-0.394714	
-0.393921	
-0.393921	
-0.393616	
-0.393005	
-0.393738	
-0.394165	
-0.393738	
-0.394226	
-0.394653	
-0.394775	
-0.394287	
-0.393433	
-0.393677	
-0.393372	
-0.392883	
-0.393677	
-0.393738	
-0.393555	
-0.393066	
-0.392944	
-0.393066	
-0.393311	
-0.392639	
-0.391418	
-0.391052	
-0.390198	
-0.391296	
-0.390625	
-0.390869	
-0.390564	
-0.390442	
-0.39093	
-0.391235	
-0.390808	
-0.391357	
-0.390869	
-0.389954	
-0.391113	
-0.390381	
-0.391357	
-0.392212	
-0.39209	
-0.391602	
-0.392212	
-0.392395	
-0.391846	
-0.391113	
-0.390747	
-0.391724	
-0.391235	
-0.392395	
-0.392517	
-0.392639	
-0.392578	
-0.392334	
-0.392334	
-0.392578	
-0.390991	
-0.390869	
-0.391846	
-0.391479	
-0.392456	
-0.3927	
-0.393188	
-0.392456	
-0.3927	
-0.392578	
-0.392517	
-0.392578	
-0.391479	
-0.392639	
-0.392578	
-0.393738	
-0.394043	
-0.394836	
-0.393982	
-0.393982	
-0.394531	
-0.395691	
-0.394653	
-0.394104	
-0.395386	
-0.394348	
-0.395691	
-0.396301	
-0.396667	
-0.39624	
-0.396484	
-0.395813	
-0.396118	
-0.395813	
-0.394348	
-0.395203	
-0.394836	
-0.395569	
-0.395264	
-0.395996	
-0.395508	
-0.394836	
-0.394287	
-0.395264	
-0.393799	
-0.392944	
-0.393738	
-0.392822	
-0.392212	
-0.393005	
-0.39325	
-0.392151	
-0.391785	
-0.390686	
-0.391724	
-0.389587	
-0.388733	
-0.389893	
-0.389893	
-0.390015	
-0.39032	
-0.390808	
-0.39032	
-0.390564	
-0.390137	
-0.391724	
-0.390503	
-0.389526	
-0.390564	
-0.391235	
-0.391479	
-0.391113	
-0.392151	
-0.392822	
-0.393005	
-0.392151	
-0.394653	
-0.393433	
-0.392517	
-0.393433	
-0.394531	
-0.394714	
-0.395569	
-0.395447	
-0.395081	
-0.395386	
-0.394531	
-0.396423	
-0.394714	
-0.395447	
-0.394958	
-0.395874	
-0.396301	
-0.396118	
-0.396362	
-0.396729	
-0.397156	
-0.395752	
-0.397095	
-0.394775	
-0.396362	
-0.395813	
-0.396484	
-0.396118	
-0.39624	
-0.396423	
-0.396423	
-0.395935	
-0.395813	
-0.397095	
-0.394592	
-0.395569	
-0.394531	
-0.395508	
-0.395752	
-0.395752	
-0.395386	
-0.395203	
-0.395569	
-0.395142	
-0.396057	
-0.392456	
-0.393311	
-0.393005	
-0.393005	
-0.393066	
-0.393433	
-0.393188	
-0.393311	
-0.393555	
-0.393066	
-0.394409	
-0.391602	
-0.392883	
-0.391418	
-0.392517	
-0.393005	
-0.393555	
-0.393311	
-0.394287	
-0.394226	
-0.393799	
-0.394592	
-0.39209	
-0.393555	
-0.392029	
-0.394165	
-0.394531	
-0.394775	
-0.39386	
-0.394287	
-0.395569	
-0.39447	
-0.395264	
-0.393127	
-0.394531	
-0.392334	
-0.394165	
-0.394409	
-0.395325	
-0.394775	
-0.394348	
-0.395142	
-0.39502	
-0.395508	
-0.393188	
-0.394653	
-0.393677	
-0.39502	
-0.395386	
-0.395813	
-0.394897	
-0.39563	
-0.395813	
-0.395874	
-0.396545	
-0.393982	
-0.395874	
-0.395386	
-0.395569	
-0.396179	
-0.396606	
-0.395935	
-0.396179	
-0.396301	
-0.396362	
-0.396973	
-0.394653	
-0.39624	
-0.395447	
-0.396667	
-0.39679	
-0.396484	
-0.395935	
-0.395996	
-0.395996	
-0.396057	
-0.395996	
-0.393005	
-0.394531	
-0.393188	
-0.394287	
-0.394104	
-0.393127	
-0.392944	
-0.392456	
-0.392395	
-0.392212	
-0.390869	
-0.388916	
-0.390686	
-0.389893	
-0.391174	
-0.391724	
-0.391907	
-0.391296	
-0.392029	
-0.392517	
-0.393066	
-0.393005	
-0.391907	
-0.391663	
-0.392029	
-0.393188	
-0.394043	
-0.394043	
-0.394226	
-0.394714	
-0.395691	
-0.396301	
-0.396118	
-0.395203	
-0.39679	
-0.396912	
-0.398071	
-0.398682	
-0.398193	
-0.398254	
-0.399048	
-0.399353	
-0.399353	
-0.399597	
-0.398071	
-0.399536	
-0.398987	
-0.399963	
-0.399902	
-0.399475	
-0.400208	
-0.400452	
-0.400208	
-0.399658	
-0.399658	
-0.398193	
-0.398499	
-0.397217	
-0.397949	
-0.398438	
-0.397705	
-0.397278	
-0.397522	
-0.397278	
-0.3974	
-0.397156	
-0.395752	
-0.396667	
-0.395569	
-0.39624	
-0.396362	
-0.395935	
-0.395874	
-0.395874	
-0.395813	
-0.395203	
-0.39502	
-0.393799	
-0.394409	
-0.393616	
-0.394775	
-0.39502	
-0.394531	
-0.394531	
-0.395142	
-0.394165	
-0.394348	
-0.39447	
-0.39325	
-0.394897	
-0.394958	
-0.395081	
-0.395203	
-0.395264	
-0.395142	
-0.395996	
-0.395325	
-0.396423	
-0.395691	
-0.394958	
-0.395935	
-0.39679	
-0.397461	
-0.397522	
-0.397888	
-0.397705	
-0.398987	
-0.397583	
-0.398315	
-0.397034	
-0.396606	
-0.397766	
-0.398315	
-0.398193	
-0.398315	
-0.39801	
-0.397766	
-0.398193	
-0.396606	
-0.397888	
-0.395874	
-0.395874	
-0.396851	
-0.396362	
-0.396484	
-0.397156	
-0.396545	
-0.396118	
-0.397034	
-0.395508	
-0.396545	
-0.394775	
-0.394958	
-0.395691	
-0.395874	
-0.396118	
-0.396179	
-0.396301	
-0.396179	
-0.395325	
-0.394653	
-0.395996	
-0.395264	
-0.394592	
-0.395508	
-0.396057	
-0.395081	
-0.395447	
-0.395691	
-0.39502	
-0.394287	
-0.393799	
-0.394592	
-0.393982	
-0.392578	
-0.391785	
-0.393127	
-0.393005	
-0.393005	
-0.393188	
-0.393372	
-0.392639	
-0.391357	
-0.392822	
-0.392151	
-0.391479	
-0.390076	
-0.392456	
-0.392212	
-0.391968	
-0.392822	
-0.3927	
-0.392334	
-0.392029	
-0.393372	
-0.392639	
-0.39209	
-0.391479	
-0.393066	
-0.393677	
-0.393921	
-0.394409	
-0.395447	
-0.395081	
-0.394409	
-0.396179	
-0.395996	
-0.395935	
-0.395081	
-0.397278	
-0.397095	
-0.397888	
-0.398071	
-0.398071	
-0.39801	
-0.396851	
-0.398254	
-0.397583	
-0.397156	
-0.395996	
-0.397766	
-0.397461	
-0.397095	
-0.397766	
-0.397522	
-0.39679	
-0.395508	
-0.397034	
-0.395142	
-0.394775	
-0.393311	
-0.394897	
-0.393494	
-0.39386	
-0.394287	
-0.393738	
-0.393066	
-0.392212	
-0.39386	
-0.39209	
-0.391846	
	
