E:\DOCUMENTS AND SETTINGS\JPOTAS\MEUS DOCUMENTOS\UFRJ\RSCI-BM 12 WK SERIES\070720-RSCI-BM-04\RSCI-BM-04-LEMG\070720-RSCI-BM-LEMG-0008.ACQ
0.025000 msec/sample
1 channel
Analog input
Volts
CH1	
2000	
-0.398193	
-0.398499	
-0.398804	
-0.398438	
-0.399658	
-0.400208	
-0.39856	
-0.399048	
-0.399475	
-0.39917	
-0.398193	
-0.39917	
-0.399292	
-0.399902	
-0.399597	
-0.400452	
-0.400757	
-0.400085	
-0.399902	
-0.400024	
-0.399841	
-0.398865	
-0.400269	
-0.39978	
-0.400085	
-0.40033	
-0.400208	
-0.400452	
-0.39856	
-0.398804	
-0.398438	
-0.398132	
-0.397461	
-0.397461	
-0.397461	
-0.397949	
-0.398254	
-0.398376	
-0.397827	
-0.39679	
-0.39801	
-0.397217	
-0.397461	
-0.396729	
-0.397156	
-0.397583	
-0.39801	
-0.398438	
-0.398376	
-0.398376	
-0.397339	
-0.398865	
-0.398438	
-0.398315	
-0.39801	
-0.398438	
-0.397827	
-0.398743	
-0.399353	
-0.399353	
-0.398743	
-0.398621	
-0.39917	
-0.397644	
-0.398132	
-0.398254	
-0.397949	
-0.39679	
-0.398071	
-0.398987	
-0.398804	
-0.399109	
-0.39917	
-0.398926	
-0.399536	
-0.398743	
-0.399902	
-0.399597	
-0.398987	
-0.400208	
-0.401428	
-0.401611	
-0.401001	
-0.401001	
-0.401123	
-0.400146	
-0.400391	
-0.401245	
-0.400391	
-0.400208	
-0.400879	
-0.401306	
-0.400757	
-0.401428	
-0.401367	
-0.400757	
-0.400513	
-0.400024	
-0.400146	
-0.399658	
-0.398376	
-0.39917	
-0.399475	
-0.399963	
-0.399231	
-0.399475	
-0.398499	
-0.398315	
-0.399963	
-0.398438	
-0.398621	
-0.398804	
-0.399292	
-0.399536	
-0.399536	
-0.399536	
-0.398743	
-0.398987	
-0.39801	
-0.398254	
-0.398804	
-0.39856	
-0.398621	
-0.398804	
-0.398804	
-0.398621	
-0.398743	
-0.398499	
-0.398071	
-0.397644	
-0.398315	
-0.397278	
-0.396667	
-0.396118	
-0.397278	
-0.397461	
-0.3974	
-0.397095	
-0.397705	
-0.397278	
-0.397888	
-0.39856	
-0.398376	
-0.39856	
-0.397339	
-0.398315	
-0.397888	
-0.39856	
-0.398254	
-0.398804	
-0.39801	
-0.397949	
-0.399109	
-0.397522	
-0.398132	
-0.397766	
-0.396606	
-0.398315	
-0.39856	
-0.397827	
-0.397583	
-0.397522	
-0.397339	
-0.397461	
-0.397217	
-0.397095	
-0.396423	
-0.395569	
-0.396545	
-0.395996	
-0.395752	
-0.395874	
-0.394348	
-0.394653	
-0.394714	
-0.394226	
-0.393616	
-0.393311	
-0.391968	
-0.393127	
-0.392944	
-0.391846	
-0.391724	
-0.391235	
-0.391541	
-0.39209	
-0.392395	
-0.390259	
-0.390564	
-0.389648	
-0.39093	
-0.391724	
-0.390442	
-0.390747	
-0.390076	
-0.390381	
-0.390259	
-0.366028	
-0.368042	
-0.372131	
-0.373413	
-0.375427	
-0.37616	
-0.407288	
-0.397949	
-0.393372	
-0.391235	
-0.391724	
-0.3927	
-0.390686	
-0.390564	
-0.389648	
-0.390259	
-0.389954	
-0.390381	
-0.389038	
-0.389343	
-0.388489	
-0.389771	
-0.390747	
-0.390564	
-0.390625	
-0.389954	
-0.391724	
-0.392334	
-0.393799	
-0.392517	
-0.392456	
-0.391846	
-0.392761	
-0.393982	
-0.39209	
-0.393738	
-0.392883	
-0.393127	
-0.394287	
-0.395447	
-0.393982	
-0.394165	
-0.393982	
-0.394897	
-0.394165	
-0.392761	
-0.393494	
-0.393127	
-0.391907	
-0.392761	
-0.393799	
-0.392822	
-0.365967	
-0.370972	
-0.37738	
-0.380432	
-0.381531	
-0.385132	
-0.418884	
-0.411743	
-0.413757	
-0.418213	
-0.420227	
-0.424255	
-0.42749	
-0.432922	
-0.438477	
-0.444458	
-0.45105	
-0.458069	
-0.46582	
-0.472717	
-0.479187	
-0.483032	
-0.487671	
-0.489502	
-0.494751	
-0.498169	
-0.498291	
-0.499451	
-0.499268	
-0.499878	
-0.500244	
-0.499512	
-0.498474	
-0.497986	
-0.494202	
-0.493896	
-0.493225	
-0.490662	
-0.488159	
-0.485474	
-0.483032	
-0.479858	
-0.477295	
-0.474121	
-0.472351	
-0.468567	
-0.469849	
-0.47052	
-0.469971	
-0.471069	
-0.471863	
-0.473572	
-0.475159	
-0.477905	
-0.480103	
-0.483582	
-0.482422	
-0.48584	
-0.486511	
-0.486511	
-0.485657	
-0.48407	
-0.481873	
-0.478821	
-0.476318	
-0.472473	
-0.469177	
-0.463501	
-0.462402	
-0.459473	
-0.456238	
-0.453003	
-0.450134	
-0.448181	
-0.447998	
-0.446899	
-0.446045	
-0.44574	
-0.442871	
-0.444397	
-0.445129	
-0.445679	
-0.444641	
-0.443848	
-0.442505	
-0.441711	
-0.440308	
-0.4375	
-0.435303	
-0.430542	
-0.428467	
-0.424744	
-0.420898	
-0.417053	
-0.412842	
-0.406677	
-0.404358	
-0.40033	
-0.394226	
-0.389709	
-0.381592	
-0.37677	
-0.370544	
-0.365234	
-0.357239	
-0.349976	
-0.341614	
-0.335266	
-0.329468	
-0.320557	
-0.314087	
-0.306274	
-0.299988	
-0.294861	
-0.291382	
-0.286377	
-0.283813	
-0.282166	
-0.28302	
-0.283997	
-0.283936	
-0.284729	
-0.285034	
-0.287354	
-0.289856	
-0.293335	
-0.2948	
-0.298645	
-0.301331	
-0.307495	
-0.313049	
-0.3172	
-0.322754	
-0.32666	
-0.333618	
-0.338257	
-0.343872	
-0.34845	
-0.352661	
-0.357422	
-0.362	
-0.365112	
-0.368469	
-0.370911	
-0.374512	
-0.377991	
-0.381714	
-0.382996	
-0.384949	
-0.387207	
-0.390076	
-0.393311	
-0.394043	
-0.395813	
-0.395874	
-0.399536	
-0.401367	
-0.404297	
-0.404236	
-0.405396	
-0.405396	
-0.408264	
-0.409668	
-0.408752	
-0.40979	
-0.408264	
-0.408752	
-0.407837	
-0.408875	
-0.406616	
-0.405212	
-0.402405	
-0.40155	
-0.400085	
-0.397583	
-0.394592	
-0.391785	
-0.389709	
-0.385925	
-0.385864	
-0.381287	
-0.378235	
-0.375061	
-0.373413	
-0.371338	
-0.366516	
-0.362488	
-0.358337	
-0.35437	
-0.349976	
-0.347656	
-0.34137	
-0.335938	
-0.330444	
-0.326355	
-0.321777	
-0.316711	
-0.312073	
-0.309387	
-0.307251	
-0.305542	
-0.305603	
-0.303894	
-0.303833	
-0.302368	
-0.305847	
-0.306519	
-0.307495	
-0.308228	
-0.308411	
-0.310364	
-0.312256	
-0.312927	
-0.313965	
-0.315674	
-0.317139	
-0.318604	
-0.319641	
-0.322327	
-0.323242	
-0.325256	
-0.327393	
-0.330383	
-0.330994	
-0.332764	
-0.334106	
-0.337097	
-0.338196	
-0.339539	
-0.341003	
-0.342957	
-0.34436	
-0.34552	
-0.348877	
-0.348694	
-0.350342	
-0.350769	
-0.353699	
-0.355408	
-0.356567	
-0.356812	
-0.357666	
-0.359802	
-0.361816	
-0.363464	
-0.363953	
-0.364563	
-0.36377	
-0.366577	
-0.367249	
-0.368225	
-0.368225	
-0.368896	
-0.369568	
-0.371399	
-0.371704	
-0.37207	
-0.372986	
-0.372925	
-0.374207	
-0.374939	
-0.375	
-0.37561	
-0.375977	
-0.376892	
-0.37793	
-0.377502	
-0.377563	
-0.378418	
-0.377136	
-0.37915	
-0.379333	
-0.380432	
-0.380066	
-0.380127	
-0.380066	
-0.381042	
-0.382141	
-0.380676	
-0.382385	
-0.380493	
-0.383118	
-0.381592	
-0.38269	
-0.382263	
-0.382507	
-0.382385	
-0.382568	
-0.38324	
-0.382324	
-0.381287	
-0.37915	
-0.380859	
-0.379822	
-0.379761	
-0.378784	
-0.379028	
-0.378723	
-0.379333	
-0.380432	
-0.379456	
-0.37854	
-0.377869	
-0.379211	
-0.378235	
-0.378357	
-0.378174	
-0.377319	
-0.376892	
-0.37738	
-0.37854	
-0.377625	
-0.377075	
-0.376282	
-0.377502	
-0.377502	
-0.378174	
-0.377747	
-0.378052	
-0.377625	
-0.378235	
-0.380005	
-0.37793	
-0.377991	
-0.375977	
-0.379395	
-0.378479	
-0.3797	
-0.378662	
-0.378784	
-0.37854	
-0.379517	
-0.3797	
-0.378723	
-0.379211	
-0.376282	
-0.379639	
-0.379639	
-0.380371	
-0.379456	
-0.380371	
-0.380249	
-0.383362	
-0.38324	
-0.384155	
-0.38446	
-0.384766	
-0.385742	
-0.386536	
-0.386108	
-0.386597	
-0.387146	
-0.387939	
-0.390442	
-0.388733	
-0.389465	
-0.388428	
-0.390747	
-0.390503	
-0.391113	
-0.390625	
-0.391296	
-0.390564	
-0.391418	
-0.392334	
-0.391479	
-0.391052	
-0.391052	
-0.391541	
-0.39093	
-0.390259	
-0.389282	
-0.389893	
-0.389526	
-0.391052	
-0.390198	
-0.389587	
-0.388977	
-0.388733	
-0.388855	
-0.390198	
-0.389221	
-0.389343	
-0.388733	
-0.389587	
-0.390137	
-0.389587	
-0.388977	
-0.387634	
-0.388672	
-0.389526	
-0.388977	
-0.389099	
-0.388672	
-0.388916	
-0.389648	
-0.389282	
-0.389282	
-0.388855	
-0.389099	
-0.390076	
-0.390808	
-0.390503	
-0.390259	
-0.390747	
-0.391113	
-0.39209	
-0.391357	
-0.391541	
-0.390747	
-0.392151	
-0.393433	
-0.393066	
-0.392761	
-0.391846	
-0.3927	
-0.393494	
-0.39502	
-0.394409	
-0.393677	
-0.39386	
-0.394348	
-0.394287	
-0.394287	
-0.395264	
-0.393188	
-0.394592	
-0.395752	
-0.395935	
-0.395996	
-0.394897	
-0.39502	
-0.395752	
-0.397217	
-0.396484	
-0.395935	
-0.394836	
-0.396423	
-0.3974	
-0.396729	
-0.397888	
-0.395935	
-0.39563	
-0.396545	
-0.396851	
-0.396179	
-0.395447	
-0.393311	
-0.39563	
-0.395203	
-0.394897	
-0.395264	
-0.393555	
-0.394165	
-0.394897	
-0.395569	
-0.394531	
-0.394104	
-0.393616	
-0.394836	
-0.394775	
-0.394531	
-0.394226	
-0.394836	
-0.394958	
-0.39447	
-0.394348	
-0.395264	
-0.395386	
-0.394958	
-0.396362	
-0.396667	
-0.396118	
-0.395325	
-0.395447	
-0.395569	
-0.39679	
-0.396057	
-0.395386	
-0.394775	
-0.395752	
-0.395813	
-0.396545	
-0.395508	
-0.395081	
-0.395203	
-0.395813	
-0.396362	
-0.395874	
-0.396057	
-0.396484	
-0.397766	
-0.397644	
-0.397522	
-0.398315	
-0.397827	
-0.397034	
-0.398743	
-0.39917	
-0.39856	
-0.398376	
-0.398743	
-0.399231	
-0.399109	
-0.399231	
-0.398438	
-0.398438	
-0.398682	
-0.399475	
-0.399048	
-0.398193	
-0.397888	
-0.397949	
-0.398071	
-0.398499	
-0.397156	
-0.398376	
-0.397339	
-0.397522	
-0.396729	
-0.397644	
-0.396973	
-0.395386	
-0.397339	
-0.397278	
-0.397217	
-0.3974	
-0.397766	
-0.397339	
-0.397522	
-0.396484	
-0.396973	
-0.396667	
-0.3974	
-0.397705	
-0.39679	
-0.397827	
-0.397034	
-0.398132	
-0.396912	
-0.397278	
-0.395996	
-0.396973	
-0.396912	
-0.396057	
-0.396912	
-0.395264	
-0.396729	
-0.395203	
-0.395996	
-0.395691	
-0.396362	
-0.394531	
-0.395508	
-0.395996	
-0.395203	
-0.396179	
-0.395508	
-0.397156	
-0.396484	
-0.397095	
-0.396118	
-0.396301	
-0.395691	
-0.397156	
-0.397461	
-0.395752	
-0.396667	
-0.395996	
-0.396912	
-0.396912	
-0.396606	
-0.396057	
-0.39624	
-0.395935	
-0.396362	
-0.397156	
-0.396057	
-0.395996	
-0.395569	
-0.395935	
-0.395813	
-0.395325	
-0.395142	
-0.394653	
-0.394531	
-0.394226	
-0.394531	
-0.393616	
-0.393738	
-0.392761	
-0.392273	
-0.393005	
-0.392151	
-0.391602	
-0.391602	
-0.391663	
-0.39093	
-0.391113	
-0.389893	
-0.390015	
-0.389709	
-0.389954	
-0.389954	
-0.390381	
-0.389343	
-0.38916	
-0.389832	
-0.389099	
-0.389954	
-0.388184	
-0.389343	
-0.388123	
-0.388123	
-0.389343	
-0.388611	
-0.388794	
-0.388611	
-0.389771	
-0.388855	
-0.389099	
-0.387939	
-0.388123	
-0.387756	
-0.388611	
-0.390015	
-0.388916	
-0.388245	
-0.387939	
-0.389465	
-0.388489	
-0.388428	
-0.388672	
-0.387756	
-0.388245	
-0.388	
-0.389038	
-0.388184	
-0.389099	
-0.389465	
-0.391541	
-0.391479	
-0.390625	
-0.391724	
-0.391296	
-0.391541	
-0.391785	
-0.392395	
-0.391663	
-0.391602	
-0.390076	
-0.393066	
-0.393066	
-0.39209	
-0.392395	
-0.391968	
-0.392517	
-0.391968	
-0.39325	
-0.391174	
-0.391968	
-0.389954	
-0.393188	
-0.392456	
-0.392151	
-0.391785	
-0.390991	
-0.392639	
-0.392517	
-0.393127	
-0.391907	
-0.391846	
-0.390503	
-0.392578	
-0.391785	
-0.391052	
-0.390381	
-0.389465	
-0.390137	
-0.389893	
-0.389832	
-0.389099	
-0.388428	
-0.387939	
-0.388855	
-0.388184	
-0.387573	
-0.387512	
-0.387695	
-0.387756	
-0.388062	
-0.388062	
-0.387939	
-0.387329	
-0.387451	
-0.389099	
-0.388123	
-0.388306	
-0.388062	
-0.388855	
-0.389404	
-0.390259	
-0.390503	
-0.390259	
-0.390198	
-0.390137	
-0.392212	
-0.391296	
-0.391724	
-0.391541	
-0.392639	
-0.392517	
-0.393188	
-0.392029	
-0.392334	
-0.391846	
-0.392456	
-0.394653	
-0.392517	
-0.392761	
-0.392517	
-0.392944	
-0.393005	
-0.393372	
-0.393311	
-0.393005	
-0.3927	
-0.39325	
-0.394714	
-0.393494	
-0.393066	
-0.393372	
-0.393372	
-0.393127	
-0.393372	
-0.392944	
-0.392639	
-0.391785	
-0.392822	
-0.394165	
-0.392273	
-0.391907	
-0.391113	
-0.391663	
-0.391602	
-0.391113	
-0.391113	
-0.390564	
-0.389954	
-0.390137	
-0.391907	
-0.390198	
-0.390076	
-0.389954	
-0.390198	
-0.390442	
-0.389771	
-0.389771	
-0.390137	
-0.389709	
-0.389465	
-0.391174	
-0.389282	
-0.389404	
-0.388977	
-0.389282	
-0.390259	
-0.388916	
-0.388916	
-0.388733	
-0.389343	
-0.389221	
-0.390076	
-0.389038	
-0.388672	
-0.389526	
-0.389709	
-0.390991	
-0.390015	
-0.389893	
-0.390137	
-0.391235	
-0.391479	
-0.392334	
-0.391541	
-0.391418	
-0.391357	
-0.391846	
-0.391785	
-0.391602	
-0.391418	
-0.392273	
-0.391785	
-0.392334	
-0.3927	
-0.392212	
-0.391663	
-0.391418	
-0.391724	
-0.391418	
-0.391296	
-0.390198	
-0.391663	
-0.390991	
-0.390808	
-0.390625	
-0.390381	
-0.390808	
-0.390198	
-0.39093	
-0.390076	
-0.389954	
-0.389648	
-0.391418	
-0.390808	
-0.390869	
-0.391846	
-0.391113	
-0.390503	
-0.39093	
-0.391541	
-0.390198	
-0.389709	
-0.388611	
-0.390015	
-0.388916	
-0.388916	
-0.389099	
-0.388611	
-0.388306	
-0.387939	
-0.388	
-0.387817	
-0.38739	
-0.386292	
-0.388855	
-0.387512	
-0.387695	
-0.38855	
-0.388306	
-0.388306	
-0.388977	
-0.38739	
-0.388184	
-0.388184	
-0.387878	
-0.389587	
-0.388977	
-0.388855	
-0.389709	
-0.389099	
-0.389221	
-0.389954	
-0.388611	
-0.389893	
-0.389648	
-0.389709	
-0.390747	
-0.390381	
-0.389893	
-0.390259	
-0.39032	
-0.389526	
-0.390686	
-0.389587	
-0.390503	
-0.389587	
-0.390076	
-0.390869	
-0.390503	
-0.390869	
-0.390686	
-0.391235	
-0.391174	
-0.392334	
-0.391052	
-0.390808	
-0.390991	
-0.392151	
-0.392639	
-0.391968	
-0.392578	
-0.392029	
-0.392822	
-0.392151	
-0.393799	
-0.391663	
-0.392517	
-0.392273	
-0.392151	
-0.392639	
-0.39209	
-0.392273	
-0.391968	
-0.392456	
-0.391968	
-0.392151	
-0.390381	
-0.391357	
-0.391357	
-0.391602	
-0.392273	
-0.391785	
-0.391907	
-0.39209	
-0.392151	
-0.391663	
-0.393372	
-0.390686	
-0.39209	
-0.391785	
-0.392517	
-0.3927	
-0.392822	
-0.392822	
-0.393921	
-0.394165	
-0.394104	
-0.395203	
-0.393311	
-0.394226	
-0.392883	
-0.39447	
-0.395508	
-0.395508	
-0.395508	
-0.396301	
-0.396912	
-0.396667	
-0.398315	
-0.396362	
-0.397034	
-0.396973	
-0.397034	
-0.398193	
-0.398132	
-0.397888	
-0.398254	
-0.398621	
-0.398254	
-0.399658	
-0.398132	
-0.39856	
-0.398315	
-0.399109	
-0.39917	
-0.39917	
-0.399475	
-0.400024	
-0.400269	
-0.399841	
-0.401306	
-0.399048	
-0.400085	
-0.399353	
-0.399963	
-0.399963	
-0.399475	
-0.398987	
-0.400513	
-0.400391	
-0.399658	
-0.400574	
-0.398926	
-0.39978	
-0.399231	
-0.400085	
-0.400269	
-0.39978	
-0.399963	
-0.400024	
-0.399719	
-0.39801	
-0.398071	
-0.396179	
-0.3974	
-0.39624	
-0.396423	
-0.397278	
-0.39624	
-0.396118	
-0.397461	
-0.397034	
-0.396484	
-0.396912	
-0.395081	
-0.395935	
-0.395508	
-0.395813	
-0.396362	
-0.396118	
-0.396423	
-0.397095	
-0.39624	
-0.39624	
-0.396973	
-0.394836	
-0.395996	
-0.395508	
-0.396057	
-0.396362	
-0.396179	
-0.396423	
-0.397644	
-0.396179	
-0.397034	
-0.397461	
-0.396729	
-0.397461	
-0.397156	
-0.398621	
-0.398926	
-0.399353	
-0.399048	
-0.400146	
-0.399902	
-0.400208	
-0.400696	
-0.400513	
-0.400818	
-0.400635	
-0.400574	
-0.401367	
-0.400696	
-0.401001	
-0.401367	
-0.401001	
-0.401123	
-0.401123	
-0.400818	
-0.401001	
-0.400452	
-0.40033	
-0.399963	
-0.399597	
-0.399414	
-0.399597	
-0.399109	
-0.39856	
-0.398254	
-0.397522	
-0.397278	
-0.396179	
-0.396362	
-0.397095	
-0.39624	
-0.396667	
-0.396851	
-0.396118	
-0.395874	
-0.396057	
-0.39624	
-0.395813	
-0.395569	
-0.395142	
-0.396606	
-0.395935	
-0.395996	
-0.39679	
-0.395386	
-0.395813	
-0.395813	
-0.396179	
-0.395752	
-0.395325	
-0.394409	
-0.396912	
-0.396057	
-0.396545	
-0.3974	
-0.396362	
-0.396362	
-0.396118	
-0.397583	
-0.39679	
-0.397095	
-0.396667	
-0.398682	
-0.39801	
-0.398682	
-0.399292	
-0.39856	
-0.39856	
-0.397949	
-0.399353	
-0.398254	
-0.398621	
-0.398254	
-0.399719	
-0.398865	
-0.399048	
-0.399475	
-0.398865	
-0.399719	
-0.398621	
-0.400452	
-0.399658	
-0.399658	
-0.399475	
-0.400146	
-0.400085	
-0.400024	
-0.400574	
-0.399841	
-0.400269	
-0.399231	
-0.400757	
-0.39978	
-0.399658	
-0.399597	
-0.400391	
-0.399292	
-0.399353	
-0.399231	
-0.398682	
-0.398193	
-0.397095	
-0.398621	
-0.397522	
-0.397766	
-0.397705	
-0.397888	
-0.397644	
-0.397705	
-0.397705	
-0.397644	
-0.397583	
-0.396301	
-0.397705	
-0.397888	
-0.397583	
-0.39801	
-0.398682	
-0.398132	
-0.398621	
-0.399109	
-0.398254	
-0.398499	
-0.397461	
-0.398987	
-0.398254	
-0.398132	
-0.399109	
-0.398987	
-0.398621	
-0.398621	
-0.399658	
-0.398315	
-0.398193	
-0.397522	
-0.39856	
-0.398376	
-0.398438	
-0.398132	
-0.398315	
-0.398499	
-0.399414	
-0.40094	
-0.39978	
-0.399719	
-0.399231	
-0.400208	
-0.401001	
-0.400757	
-0.401062	
-0.400208	
-0.401428	
-0.401611	
-0.402405	
-0.400024	
-0.401306	
-0.400452	
-0.40094	
-0.401428	
-0.401062	
-0.400513	
-0.400024	
-0.40094	
-0.40094	
-0.401733	
-0.39917	
-0.39978	
-0.399109	
-0.400208	
-0.400269	
-0.399109	
-0.398682	
-0.397644	
-0.399841	
-0.399109	
-0.400696	
-0.39856	
-0.398743	
-0.398315	
-0.399353	
-0.400269	
-0.39856	
-0.398682	
-0.398132	
-0.399536	
-0.399475	
-0.39978	
-0.398743	
-0.399048	
-0.398193	
-0.398804	
-0.399597	
-0.398438	
-0.398376	
-0.397278	
-0.398743	
-0.398376	
-0.398438	
-0.397644	
-0.397644	
-0.397461	
-0.396423	
-0.397522	
-0.397583	
-0.397217	
-0.396301	
-0.397766	
-0.398193	
-0.397827	
-0.398071	
-0.397522	
-0.398499	
-0.39801	
-0.399048	
-0.398315	
-0.398071	
-0.397583	
-0.398804	
-0.399048	
-0.397644	
-0.398438	
-0.397034	
-0.398743	
-0.398376	
-0.398682	
-0.398132	
-0.397034	
-0.397644	
-0.397766	
-0.39917	
-0.397339	
-0.397888	
-0.395569	
-0.397156	
-0.396667	
-0.397217	
-0.396057	
-0.395081	
-0.395691	
-0.395874	
-0.39624	
-0.395081	
-0.39502	
-0.392273	
-0.394165	
-0.394165	
-0.393799	
-0.3927	
-0.391846	
-0.392395	
-0.392334	
-0.393066	
-0.391663	
-0.391113	
-0.390686	
-0.391357	
-0.392151	
-0.390625	
-0.390625	
-0.389587	
-0.390442	
-0.39093	
-0.39093	
-0.390442	
-0.390503	
-0.390808	
-0.391296	
-0.390869	
-0.389343	
-0.390015	
-0.388672	
-0.389893	
-0.390686	
-0.390808	
-0.390442	
-0.390503	
-0.390564	
-0.390076	
-0.390137	
-0.389771	
-0.390259	
-0.388916	
-0.389587	
-0.390381	
-0.389343	
-0.389343	
-0.38916	
-0.390076	
-0.390259	
-0.390808	
-0.390991	
-0.392517	
-0.390991	
-0.392029	
-0.391663	
-0.392395	
-0.392578	
-0.392883	
-0.393799	
-0.391602	
-0.393311	
-0.393311	
-0.394592	
-0.39209	
-0.393372	
-0.393982	
-0.393799	
-0.39386	
-0.392822	
-0.393799	
-0.392944	
-0.393372	
-0.393799	
-0.394409	
-0.392151	
-0.393494	
-0.39386	
-0.393494	
-0.394409	
-0.392761	
-0.393433	
-0.392639	
-0.393555	
-0.393311	
-0.39325	
-0.391846	
-0.392517	
-0.392334	
-0.391541	
-0.392029	
-0.389893	
-0.390442	
-0.390076	
-0.389587	
-0.389465	
-0.389221	
-0.388611	
-0.389404	
-0.389526	
-0.388855	
-0.389465	
-0.388123	
-0.388977	
-0.388611	
-0.389038	
-0.388611	
-0.38855	
-0.388123	
-0.389587	
-0.390076	
-0.389587	
-0.39093	
-0.389465	
-0.390686	
-0.390747	
-0.391113	
-0.391602	
-0.391296	
-0.391541	
-0.392822	
-0.393311	
-0.392456	
-0.394043	
-0.391907	
-0.39386	
-0.393311	
-0.393738	
-0.39386	
-0.392944	
-0.393066	
-0.39386	
-0.394592	
-0.3927	
-0.394836	
-0.393188	
-0.394226	
-0.394958	
-0.393982	
-0.394409	
-0.3927	
-0.394043	
-0.394104	
-0.394592	
-0.393555	
-0.39447	
-0.392639	
-0.394104	
-0.394836	
-0.394531	
-0.393433	
-0.392822	
-0.393799	
-0.393005	
-0.393433	
-0.39209	
-0.392517	
-0.390991	
-0.391602	
-0.392822	
-0.390625	
-0.391296	
-0.391052	
-0.392334	
-0.391663	
-0.39209	
-0.390991	
-0.391113	
-0.391235	
-0.390869	
-0.391602	
-0.389709	
-0.390137	
-0.390015	
-0.391113	
-0.390198	
-0.391113	
-0.389832	
-0.390137	
-0.390198	
-0.389526	
-0.390686	
-0.388672	
-0.389526	
-0.389404	
-0.391052	
-0.389709	
-0.390198	
-0.390076	
-0.390259	
-0.391113	
-0.391052	
-0.391541	
-0.391296	
-0.391357	
-0.391663	
-0.392578	
-0.391663	
-0.391907	
-0.391785	
-0.391907	
-0.391724	
-0.392517	
-0.393677	
-0.391663	
-0.392334	
-0.392517	
-0.392883	
-0.392151	
-0.392334	
-0.391663	
-0.391602	
-0.391541	
-0.391846	
-0.392212	
-0.391663	
-0.390625	
-0.390991	
-0.390869	
-0.391479	
-0.391968	
-0.390259	
-0.390808	
-0.391235	
-0.391785	
-0.392639	
-0.392212	
-0.390625	
-0.390686	
-0.391968	
-0.391907	
-0.391846	
-0.391541	
-0.391724	
-0.391296	
-0.391357	
-0.390808	
-0.391418	
-0.389282	
-0.388794	
-0.390625	
-0.389465	
-0.389465	
-0.389038	
-0.389038	
-0.389526	
-0.389404	
-0.389221	
-0.389221	
-0.389893	
-0.389587	
-0.389954	
-0.390076	
-0.390015	
-0.389587	
-0.389343	
-0.389893	
-0.390015	
-0.389832	
-0.390198	
-0.389587	
-0.39032	
-0.390686	
-0.389282	
-0.390625	
-0.39032	
-0.390381	
-0.390381	
-0.390808	
-0.390198	
-0.390015	
-0.39032	
-0.390198	
-0.391235	
-0.389099	
-0.390381	
-0.390808	
-0.389954	
-0.390381	
-0.390808	
-0.390198	
-0.390259	
-0.391602	
-0.391052	
-0.390991	
-0.390259	
-0.391052	
-0.391846	
-0.391479	
-0.391907	
-0.392334	
-0.391785	
-0.391663	
-0.392395	
-0.391113	
-0.393188	
-0.392273	
-0.39209	
-0.393433	
-0.392761	
-0.392944	
-0.39325	
-0.392517	
-0.392212	
-0.391541	
-0.390808	
-0.391846	
-0.391174	
-0.392029	
-0.391663	
-0.392212	
-0.391663	
-0.392151	
-0.392212	
-0.391541	
-0.391479	
-0.390137	
-0.392395	
-0.391541	
-0.392151	
-0.391907	
-0.392151	
-0.39209	
-0.392944	
-0.392883	
-0.392517	
-0.392639	
-0.392212	
-0.393799	
-0.393372	
-0.393494	
-0.393372	
-0.393738	
-0.394592	
-0.395752	
-0.396179	
-0.395264	
-0.396057	
-0.39563	
-0.396912	
-0.397339	
-0.396606	
-0.397034	
-0.397461	
-0.397644	
-0.397827	
-0.398865	
-0.398376	
-0.39801	
-0.398499	
-0.398682	
-0.398682	
-0.398865	
-0.398743	
-0.398926	
-0.399292	
-0.400024	
-0.40033	
-0.399902	
-0.400024	
-0.399902	
-0.400574	
-0.400574	
-0.399231	
-0.400146	
-0.400574	
-0.400146	
-0.400452	
-0.400208	
-0.400208	
-0.39978	
-0.400085	
-0.400879	
-0.399902	
-0.398743	
-0.39978	
-0.400024	
-0.401001	
-0.401001	
-0.401001	
-0.400146	
-0.400269	
-0.400024	
-0.400146	
-0.39917	
-0.397034	
-0.398621	
-0.397034	
-0.397522	
-0.397461	
-0.397339	
-0.396606	
-0.396606	
-0.397522	
-0.397217	
-0.396667	
-0.395813	
-0.396423	
-0.396667	
-0.396362	
-0.396912	
-0.396667	
-0.396423	
-0.396484	
-0.396606	
-0.396606	
-0.396301	
-0.39563	
-0.396729	
-0.39679	
-0.397095	
-0.396423	
-0.396973	
-0.396912	
-0.396423	
-0.396057	
-0.396423	
-0.396606	
-0.396179	
-0.397339	
-0.397644	
-0.398193	
-0.398315	
-0.39978	
-0.399536	
-0.400269	
-0.399597	
-0.399963	
-0.400269	
-0.399536	
-0.400818	
-0.400391	
-0.401123	
-0.40155	
-0.401489	
-0.401001	
-0.40155	
-0.401489	
-0.400513	
-0.401184	
-0.400513	
-0.401123	
-0.401001	
-0.401001	
-0.400757	
-0.399963	
-0.400635	
-0.399658	
-0.399658	
-0.398254	
-0.399353	
-0.39801	
-0.398193	
-0.396973	
-0.397339	
-0.3974	
-0.396606	
-0.396912	
-0.396606	
-0.39679	
-0.395691	
-0.397034	
-0.396057	
-0.395996	
-0.396301	
-0.39624	
-0.396057	
-0.397095	
-0.396118	
-0.396057	
-0.396179	
-0.39624	
-0.397034	
-0.395508	
-0.396362	
-0.396118	
-0.395325	
-0.396057	
-0.39679	
-0.396484	
-0.396851	
-0.396912	
-0.396423	
-0.397705	
-0.39679	
-0.397156	
-0.398804	
-0.397522	
-0.398438	
-0.398621	
-0.398499	
-0.398621	
-0.399292	
-0.398499	
-0.399536	
-0.397827	
-0.398804	
	
