E:\DOCUMENTS AND SETTINGS\JPOTAS\MEUS DOCUMENTOS\UFRJ\RSCI-BM 12 WK SERIES\070720-RSCI-BM-04\RSCI-BM-04-LEMG\070720-RSCI-BM-LEMG-0016.ACQ
0.025000 msec/sample
1 channel
Analog input
Volts
CH1	
2000	
-0.395325	
-0.395569	
-0.394531	
-0.396057	
-0.397461	
-0.396484	
-0.396851	
-0.395691	
-0.395874	
-0.39624	
-0.396423	
-0.396729	
-0.396912	
-0.395569	
-0.396912	
-0.398621	
-0.397522	
-0.3974	
-0.395813	
-0.395935	
-0.39679	
-0.397217	
-0.397156	
-0.39679	
-0.395264	
-0.39679	
-0.396851	
-0.395447	
-0.395386	
-0.393311	
-0.393738	
-0.394714	
-0.394287	
-0.393738	
-0.39386	
-0.392761	
-0.393982	
-0.394043	
-0.393677	
-0.393311	
-0.392029	
-0.391479	
-0.392212	
-0.392212	
-0.392395	
-0.392395	
-0.391296	
-0.392883	
-0.393066	
-0.39325	
-0.39325	
-0.392334	
-0.392151	
-0.393433	
-0.393738	
-0.393188	
-0.39325	
-0.392883	
-0.394409	
-0.394287	
-0.393982	
-0.393799	
-0.393738	
-0.392944	
-0.394226	
-0.394836	
-0.394226	
-0.394409	
-0.39447	
-0.395447	
-0.395203	
-0.395447	
-0.395508	
-0.394958	
-0.395264	
-0.395935	
-0.397156	
-0.39679	
-0.396912	
-0.397278	
-0.398987	
-0.398865	
-0.399414	
-0.399109	
-0.400146	
-0.399231	
-0.400208	
-0.40155	
-0.400452	
-0.401001	
-0.401245	
-0.402161	
-0.401733	
-0.401672	
-0.400818	
-0.40033	
-0.400757	
-0.400513	
-0.40094	
-0.400269	
-0.400818	
-0.400452	
-0.401062	
-0.400452	
-0.400391	
-0.399658	
-0.399353	
-0.399597	
-0.399048	
-0.399719	
-0.398621	
-0.399475	
-0.398621	
-0.398926	
-0.397888	
-0.397278	
-0.396973	
-0.39624	
-0.396057	
-0.395386	
-0.396179	
-0.396057	
-0.395142	
-0.395142	
-0.396118	
-0.395691	
-0.395813	
-0.395081	
-0.394592	
-0.394165	
-0.393616	
-0.394348	
-0.394287	
-0.394104	
-0.394104	
-0.394409	
-0.39447	
-0.39447	
-0.393982	
-0.393982	
-0.393982	
-0.393677	
-0.394592	
-0.395264	
-0.394714	
-0.394348	
-0.395386	
-0.395874	
-0.395874	
-0.396057	
-0.395569	
-0.395935	
-0.395264	
-0.397278	
-0.397095	
-0.396851	
-0.396667	
-0.398376	
-0.398804	
-0.39801	
-0.397644	
-0.398132	
-0.397766	
-0.397217	
-0.398254	
-0.397888	
-0.397827	
-0.397888	
-0.397888	
-0.39801	
-0.398132	
-0.397217	
-0.396729	
-0.396912	
-0.396606	
-0.396423	
-0.395813	
-0.395691	
-0.394836	
-0.394775	
-0.395691	
-0.395264	
-0.394043	
-0.394043	
-0.393738	
-0.393555	
-0.394104	
-0.394226	
-0.39325	
-0.393433	
-0.393066	
-0.394531	
-0.394653	
-0.392822	
-0.392883	
-0.393311	
-0.393616	
-0.364929	
-0.36969	
-0.374207	
-0.376221	
-0.376831	
-0.378601	
-0.411804	
-0.401855	
-0.395447	
-0.395325	
-0.3927	
-0.394165	
-0.39386	
-0.393494	
-0.39325	
-0.393188	
-0.393555	
-0.393494	
-0.393005	
-0.391479	
-0.392944	
-0.391418	
-0.394165	
-0.394531	
-0.394836	
-0.39502	
-0.395386	
-0.395874	
-0.395691	
-0.395569	
-0.394348	
-0.395691	
-0.395203	
-0.395996	
-0.396484	
-0.397156	
-0.397156	
-0.397888	
-0.398499	
-0.398743	
-0.398438	
-0.397339	
-0.398193	
-0.397888	
-0.398804	
-0.397827	
-0.397705	
-0.397949	
-0.397644	
-0.397339	
-0.397644	
-0.397095	
-0.396484	
-0.396973	
-0.398621	
-0.401001	
-0.402771	
-0.405151	
-0.408691	
-0.413452	
-0.418823	
-0.425171	
-0.428589	
-0.433167	
-0.43927	
-0.444397	
-0.451355	
-0.456055	
-0.463074	
-0.470825	
-0.479858	
-0.487305	
-0.49408	
-0.498413	
-0.502502	
-0.505676	
-0.511047	
-0.514343	
-0.515991	
-0.516296	
-0.516785	
-0.518372	
-0.517761	
-0.517639	
-0.516174	
-0.513977	
-0.512024	
-0.513	
-0.511047	
-0.509033	
-0.507263	
-0.504211	
-0.502136	
-0.498657	
-0.495056	
-0.491516	
-0.488953	
-0.488159	
-0.488037	
-0.487427	
-0.487854	
-0.487793	
-0.489502	
-0.49115	
-0.492798	
-0.493408	
-0.494385	
-0.496338	
-0.498474	
-0.500061	
-0.499878	
-0.49939	
-0.49762	
-0.496399	
-0.494202	
-0.49115	
-0.487061	
-0.483887	
-0.480225	
-0.477295	
-0.474792	
-0.470703	
-0.467529	
-0.464233	
-0.46167	
-0.460266	
-0.460632	
-0.457336	
-0.455383	
-0.454468	
-0.453979	
-0.45343	
-0.451355	
-0.44928	
-0.446838	
-0.445068	
-0.441956	
-0.43988	
-0.434326	
-0.429382	
-0.423889	
-0.419434	
-0.414246	
-0.406738	
-0.399963	
-0.39386	
-0.388611	
-0.381409	
-0.375305	
-0.366943	
-0.359253	
-0.350891	
-0.344604	
-0.337463	
-0.329529	
-0.321838	
-0.313904	
-0.306091	
-0.297791	
-0.29126	
-0.282349	
-0.273804	
-0.264832	
-0.259766	
-0.253967	
-0.247742	
-0.24353	
-0.240051	
-0.239136	
-0.23877	
-0.239929	
-0.238403	
-0.240173	
-0.241272	
-0.244385	
-0.246643	
-0.249695	
-0.253784	
-0.257385	
-0.263062	
-0.268921	
-0.272522	
-0.277344	
-0.283142	
-0.289307	
-0.295532	
-0.300293	
-0.305481	
-0.31012	
-0.316345	
-0.320251	
-0.323975	
-0.327393	
-0.331177	
-0.334534	
-0.338501	
-0.341248	
-0.343628	
-0.346008	
-0.348755	
-0.350586	
-0.354431	
-0.354004	
-0.35614	
-0.354675	
-0.358826	
-0.360291	
-0.361511	
-0.361938	
-0.363464	
-0.364197	
-0.365906	
-0.365479	
-0.365784	
-0.365479	
-0.366455	
-0.367493	
-0.366943	
-0.367065	
-0.366882	
-0.367432	
-0.367188	
-0.368469	
-0.365723	
-0.367065	
-0.364868	
-0.366882	
-0.36731	
-0.366821	
-0.366943	
-0.367493	
-0.367859	
-0.368591	
-0.368042	
-0.368347	
-0.368347	
-0.368042	
-0.36853	
-0.368652	
-0.369629	
-0.369385	
-0.370544	
-0.370483	
-0.371887	
-0.369263	
-0.370728	
-0.369568	
-0.371582	
-0.372559	
-0.372314	
-0.373108	
-0.373779	
-0.374084	
-0.374878	
-0.375732	
-0.374634	
-0.374817	
-0.373718	
-0.375061	
-0.375366	
-0.375305	
-0.375061	
-0.37561	
-0.375305	
-0.376221	
-0.375977	
-0.375366	
-0.375671	
-0.37561	
-0.376282	
-0.37561	
-0.375916	
-0.375916	
-0.376709	
-0.375977	
-0.375671	
-0.375305	
-0.374878	
-0.374512	
-0.373535	
-0.375	
-0.374634	
-0.374512	
-0.374084	
-0.374023	
-0.374756	
-0.374695	
-0.37207	
-0.372375	
-0.37262	
-0.373474	
-0.373352	
-0.373108	
-0.373535	
-0.373962	
-0.374329	
-0.374634	
-0.374756	
-0.374084	
-0.374451	
-0.374817	
-0.375977	
-0.375305	
-0.376343	
-0.375549	
-0.37738	
-0.377319	
-0.378235	
-0.377747	
-0.378418	
-0.377625	
-0.379211	
-0.380005	
-0.380676	
-0.380737	
-0.382141	
-0.38208	
-0.382751	
-0.382385	
-0.382324	
-0.383118	
-0.383484	
-0.384216	
-0.383667	
-0.384216	
-0.384277	
-0.384766	
-0.384705	
-0.385071	
-0.383301	
-0.385437	
-0.384338	
-0.385315	
-0.385315	
-0.385254	
-0.385742	
-0.387268	
-0.38623	
-0.386963	
-0.386414	
-0.386719	
-0.38678	
-0.38678	
-0.387329	
-0.386719	
-0.387268	
-0.386902	
-0.388611	
-0.387756	
-0.388367	
-0.387268	
-0.388	
-0.387634	
-0.388062	
-0.388489	
-0.388245	
-0.387634	
-0.387695	
-0.386536	
-0.386536	
-0.386597	
-0.386658	
-0.386536	
-0.385742	
-0.386047	
-0.385803	
-0.386292	
-0.386169	
-0.387146	
-0.385437	
-0.385681	
-0.38446	
-0.385132	
-0.384888	
-0.384583	
-0.384521	
-0.384766	
-0.385071	
-0.385315	
-0.387146	
-0.38562	
-0.386658	
-0.384644	
-0.385742	
-0.386047	
-0.386047	
-0.38623	
-0.386719	
-0.387085	
-0.386536	
-0.387573	
-0.387512	
-0.387939	
-0.387085	
-0.388184	
-0.387878	
-0.389282	
-0.388977	
-0.389893	
-0.390076	
-0.387268	
-0.365479	
-0.371765	
-0.373962	
-0.37561	
-0.37616	
-0.398865	
-0.402832	
-0.396301	
-0.39624	
-0.395447	
-0.395752	
-0.395203	
-0.39563	
-0.394226	
-0.395813	
-0.395935	
-0.396057	
-0.395447	
-0.395996	
-0.395264	
-0.396423	
-0.39563	
-0.395752	
-0.394531	
-0.39447	
-0.394958	
-0.39325	
-0.394592	
-0.394043	
-0.393677	
-0.393433	
-0.394531	
-0.393677	
-0.393372	
-0.392883	
-0.393799	
-0.393677	
-0.394104	
-0.393738	
-0.392944	
-0.393982	
-0.394836	
-0.393921	
-0.393555	
-0.393188	
-0.393372	
-0.393311	
-0.392395	
-0.392517	
-0.392151	
-0.391968	
-0.392883	
-0.393982	
-0.394836	
-0.395813	
-0.398682	
-0.401733	
-0.406555	
-0.411621	
-0.415649	
-0.421326	
-0.427551	
-0.433838	
-0.440002	
-0.445679	
-0.451782	
-0.457031	
-0.466064	
-0.473267	
-0.481934	
-0.48938	
-0.495728	
-0.501892	
-0.506897	
-0.511597	
-0.515076	
-0.517944	
-0.520691	
-0.522278	
-0.522156	
-0.521545	
-0.521301	
-0.520691	
-0.52063	
-0.518677	
-0.516113	
-0.513	
-0.510925	
-0.508118	
-0.505493	
-0.502563	
-0.499573	
-0.49707	
-0.495544	
-0.494263	
-0.494507	
-0.493835	
-0.493835	
-0.495361	
-0.496399	
-0.497253	
-0.49884	
-0.499023	
-0.499695	
-0.501038	
-0.501404	
-0.501099	
-0.499695	
-0.499512	
-0.495605	
-0.493469	
-0.49054	
-0.48822	
-0.484558	
-0.48175	
-0.47876	
-0.476379	
-0.473267	
-0.470215	
-0.468994	
-0.465515	
-0.465637	
-0.464294	
-0.463074	
-0.461426	
-0.460144	
-0.459045	
-0.456421	
-0.453552	
-0.450012	
-0.448059	
-0.443298	
-0.440369	
-0.433777	
-0.42926	
-0.423828	
-0.418091	
-0.412842	
-0.40564	
-0.398682	
-0.391113	
-0.385254	
-0.376465	
-0.370544	
-0.360901	
-0.352905	
-0.343689	
-0.334534	
-0.325623	
-0.316895	
-0.308533	
-0.298279	
-0.2901	
-0.279785	
-0.272461	
-0.262329	
-0.253906	
-0.246277	
-0.240173	
-0.235596	
-0.2323	
-0.229065	
-0.227844	
-0.226624	
-0.226501	
-0.227661	
-0.228821	
-0.230469	
-0.231689	
-0.235779	
-0.239929	
-0.244934	
-0.24823	
-0.255615	
-0.26001	
-0.268005	
-0.274414	
-0.280212	
-0.28656	
-0.293152	
-0.298401	
-0.304382	
-0.308533	
-0.31427	
-0.317322	
-0.322388	
-0.326294	
-0.329956	
-0.333008	
-0.336182	
-0.339294	
-0.342529	
-0.344177	
-0.346863	
-0.348328	
-0.350342	
-0.351807	
-0.354614	
-0.355591	
-0.35675	
-0.358337	
-0.359619	
-0.360962	
-0.361816	
-0.362671	
-0.363342	
-0.365967	
-0.365662	
-0.366516	
-0.366394	
-0.368286	
-0.369019	
-0.3703	
-0.369141	
-0.370911	
-0.370361	
-0.371887	
-0.372375	
-0.37262	
-0.373291	
-0.374023	
-0.374756	
-0.374939	
-0.375061	
-0.375793	
-0.375488	
-0.375977	
-0.37738	
-0.376221	
-0.376648	
-0.376465	
-0.377197	
-0.377563	
-0.378113	
-0.376526	
-0.378418	
-0.376343	
-0.378113	
-0.378479	
-0.378418	
-0.378357	
-0.377747	
-0.377991	
-0.379211	
-0.378601	
-0.377808	
-0.377625	
-0.377075	
-0.378296	
-0.377502	
-0.377136	
-0.376282	
-0.377075	
-0.377441	
-0.37677	
-0.376892	
-0.377319	
-0.377136	
-0.377747	
-0.377808	
-0.377136	
-0.377686	
-0.376587	
-0.37738	
-0.378174	
-0.377502	
-0.376526	
-0.377747	
-0.378113	
-0.378296	
-0.377197	
-0.377686	
-0.37793	
-0.377991	
-0.377869	
-0.377625	
-0.377625	
-0.378235	
-0.377991	
-0.377991	
-0.377808	
-0.377869	
-0.377869	
-0.377747	
-0.378296	
-0.378601	
-0.378906	
-0.379761	
-0.379822	
-0.380554	
-0.381531	
-0.381714	
-0.381775	
-0.380859	
-0.381836	
-0.383179	
-0.383118	
-0.382141	
-0.382568	
-0.383667	
-0.384644	
-0.385437	
-0.385132	
-0.385132	
-0.385986	
-0.387329	
-0.386475	
-0.386658	
-0.386902	
-0.386658	
-0.387146	
-0.387451	
-0.387512	
-0.387268	
-0.387512	
-0.387817	
-0.38739	
-0.387268	
-0.388062	
-0.387817	
-0.387817	
-0.38739	
-0.387878	
-0.387512	
-0.386719	
-0.388184	
-0.387817	
-0.387024	
-0.387085	
-0.386475	
-0.386963	
-0.387085	
-0.386841	
-0.385986	
-0.385742	
-0.385254	
-0.385559	
-0.385376	
-0.385193	
-0.38446	
-0.384399	
-0.383728	
-0.38385	
-0.384521	
-0.383911	
-0.383911	
-0.383911	
-0.38446	
-0.383911	
-0.384583	
-0.384094	
-0.38446	
-0.384949	
-0.384766	
-0.384827	
-0.384827	
-0.385498	
-0.386353	
-0.385986	
-0.386169	
-0.385559	
-0.385803	
-0.387024	
-0.38678	
-0.387756	
-0.387268	
-0.387939	
-0.388184	
-0.38855	
-0.388306	
-0.389099	
-0.388916	
-0.388184	
-0.388855	
-0.388733	
-0.389221	
-0.388916	
-0.389954	
-0.389221	
-0.389282	
-0.390198	
-0.390747	
-0.39032	
-0.390198	
-0.389954	
-0.390686	
-0.391296	
-0.389526	
-0.390747	
-0.390625	
-0.391418	
-0.390869	
-0.390381	
-0.391113	
-0.391602	
-0.391174	
-0.391113	
-0.390686	
-0.391296	
-0.391235	
-0.391907	
-0.391602	
-0.391296	
-0.390381	
-0.39093	
-0.391174	
-0.391235	
-0.39209	
-0.389587	
-0.390137	
-0.389832	
-0.390808	
-0.390198	
-0.390015	
-0.390259	
-0.390991	
-0.38855	
-0.389954	
-0.389648	
-0.389832	
-0.389343	
-0.390808	
-0.389893	
-0.390442	
-0.389404	
-0.390503	
-0.390442	
-0.391418	
-0.392395	
-0.392212	
-0.391968	
-0.392273	
-0.39386	
-0.39325	
-0.39386	
-0.393555	
-0.394714	
-0.392639	
-0.394348	
-0.393494	
-0.394714	
-0.39502	
-0.39563	
-0.395752	
-0.395813	
-0.394226	
-0.395874	
-0.396057	
-0.395752	
-0.395813	
-0.395264	
-0.39563	
-0.39502	
-0.396057	
-0.394775	
-0.395935	
-0.39502	
-0.395447	
-0.394226	
-0.394531	
-0.393005	
-0.395081	
-0.395386	
-0.394897	
-0.394653	
-0.394104	
-0.39386	
-0.394348	
-0.394104	
-0.393005	
-0.394958	
-0.393799	
-0.393677	
-0.393311	
-0.394592	
-0.393372	
-0.393372	
-0.391724	
-0.39325	
-0.391724	
-0.391968	
-0.391663	
-0.391479	
-0.391052	
-0.391174	
-0.391785	
-0.390198	
-0.390137	
-0.387939	
-0.388733	
-0.389038	
-0.388855	
-0.387939	
-0.388367	
-0.38855	
-0.388489	
-0.38855	
-0.388489	
-0.389282	
-0.388733	
-0.388733	
-0.388672	
-0.389587	
-0.389282	
-0.389404	
-0.389404	
-0.390015	
-0.389709	
-0.390259	
-0.390686	
-0.390076	
-0.390503	
-0.389648	
-0.390808	
-0.391357	
-0.391907	
-0.390991	
-0.393738	
-0.393616	
-0.393738	
-0.393738	
-0.393311	
-0.394165	
-0.393311	
-0.394348	
-0.394531	
-0.394592	
-0.395142	
-0.396057	
-0.395081	
-0.395142	
-0.395325	
-0.395569	
-0.395752	
-0.394653	
-0.395691	
-0.395691	
-0.396606	
-0.396851	
-0.396606	
-0.396179	
-0.396545	
-0.395691	
-0.395996	
-0.395325	
-0.395325	
-0.395874	
-0.395447	
-0.394775	
-0.396545	
-0.395142	
-0.394958	
-0.394043	
-0.393799	
-0.393677	
-0.393494	
-0.393188	
-0.393005	
-0.392517	
-0.393066	
-0.393738	
-0.392578	
-0.392334	
-0.393005	
-0.392273	
-0.392456	
-0.392395	
-0.392517	
-0.392517	
-0.392029	
-0.394104	
-0.393677	
-0.393127	
-0.392212	
-0.394409	
-0.394592	
-0.394287	
-0.392761	
-0.394287	
-0.395081	
-0.396118	
-0.39624	
-0.395569	
-0.395874	
-0.395325	
-0.3974	
-0.39624	
-0.39679	
-0.395203	
-0.396851	
-0.397156	
-0.397095	
-0.397156	
-0.397034	
-0.396545	
-0.396301	
-0.39801	
-0.3974	
-0.397278	
-0.396362	
-0.39679	
-0.395447	
-0.397339	
-0.397888	
-0.396667	
-0.396667	
-0.396118	
-0.397644	
-0.397583	
-0.396851	
-0.396179	
-0.397156	
-0.397217	
-0.397949	
-0.397583	
-0.397034	
-0.39624	
-0.39801	
-0.398743	
-0.397278	
-0.396606	
-0.39563	
-0.396118	
-0.396057	
-0.39679	
-0.395264	
-0.394592	
-0.39386	
-0.39563	
-0.394653	
-0.395569	
-0.393677	
-0.392578	
-0.393188	
-0.393738	
-0.393738	
-0.392944	
-0.392395	
-0.391113	
-0.393311	
-0.392395	
-0.392029	
-0.391235	
-0.391541	
-0.391785	
-0.392822	
-0.392578	
-0.39209	
-0.392395	
-0.392639	
-0.393738	
-0.393372	
-0.3927	
-0.391479	
-0.392517	
-0.39325	
-0.394287	
-0.393005	
-0.393555	
-0.393005	
-0.394409	
-0.394958	
-0.395386	
-0.39386	
-0.394104	
-0.394897	
-0.395813	
-0.3974	
-0.39679	
-0.397095	
-0.395325	
-0.397644	
-0.397888	
-0.398193	
-0.39856	
-0.398438	
-0.398682	
-0.399719	
-0.399902	
-0.399719	
-0.399536	
-0.397827	
-0.400146	
-0.400879	
-0.400085	
-0.399719	
-0.399597	
-0.39917	
-0.399963	
-0.398987	
-0.398376	
-0.397766	
-0.398193	
-0.39917	
-0.398438	
-0.397339	
-0.397156	
-0.396545	
-0.397583	
-0.398132	
-0.396118	
-0.396362	
-0.395996	
-0.396484	
-0.396851	
-0.39679	
-0.396118	
-0.395691	
-0.396179	
-0.396545	
-0.396667	
-0.396057	
-0.395874	
-0.395935	
-0.396118	
-0.397156	
-0.396179	
-0.395081	
-0.394531	
-0.394897	
-0.396057	
-0.396301	
-0.395874	
-0.395264	
-0.395508	
-0.396545	
-0.39679	
-0.395935	
-0.394897	
-0.394592	
-0.395264	
-0.396973	
-0.397278	
-0.395691	
-0.394836	
-0.395447	
-0.3974	
-0.397339	
-0.396606	
-0.396301	
-0.396301	
-0.395996	
-0.3974	
-0.398132	
-0.397705	
-0.397583	
-0.396851	
-0.398132	
-0.397522	
-0.397522	
-0.397522	
-0.397766	
-0.398071	
-0.398438	
-0.398438	
-0.397827	
-0.398071	
-0.396667	
-0.398804	
-0.397949	
-0.3974	
-0.39624	
-0.396118	
-0.396362	
-0.396301	
-0.395752	
-0.394653	
-0.395325	
-0.394165	
-0.396179	
-0.394836	
-0.394531	
-0.393494	
-0.394226	
-0.393799	
-0.393921	
-0.394104	
-0.393005	
-0.393738	
-0.393494	
-0.394104	
-0.393005	
-0.393433	
-0.392639	
-0.393799	
-0.393372	
-0.394287	
-0.394043	
-0.393677	
-0.393616	
-0.394531	
-0.394897	
-0.39502	
-0.394653	
-0.393982	
-0.394836	
-0.394897	
-0.395081	
-0.394531	
-0.395081	
-0.395508	
-0.39563	
-0.394958	
-0.395996	
-0.395203	
-0.395691	
-0.395874	
-0.396179	
-0.39679	
-0.395325	
-0.39679	
-0.396973	
-0.398193	
-0.398132	
-0.398926	
-0.398193	
-0.399109	
-0.398926	
-0.400024	
-0.400513	
-0.401001	
-0.401489	
-0.401306	
-0.40271	
-0.402344	
-0.402954	
-0.402283	
-0.40271	
-0.400696	
-0.401306	
-0.4021	
-0.401306	
-0.401062	
-0.401123	
-0.403259	
-0.401855	
-0.401489	
-0.400391	
-0.401428	
-0.399597	
-0.400696	
-0.400574	
-0.40033	
-0.400146	
-0.400146	
-0.401855	
-0.399841	
-0.399353	
-0.398254	
-0.399231	
-0.397461	
-0.397766	
-0.396667	
-0.397339	
-0.397217	
-0.396118	
-0.397583	
-0.396118	
-0.396423	
-0.39502	
-0.395508	
-0.395508	
-0.395508	
-0.395569	
-0.39563	
-0.395508	
-0.394165	
-0.395996	
-0.395081	
-0.394653	
-0.392334	
-0.393921	
-0.394287	
-0.394592	
-0.394958	
-0.394287	
-0.39447	
-0.395264	
-0.395508	
-0.395569	
-0.395142	
-0.394958	
-0.395691	
-0.39563	
-0.395935	
-0.395996	
-0.396362	
-0.397278	
-0.397888	
-0.397522	
-0.398315	
-0.397583	
-0.398315	
-0.397461	
-0.398132	
-0.39856	
-0.398621	
-0.398804	
-0.398499	
-0.399414	
-0.398743	
-0.399353	
-0.397705	
-0.398315	
-0.398132	
-0.398193	
-0.398499	
-0.398071	
-0.397522	
-0.39679	
-0.398071	
-0.3974	
-0.397583	
-0.39563	
-0.39624	
-0.394653	
-0.395081	
-0.395325	
-0.394836	
-0.394348	
-0.394409	
-0.396057	
-0.394104	
-0.394531	
-0.393127	
-0.394836	
-0.3927	
-0.394226	
-0.394592	
-0.394104	
-0.393921	
-0.393799	
-0.395813	
-0.39386	
-0.394348	
-0.393005	
-0.394531	
-0.392822	
-0.394226	
-0.393982	
-0.394165	
-0.393372	
-0.393494	
-0.395386	
-0.393494	
-0.393494	
-0.391846	
-0.393982	
-0.393982	
-0.393555	
-0.392639	
-0.393311	
-0.393555	
-0.393433	
-0.395081	
-0.394897	
-0.394836	
-0.393555	
-0.395569	
-0.39563	
-0.395935	
-0.395691	
-0.396118	
-0.396545	
-0.395691	
-0.396667	
-0.397644	
-0.396667	
-0.396851	
-0.397766	
-0.39801	
-0.398376	
-0.398804	
-0.398621	
-0.398499	
-0.398193	
-0.398376	
-0.398865	
-0.397949	
-0.398499	
-0.397949	
-0.398376	
-0.397644	
-0.397644	
-0.397278	
-0.397461	
-0.398499	
-0.39801	
-0.397522	
-0.396667	
-0.397888	
-0.396606	
-0.396545	
-0.396301	
-0.395935	
-0.395935	
-0.39563	
-0.396606	
-0.394897	
-0.395386	
-0.393921	
-0.394897	
-0.393066	
-0.393372	
-0.392822	
-0.392273	
-0.392273	
-0.392578	
-0.393005	
-0.391479	
-0.392029	
-0.388855	
-0.391418	
-0.390259	
-0.390869	
-0.390625	
-0.390869	
-0.39093	
-0.391418	
-0.390991	
-0.39093	
-0.391785	
-0.39093	
-0.392334	
-0.391541	
-0.392334	
-0.391846	
-0.392395	
-0.392883	
-0.39325	
-0.393066	
-0.392822	
-0.392273	
-0.393494	
-0.394165	
-0.392639	
-0.393372	
-0.393005	
-0.393982	
-0.39386	
-0.394592	
-0.39386	
-0.393738	
-0.393188	
-0.394226	
-0.394348	
-0.393066	
-0.39386	
-0.394226	
-0.394409	
-0.395203	
-0.395569	
-0.394897	
-0.394836	
-0.394165	
-0.394592	
-0.394287	
-0.393311	
-0.394226	
-0.39447	
-0.394714	
-0.395325	
-0.395569	
-0.39447	
-0.394836	
-0.393738	
-0.394714	
-0.394897	
-0.393494	
-0.394348	
-0.395081	
-0.394165	
-0.394348	
-0.394226	
-0.39386	
-0.393066	
-0.392334	
-0.393677	
-0.392395	
-0.391418	
-0.392273	
-0.39325	
-0.392883	
-0.39325	
-0.392334	
-0.392456	
-0.39209	
-0.391235	
-0.392883	
-0.39209	
-0.391418	
-0.392212	
-0.39325	
-0.393066	
-0.39447	
-0.392578	
-0.394104	
-0.393311	
-0.394592	
-0.395508	
-0.394714	
-0.393982	
-0.394714	
-0.395569	
-0.395813	
-0.395935	
-0.395569	
-0.396362	
-0.396667	
-0.397156	
-0.396606	
-0.39679	
-0.39563	
-0.396851	
-0.397339	
-0.397583	
-0.396606	
-0.396484	
-0.396729	
-0.396362	
-0.396057	
-0.395874	
-0.395813	
-0.395508	
-0.396667	
-0.395508	
-0.396179	
-0.395935	
-0.395264	
-0.395752	
-0.395081	
-0.39624	
-0.395264	
-0.39502	
-0.394226	
-0.395874	
-0.395264	
-0.395386	
-0.395569	
-0.394165	
-0.39325	
-0.39386	
-0.394104	
-0.39325	
-0.393433	
-0.392639	
-0.393494	
-0.392334	
-0.392761	
-0.391357	
-0.391663	
-0.390442	
-0.390503	
-0.39093	
-0.389771	
-0.389343	
-0.388855	
-0.388733	
-0.388977	
-0.388	
-0.388672	
-0.388733	
-0.387634	
-0.388184	
-0.389465	
-0.388794	
-0.388611	
-0.388489	
-0.38855	
-0.389038	
-0.389709	
-0.389832	
-0.389648	
-0.389648	
-0.389709	
-0.390076	
-0.389709	
-0.389771	
-0.389832	
-0.390564	
-0.391113	
-0.391235	
-0.391785	
-0.391663	
-0.392639	
-0.393066	
-0.393066	
-0.39325	
-0.392944	
-0.393494	
-0.393982	
-0.39447	
-0.393799	
-0.394348	
-0.394043	
-0.394043	
-0.394897	
-0.395203	
-0.394714	
-0.394836	
-0.395203	
-0.394836	
-0.395508	
-0.395325	
-0.395935	
-0.395508	
-0.395813	
-0.396179	
-0.395447	
-0.395447	
-0.395325	
-0.39502	
-0.395569	
-0.39563	
-0.395386	
-0.394592	
-0.394348	
-0.393677	
-0.39447	
-0.39386	
-0.393433	
-0.393066	
-0.392029	
-0.392334	
-0.392578	
-0.392395	
-0.391846	
-0.39209	
-0.390747	
-0.392151	
-0.391418	
-0.391052	
-0.391907	
-0.391235	
-0.390991	
-0.391968	
-0.392212	
-0.391785	
-0.391235	
-0.391724	
-0.393677	
-0.392822	
-0.392944	
-0.393494	
-0.393433	
-0.393738	
-0.39386	
-0.393921	
-0.394775	
-0.394775	
-0.395081	
-0.39679	
-0.395142	
-0.395325	
-0.394592	
-0.395325	
-0.395874	
-0.396118	
-0.395752	
-0.395325	
-0.394348	
-0.395691	
-0.397034	
-0.395691	
-0.395996	
-0.394592	
-0.395325	
-0.395935	
-0.39679	
-0.395203	
-0.395508	
-0.393738	
-0.39563	
-0.396729	
-0.395813	
-0.39624	
-0.394287	
-0.395996	
-0.396118	
-0.397217	
-0.395935	
-0.395325	
-0.393799	
-0.396423	
-0.396973	
-0.395752	
-0.395935	
-0.393433	
-0.394958	
-0.394409	
-0.394714	
-0.393738	
-0.393555	
-0.39209	
-0.394043	
-0.393982	
-0.393066	
-0.393555	
-0.390747	
-0.392395	
-0.391968	
-0.392029	
-0.391724	
-0.390747	
-0.390869	
-0.391418	
-0.390259	
-0.39093	
-0.391541	
-0.389893	
-0.390503	
-0.391113	
-0.390869	
-0.390564	
-0.390198	
-0.390869	
-0.391479	
-0.391235	
-0.391357	
-0.391235	
-0.390686	
-0.391174	
-0.391541	
-0.391357	
-0.391418	
-0.391357	
-0.392273	
-0.393066	
-0.392517	
-0.392883	
-0.393005	
-0.392761	
-0.393921	
-0.393738	
-0.393921	
-0.394348	
-0.394043	
-0.395081	
-0.397034	
-0.39624	
-0.396606	
-0.396606	
-0.396301	
-0.397522	
-0.396912	
-0.397888	
-0.3974	
-0.397217	
-0.397766	
-0.398926	
-0.397827	
-0.397827	
-0.397522	
-0.397156	
-0.398254	
-0.39679	
-0.396912	
-0.395996	
-0.395996	
-0.395935	
-0.396851	
-0.395874	
-0.39502	
-0.394714	
-0.394409	
-0.395813	
-0.395325	
-0.394653	
-0.394043	
-0.394226	
-0.394165	
-0.394409	
-0.393738	
-0.394409	
-0.394714	
-0.393494	
-0.395142	
-0.393982	
-0.393982	
-0.393005	
-0.393188	
-0.394287	
-0.393738	
-0.393188	
-0.393372	
-0.394409	
-0.3927	
-0.394043	
-0.393311	
-0.393555	
-0.392334	
-0.392273	
-0.394714	
-0.393677	
-0.392944	
-0.39325	
-0.394287	
-0.393311	
-0.394348	
-0.392944	
-0.394348	
-0.392517	
	
