E:\DOCUMENTS AND SETTINGS\JPOTAS\MEUS DOCUMENTOS\UFRJ\RSCI-BM 12 WK SERIES\070803-RSCI-BM-11\RSCI-BM-11-REMG\070803-RSCI-BM-11-REMG-0001.ACQ
0.025000 msec/sample
1 channel
Analog input
Volts
CH1	
2000	
-0.390564	
-0.389954	
-0.389526	
-0.391296	
-0.390015	
-0.390076	
-0.390015	
-0.388916	
-0.389526	
-0.389832	
-0.389526	
-0.388733	
-0.388428	
-0.387939	
-0.387756	
-0.38855	
-0.388123	
-0.387695	
-0.388062	
-0.388	
-0.387512	
-0.387451	
-0.388062	
-0.387207	
-0.386414	
-0.38562	
-0.385742	
-0.386719	
-0.385803	
-0.386108	
-0.385864	
-0.384583	
-0.385925	
-0.385742	
-0.385803	
-0.385437	
-0.385132	
-0.384155	
-0.385437	
-0.38678	
-0.386597	
-0.386658	
-0.386719	
-0.387878	
-0.387451	
-0.387817	
-0.388916	
-0.388855	
-0.389038	
-0.388611	
-0.388062	
-0.390991	
-0.390686	
-0.391296	
-0.391663	
-0.390686	
-0.391846	
-0.392273	
-0.393005	
-0.392273	
-0.392273	
-0.391418	
-0.390991	
-0.392578	
-0.391907	
-0.391968	
-0.391907	
-0.391541	
-0.391296	
-0.391357	
-0.392273	
-0.391846	
-0.391663	
-0.390869	
-0.389221	
-0.391602	
-0.390503	
-0.390991	
-0.390991	
-0.390991	
-0.391113	
-0.390808	
-0.392456	
-0.391174	
-0.390991	
-0.389954	
-0.389099	
-0.390686	
-0.390381	
-0.390381	
-0.389954	
-0.389038	
-0.389038	
-0.388672	
-0.389404	
-0.388245	
-0.388611	
-0.387939	
-0.38739	
-0.39032	
-0.390442	
-0.389954	
-0.389404	
-0.388367	
-0.388428	
-0.388855	
-0.388489	
-0.386658	
-0.386475	
-0.386658	
-0.385681	
-0.387695	
-0.388	
-0.387939	
-0.388306	
-0.387085	
-0.388672	
-0.388794	
-0.389404	
-0.388977	
-0.388611	
-0.388794	
-0.387695	
-0.389404	
-0.38916	
-0.388855	
-0.389648	
-0.389221	
-0.389465	
-0.389221	
-0.390198	
-0.391113	
-0.391052	
-0.390259	
-0.388855	
-0.390625	
-0.390625	
-0.390259	
-0.39093	
-0.389709	
-0.390076	
-0.390564	
-0.389954	
-0.391541	
-0.390137	
-0.390015	
-0.389771	
-0.391052	
-0.392029	
-0.391296	
-0.391418	
-0.391052	
-0.391296	
-0.391235	
-0.390747	
-0.391541	
-0.390564	
-0.390198	
-0.389832	
-0.39093	
-0.391602	
-0.390381	
-0.390869	
-0.389648	
-0.389648	
-0.390259	
-0.389771	
-0.391174	
-0.38916	
-0.389282	
-0.388306	
-0.388794	
-0.389709	
-0.388916	
-0.388977	
-0.388855	
-0.389099	
-0.389404	
-0.38916	
-0.390015	
-0.389404	
-0.389099	
-0.388916	
-0.389954	
-0.391174	
-0.390076	
-0.390198	
-0.389709	
-0.389832	
-0.389526	
-0.389587	
-0.391174	
-0.389832	
-0.390015	
-0.389404	
-0.390381	
-0.391479	
-0.387146	
-0.38269	
-0.382324	
-0.382263	
-0.383118	
-0.382813	
-0.388367	
-0.392334	
-0.392456	
-0.392578	
-0.393738	
-0.394836	
-0.39386	
-0.394104	
-0.393677	
-0.394409	
-0.394165	
-0.394409	
-0.395813	
-0.394653	
-0.393738	
-0.392883	
-0.393555	
-0.393799	
-0.393005	
-0.392395	
-0.391846	
-0.392151	
-0.391968	
-0.391602	
-0.392334	
-0.39093	
-0.390503	
-0.390137	
-0.389587	
-0.390808	
-0.389954	
-0.39032	
-0.389587	
-0.389587	
-0.390259	
-0.39093	
-0.391235	
-0.390076	
-0.390503	
-0.390076	
-0.390503	
-0.391785	
-0.390808	
-0.391846	
-0.391235	
-0.391846	
-0.391663	
-0.391602	
-0.392639	
-0.391235	
-0.391235	
-0.391479	
-0.391785	
-0.3927	
-0.391296	
-0.391724	
-0.391541	
-0.391663	
-0.391663	
-0.391602	
-0.393433	
-0.391907	
-0.392517	
-0.390503	
-0.390015	
-0.391541	
-0.39209	
-0.392883	
-0.392944	
-0.391907	
-0.393066	
-0.393799	
-0.39447	
-0.39447	
-0.393921	
-0.393433	
-0.394836	
-0.395813	
-0.395203	
-0.39563	
-0.395264	
-0.395325	
-0.397461	
-0.398315	
-0.399475	
-0.398438	
-0.39801	
-0.397644	
-0.39917	
-0.399963	
-0.399902	
-0.40033	
-0.400452	
-0.399658	
-0.4021	
-0.402649	
-0.403015	
-0.403809	
-0.403076	
-0.403687	
-0.405396	
-0.406067	
-0.405151	
-0.404968	
-0.404297	
-0.404175	
-0.40448	
-0.405518	
-0.403748	
-0.403381	
-0.402222	
-0.403381	
-0.404297	
-0.404541	
-0.405029	
-0.404541	
-0.405212	
-0.405884	
-0.406372	
-0.406555	
-0.405884	
-0.405884	
-0.405029	
-0.405273	
-0.405518	
-0.404907	
-0.404663	
-0.403564	
-0.402405	
-0.403259	
-0.403198	
-0.4021	
-0.401855	
-0.400879	
-0.400452	
-0.400513	
-0.400635	
-0.40033	
-0.401001	
-0.400024	
-0.399841	
-0.399658	
-0.400757	
-0.398804	
-0.39856	
-0.397095	
-0.396545	
-0.396423	
-0.395874	
-0.395142	
-0.395203	
-0.393372	
-0.392334	
-0.393188	
-0.393982	
-0.392517	
-0.392273	
-0.391907	
-0.391602	
-0.392822	
-0.393311	
-0.392395	
-0.392944	
-0.391907	
-0.391479	
-0.391602	
-0.392212	
-0.390076	
-0.388794	
-0.387451	
-0.386475	
-0.385864	
-0.38562	
-0.384033	
-0.383301	
-0.381714	
-0.380493	
-0.380127	
-0.379395	
-0.378235	
-0.376465	
-0.375183	
-0.37323	
-0.37323	
-0.372864	
-0.371033	
-0.370544	
-0.368774	
-0.366821	
-0.365479	
-0.364502	
-0.362183	
-0.359985	
-0.357849	
-0.356812	
-0.356689	
-0.355103	
-0.353577	
-0.353149	
-0.352112	
-0.352539	
-0.352295	
-0.352173	
-0.351501	
-0.35144	
-0.35022	
-0.351868	
-0.352478	
-0.351624	
-0.351868	
-0.351135	
-0.34967	
-0.350525	
-0.350952	
-0.350098	
-0.348267	
-0.346985	
-0.346497	
-0.345886	
-0.345032	
-0.343384	
-0.343079	
-0.341187	
-0.34082	
-0.340454	
-0.340088	
-0.339905	
-0.337708	
-0.335449	
-0.336365	
-0.337402	
-0.337585	
-0.338196	
-0.338074	
-0.338501	
-0.338989	
-0.341248	
-0.341187	
-0.342346	
-0.343323	
-0.343628	
-0.344604	
-0.345032	
-0.34436	
-0.345215	
-0.34491	
-0.345276	
-0.344849	
-0.345703	
-0.345093	
-0.345947	
-0.344177	
-0.344971	
-0.346436	
-0.347046	
-0.347229	
-0.347595	
-0.346558	
-0.347839	
-0.347351	
-0.347534	
-0.346924	
-0.347107	
-0.347412	
-0.349121	
-0.349548	
-0.349792	
-0.350525	
-0.350159	
-0.350525	
-0.351257	
-0.351868	
-0.351685	
-0.351563	
-0.350891	
-0.35199	
-0.353027	
-0.353699	
-0.354065	
-0.353943	
-0.353943	
-0.356079	
-0.357544	
-0.358337	
-0.358337	
-0.358948	
-0.359436	
-0.361267	
-0.362793	
-0.362183	
-0.363464	
-0.363586	
-0.363892	
-0.364929	
-0.365662	
-0.365784	
-0.364929	
-0.365601	
-0.365906	
-0.36731	
-0.367493	
-0.368225	
-0.36792	
-0.367126	
-0.369019	
-0.368164	
-0.369507	
-0.369446	
-0.368469	
-0.368225	
-0.368225	
-0.370056	
-0.368896	
-0.36969	
-0.369202	
-0.368652	
-0.369995	
-0.369995	
-0.371338	
-0.370361	
-0.369873	
-0.370178	
-0.369995	
-0.371216	
-0.37085	
-0.37146	
-0.370789	
-0.371155	
-0.371826	
-0.372009	
-0.37146	
-0.371216	
-0.371216	
-0.37146	
-0.370789	
-0.371521	
-0.371094	
-0.371033	
-0.369995	
-0.370117	
-0.371338	
-0.370422	
-0.370422	
-0.369446	
-0.369568	
-0.369385	
-0.370544	
-0.370483	
-0.371094	
-0.371399	
-0.370239	
-0.371399	
-0.371155	
-0.372864	
-0.372437	
-0.370728	
-0.372498	
-0.372131	
-0.374023	
-0.373413	
-0.373108	
-0.372803	
-0.373535	
-0.374146	
-0.373901	
-0.374451	
-0.373291	
-0.372131	
-0.372986	
-0.372925	
-0.372925	
-0.373291	
-0.372498	
-0.37207	
-0.372253	
-0.374023	
-0.372437	
-0.372009	
-0.371765	
-0.371277	
-0.370422	
-0.37207	
-0.371521	
-0.372009	
-0.371277	
-0.371765	
-0.37207	
-0.372131	
-0.372742	
-0.371826	
-0.371094	
-0.371582	
-0.371826	
-0.37262	
-0.372498	
-0.372559	
-0.371826	
-0.372986	
-0.374878	
-0.374817	
-0.375	
-0.37323	
-0.372681	
-0.373352	
-0.373901	
-0.373535	
-0.374634	
-0.373779	
-0.371704	
-0.373291	
-0.374146	
-0.37384	
-0.373169	
-0.372314	
-0.371155	
-0.370911	
-0.372131	
-0.371826	
-0.372803	
-0.372803	
-0.372314	
-0.373352	
-0.373413	
-0.37323	
-0.372986	
-0.373108	
-0.373047	
-0.372925	
-0.374084	
-0.374329	
-0.373413	
-0.37262	
-0.373901	
-0.374451	
-0.374939	
-0.375122	
-0.374451	
-0.375366	
-0.375305	
-0.37738	
-0.376343	
-0.377808	
-0.377258	
-0.37738	
-0.378479	
-0.378174	
-0.379395	
-0.379211	
-0.378845	
-0.379089	
-0.379761	
-0.381042	
-0.380249	
-0.381226	
-0.380676	
-0.380981	
-0.381042	
-0.38208	
-0.382324	
-0.381287	
-0.382446	
-0.381226	
-0.381897	
-0.382751	
-0.383484	
-0.382751	
-0.382385	
-0.383057	
-0.382751	
-0.383423	
-0.383301	
-0.381714	
-0.381897	
-0.381897	
-0.382507	
-0.381714	
-0.38208	
-0.381287	
-0.381409	
-0.381409	
-0.382202	
-0.381836	
-0.38147	
-0.381348	
-0.380249	
-0.38031	
-0.381714	
-0.381042	
-0.380615	
-0.379578	
-0.380371	
-0.379456	
-0.380737	
-0.379272	
-0.379211	
-0.379028	
-0.378784	
-0.37915	
-0.379028	
-0.37854	
-0.378479	
-0.378723	
-0.378906	
-0.3797	
-0.380371	
-0.380493	
-0.38031	
-0.380493	
-0.38092	
-0.38147	
-0.382446	
-0.381836	
-0.381714	
-0.382507	
-0.383911	
-0.38446	
-0.384583	
-0.383667	
-0.384827	
-0.38501	
-0.385132	
-0.385132	
-0.385803	
-0.384827	
-0.384216	
-0.38562	
-0.385498	
-0.386047	
-0.385681	
-0.385071	
-0.384155	
-0.384888	
-0.385864	
-0.38562	
-0.384521	
-0.384521	
-0.385193	
-0.385559	
-0.38562	
-0.385437	
-0.384949	
-0.384583	
-0.384521	
-0.384888	
-0.385132	
-0.385254	
-0.384827	
-0.384216	
-0.384705	
-0.385376	
-0.385132	
-0.384705	
-0.383057	
-0.383606	
-0.38385	
-0.383606	
-0.383362	
-0.383118	
-0.382935	
-0.38208	
-0.382324	
-0.383545	
-0.384888	
-0.384766	
-0.384766	
-0.384216	
-0.383667	
-0.383362	
-0.384827	
-0.384033	
-0.382996	
-0.382446	
-0.381897	
-0.382324	
-0.383728	
-0.383789	
-0.383728	
-0.384033	
-0.384949	
-0.385437	
-0.385071	
-0.385376	
-0.384338	
-0.385437	
-0.385437	
-0.386475	
-0.386658	
-0.387024	
-0.386292	
-0.385498	
-0.386719	
-0.386597	
-0.386536	
-0.386353	
-0.387573	
-0.387634	
-0.388123	
-0.388855	
-0.386719	
-0.387756	
-0.387756	
-0.387024	
-0.387146	
-0.388367	
-0.388	
-0.387085	
-0.388062	
-0.387817	
-0.388	
-0.388	
-0.38916	
-0.388123	
-0.387756	
-0.388672	
-0.389526	
-0.388733	
-0.388733	
-0.387634	
-0.389099	
-0.38855	
-0.389099	
-0.388306	
-0.389282	
-0.387756	
-0.388367	
-0.388245	
-0.388916	
-0.388306	
-0.387207	
-0.387817	
-0.387573	
-0.387695	
-0.388306	
-0.386353	
-0.387329	
-0.386597	
-0.387329	
-0.386414	
-0.386475	
-0.387085	
-0.386475	
-0.386475	
-0.387329	
-0.387695	
-0.387878	
-0.387573	
-0.388123	
-0.386719	
-0.388	
-0.388672	
-0.388	
-0.388123	
-0.387634	
-0.388733	
-0.387817	
-0.38916	
-0.388123	
-0.388672	
-0.388489	
-0.388672	
-0.388855	
-0.389648	
-0.388794	
-0.388855	
-0.388855	
-0.389343	
-0.389282	
-0.390686	
-0.389587	
-0.390503	
-0.391113	
-0.391968	
-0.392578	
-0.392151	
-0.392029	
-0.392578	
-0.392822	
-0.39325	
-0.3927	
-0.392334	
-0.392578	
-0.392456	
-0.391296	
-0.391907	
-0.393799	
-0.391968	
-0.390808	
-0.390198	
-0.390869	
-0.390503	
-0.39093	
-0.389954	
-0.389648	
-0.389465	
-0.389282	
-0.389038	
-0.389526	
-0.389221	
-0.388855	
-0.387512	
-0.388733	
-0.388672	
-0.389343	
-0.388977	
-0.389099	
-0.389282	
-0.389282	
-0.390015	
-0.389954	
-0.390259	
-0.390015	
-0.38855	
-0.390564	
-0.39032	
-0.390198	
-0.390564	
-0.390076	
-0.390076	
-0.390564	
-0.391663	
-0.390381	
-0.390442	
-0.390198	
-0.390259	
-0.390198	
-0.391113	
-0.390381	
-0.39093	
-0.390991	
-0.390625	
-0.389587	
-0.39032	
-0.389832	
-0.390503	
-0.391174	
-0.391541	
-0.392578	
-0.393127	
-0.3927	
-0.391663	
-0.392334	
-0.393005	
-0.392517	
-0.393738	
-0.39325	
-0.393066	
-0.39209	
-0.394287	
-0.39386	
-0.394348	
-0.395264	
-0.394592	
-0.393066	
-0.393372	
-0.392883	
-0.393616	
-0.393005	
-0.392456	
-0.391418	
-0.392456	
-0.392883	
-0.391602	
-0.39209	
-0.391479	
-0.391357	
-0.392029	
-0.393433	
-0.392273	
-0.392151	
-0.392029	
-0.392151	
-0.393005	
-0.393188	
-0.39209	
-0.391907	
-0.391785	
-0.392334	
-0.391846	
-0.392395	
-0.391724	
-0.392151	
-0.390686	
-0.390686	
-0.391541	
-0.391235	
-0.390747	
-0.390625	
-0.390076	
-0.390503	
-0.389832	
-0.390442	
-0.389832	
-0.390076	
-0.388794	
-0.388733	
-0.390076	
-0.389587	
-0.389771	
-0.388	
-0.388367	
-0.388794	
-0.389587	
-0.390381	
-0.389954	
-0.389526	
-0.390381	
-0.391174	
-0.39093	
-0.391113	
-0.391479	
-0.390869	
-0.391785	
-0.392151	
-0.391968	
-0.392639	
-0.392029	
-0.391541	
-0.392151	
-0.393494	
-0.393494	
-0.392761	
-0.393799	
-0.392212	
-0.39325	
-0.39325	
-0.394897	
-0.394409	
-0.39386	
-0.393494	
-0.393677	
-0.395142	
-0.394958	
-0.394714	
-0.394775	
-0.392761	
-0.393921	
-0.393799	
-0.394653	
-0.392944	
-0.392944	
-0.391968	
-0.39209	
-0.393127	
-0.391174	
-0.391296	
-0.390381	
-0.390442	
-0.389771	
-0.388367	
-0.389893	
-0.388306	
-0.388123	
-0.38739	
-0.386963	
-0.388916	
-0.387512	
-0.388062	
-0.387146	
-0.387146	
-0.387451	
-0.387024	
-0.388428	
-0.387512	
-0.387329	
-0.38678	
-0.388367	
-0.388428	
-0.388367	
-0.388733	
-0.386902	
-0.388245	
-0.387817	
-0.388489	
-0.388428	
-0.388855	
-0.388855	
-0.388	
-0.389282	
-0.389587	
-0.389587	
-0.389343	
-0.387756	
-0.389404	
-0.388855	
-0.390869	
-0.389893	
-0.390625	
-0.389832	
-0.390015	
-0.39209	
-0.391174	
-0.391357	
-0.391357	
-0.390259	
-0.390198	
-0.388977	
-0.391663	
-0.391418	
-0.391663	
-0.391113	
-0.391418	
-0.393188	
-0.392273	
-0.391968	
-0.391418	
-0.393188	
-0.394043	
-0.39386	
-0.394775	
-0.392639	
-0.391968	
-0.391602	
-0.391968	
-0.392944	
-0.391602	
-0.391846	
-0.390686	
-0.391174	
-0.391235	
-0.391296	
-0.392212	
-0.390869	
-0.390442	
-0.390259	
-0.391113	
-0.390625	
-0.389282	
-0.389282	
-0.38739	
-0.388977	
-0.389526	
-0.39032	
-0.390686	
-0.389893	
-0.390015	
-0.38916	
-0.390625	
-0.389893	
-0.389526	
-0.389587	
-0.388	
-0.389587	
-0.388611	
-0.389954	
-0.389343	
-0.389099	
-0.388489	
-0.38678	
-0.389832	
-0.388855	
-0.389404	
-0.388489	
-0.387634	
-0.388855	
-0.388	
-0.390442	
-0.389404	
-0.389465	
-0.38916	
-0.389221	
-0.391052	
-0.390015	
-0.39093	
-0.389709	
-0.388794	
-0.390503	
-0.390503	
-0.392212	
-0.391357	
-0.391113	
-0.390869	
-0.391418	
-0.392395	
-0.391174	
-0.391541	
-0.389954	
-0.389893	
-0.390381	
-0.390259	
-0.390686	
-0.389893	
-0.389832	
-0.388733	
-0.39032	
-0.391968	
-0.390625	
-0.390991	
-0.390381	
-0.39032	
-0.390137	
-0.391113	
-0.391235	
-0.390259	
-0.389709	
-0.38916	
-0.389893	
-0.390381	
-0.389587	
-0.389526	
-0.387878	
-0.388733	
-0.388123	
-0.388855	
-0.388184	
-0.387573	
-0.386902	
-0.386536	
-0.38739	
-0.386658	
-0.386414	
-0.386292	
-0.384216	
-0.386169	
-0.385986	
-0.387085	
-0.386841	
-0.387207	
-0.387268	
-0.386719	
-0.388733	
-0.388184	
-0.388794	
-0.388	
-0.387573	
-0.389038	
-0.38916	
-0.390686	
-0.390198	
-0.390076	
-0.390137	
-0.389954	
-0.391541	
-0.390259	
-0.390625	
-0.390503	
-0.390015	
-0.390076	
-0.38916	
-0.390503	
-0.389587	
-0.389771	
-0.388489	
-0.38855	
-0.390747	
-0.389526	
-0.390015	
-0.388794	
-0.388733	
-0.389465	
-0.390259	
-0.390564	
-0.389404	
-0.389893	
-0.389587	
-0.389648	
-0.390869	
-0.389526	
-0.390076	
-0.38916	
-0.389832	
-0.388916	
-0.389771	
-0.389832	
-0.388062	
-0.389282	
-0.390259	
-0.390503	
-0.390198	
-0.388916	
-0.388794	
-0.387085	
-0.387268	
-0.387817	
-0.388184	
-0.387817	
-0.387451	
-0.386536	
-0.387024	
-0.387573	
-0.387695	
-0.387512	
-0.385803	
-0.383972	
-0.385376	
-0.385437	
-0.387268	
-0.386292	
-0.387024	
-0.386597	
-0.387146	
-0.388306	
-0.388184	
-0.388123	
-0.388	
-0.387024	
-0.388367	
-0.388367	
-0.388672	
-0.388367	
-0.388489	
-0.38739	
-0.386963	
-0.388428	
-0.388489	
-0.388489	
-0.387451	
-0.386841	
-0.388367	
-0.38855	
-0.389099	
-0.388245	
-0.388916	
-0.387634	
-0.388794	
-0.389404	
-0.388977	
-0.389465	
-0.38916	
-0.389343	
-0.389771	
-0.389771	
-0.391113	
-0.389648	
-0.390869	
-0.391235	
-0.391724	
-0.392334	
-0.391602	
-0.39209	
-0.391663	
-0.391602	
-0.392273	
-0.391846	
-0.392395	
-0.391602	
-0.39093	
-0.39093	
-0.391296	
-0.391174	
-0.390015	
-0.390076	
-0.390015	
-0.389526	
-0.388733	
-0.388611	
-0.389404	
-0.388367	
-0.387512	
-0.388428	
-0.387817	
-0.388428	
-0.387695	
-0.386719	
-0.386902	
-0.386902	
-0.386658	
-0.38678	
-0.387085	
-0.386292	
-0.385071	
-0.386658	
-0.386719	
-0.387085	
-0.386353	
-0.386475	
-0.385986	
-0.386108	
-0.386292	
-0.386902	
-0.386841	
-0.387146	
-0.386536	
-0.387878	
-0.388306	
-0.389038	
-0.388977	
-0.389709	
-0.388672	
-0.390625	
-0.391113	
-0.391602	
-0.391479	
-0.391663	
-0.391724	
-0.392151	
-0.392822	
-0.393433	
-0.39325	
-0.392456	
-0.392334	
-0.393372	
-0.393433	
-0.393799	
-0.392944	
-0.393188	
-0.393066	
-0.392334	
-0.393066	
-0.3927	
-0.392517	
-0.392822	
-0.391846	
-0.392456	
-0.392822	
-0.392822	
-0.391968	
-0.392334	
-0.392456	
-0.391968	
-0.392029	
-0.391357	
-0.391724	
-0.391541	
-0.391663	
-0.39209	
-0.391663	
-0.392334	
-0.391785	
-0.390503	
-0.390808	
-0.391541	
-0.391357	
-0.389893	
-0.390015	
-0.39032	
-0.389587	
-0.389343	
-0.389587	
-0.390808	
-0.391418	
-0.390747	
-0.390503	
-0.390564	
-0.390991	
-0.389465	
-0.390198	
-0.389832	
-0.388245	
-0.387268	
-0.387268	
-0.388	
-0.388428	
-0.387573	
-0.388184	
-0.390076	
-0.390381	
-0.389221	
-0.389954	
-0.389648	
-0.389526	
-0.390381	
-0.390503	
-0.390076	
-0.39032	
-0.388672	
-0.390686	
-0.390259	
-0.390442	
-0.390381	
-0.389771	
-0.391235	
-0.392395	
-0.392761	
-0.391907	
-0.391968	
-0.391357	
-0.390808	
-0.392151	
-0.391602	
-0.391968	
-0.391296	
-0.390442	
-0.391296	
-0.391541	
-0.392334	
-0.390808	
-0.391602	
-0.391785	
-0.391663	
-0.392639	
-0.392517	
-0.392639	
-0.392639	
-0.392212	
-0.391357	
-0.391968	
-0.393372	
-0.392151	
-0.391785	
-0.391541	
-0.391968	
-0.392822	
-0.391846	
-0.391663	
-0.391602	
-0.39209	
-0.390259	
-0.390991	
-0.392151	
-0.390808	
-0.390442	
-0.389709	
-0.39032	
-0.390503	
-0.390442	
-0.389893	
-0.390137	
-0.391174	
-0.390137	
-0.39093	
-0.392151	
-0.390991	
-0.391113	
-0.391235	
-0.391785	
-0.392029	
-0.392578	
-0.391235	
-0.391113	
-0.391785	
-0.391174	
-0.390503	
-0.392639	
-0.391052	
-0.391296	
-0.391235	
-0.391968	
-0.392578	
-0.392578	
-0.391724	
-0.391724	
-0.392456	
-0.391968	
-0.392578	
-0.392822	
-0.393127	
-0.393433	
-0.392639	
-0.39447	
-0.395508	
-0.395996	
-0.395203	
-0.395447	
-0.39563	
-0.394958	
-0.396057	
-0.395752	
-0.394653	
-0.394653	
-0.393555	
-0.393799	
-0.394592	
-0.394653	
-0.393738	
-0.392944	
-0.393982	
-0.392883	
-0.393372	
-0.393066	
-0.392334	
-0.391663	
-0.390259	
-0.391296	
-0.391846	
-0.391846	
-0.391113	
-0.390808	
-0.391296	
-0.391418	
-0.391907	
-0.39093	
-0.391907	
-0.391968	
-0.391113	
-0.392273	
-0.393005	
-0.39325	
-0.393311	
-0.392639	
-0.393066	
-0.393005	
-0.393616	
-0.393372	
-0.393188	
-0.392883	
-0.392456	
-0.392578	
-0.393188	
-0.392578	
-0.393494	
-0.392578	
-0.391907	
-0.392456	
-0.393677	
-0.3927	
-0.393372	
-0.392273	
-0.391541	
-0.392639	
-0.393066	
-0.393311	
-0.393372	
-0.393005	
-0.393799	
-0.394775	
-0.395813	
-0.395325	
-0.395447	
-0.395081	
-0.39502	
-0.39563	
-0.395691	
-0.395203	
-0.395081	
-0.395813	
-0.39563	
-0.397095	
-0.39679	
-0.39679	
-0.396301	
-0.395081	
-0.395569	
-0.396362	
-0.395935	
-0.394714	
-0.394287	
-0.394958	
-0.39386	
-0.394592	
-0.394531	
-0.394043	
-0.393799	
-0.39386	
-0.393616	
-0.395264	
-0.395081	
-0.395203	
-0.394592	
-0.394592	
-0.394775	
-0.394714	
-0.394165	
-0.393005	
-0.394226	
-0.393005	
-0.392761	
-0.394958	
-0.394043	
-0.393921	
-0.392944	
-0.393799	
-0.393188	
-0.393738	
-0.393066	
-0.391785	
-0.392517	
-0.391235	
-0.391479	
-0.393005	
-0.391785	
-0.391602	
-0.39093	
-0.391052	
-0.391418	
-0.391724	
-0.391296	
-0.391052	
-0.391235	
-0.391235	
-0.39093	
-0.393005	
-0.391907	
-0.392334	
-0.392578	
-0.392151	
-0.39325	
-0.394226	
-0.394104	
-0.39325	
-0.393433	
-0.393127	
-0.393311	
-0.39502	
-0.394287	
-0.394226	
-0.394958	
-0.394775	
-0.395508	
-0.39563	
-0.396118	
-0.395935	
-0.395752	
-0.395203	
-0.395203	
-0.397034	
-0.396423	
-0.396118	
-0.396423	
-0.396729	
-0.396606	
-0.397034	
-0.396606	
-0.396423	
-0.395569	
-0.394714	
-0.393921	
-0.395874	
-0.394226	
-0.393494	
-0.393066	
-0.393555	
-0.392639	
-0.392273	
-0.391846	
-0.391479	
-0.390747	
-0.390137	
-0.390076	
-0.390991	
-0.389771	
-0.388672	
-0.389038	
-0.389221	
-0.389404	
-0.389832	
-0.388855	
-0.389465	
-0.389221	
-0.389038	
-0.389954	
-0.390076	
-0.389465	
-0.389587	
-0.389771	
-0.390137	
-0.390015	
-0.391235	
-0.389893	
-0.390686	
-0.390381	
-0.389832	
-0.390808	
-0.391418	
-0.391357	
-0.390747	
-0.390808	
-0.391357	
-0.391602	
-0.392456	
-0.391907	
-0.391663	
-0.391479	
-0.391541	
-0.392456	
-0.392517	
-0.393311	
-0.393188	
-0.390991	
-0.393799	
-0.394104	
-0.393005	
-0.39209	
-0.392151	
-0.392212	
-0.392822	
-0.393921	
-0.393738	
-0.393616	
-0.393982	
-0.391968	
-0.393494	
-0.394104	
-0.395813	
-0.396118	
-0.394836	
-0.394165	
-0.393066	
-0.394897	
-0.39386	
-0.393127	
-0.393066	
-0.391418	
-0.392944	
-0.3927	
-0.392822	
-0.392639	
-0.392883	
-0.392029	
-0.391724	
-0.393311	
-0.392883	
-0.392822	
-0.391846	
-0.388672	
-0.390259	
-0.391113	
-0.390991	
-0.391663	
-0.391418	
-0.390991	
-0.390503	
-0.392883	
-0.391724	
-0.391724	
-0.391724	
-0.391235	
-0.391357	
-0.391541	
-0.392456	
-0.391357	
-0.390686	
-0.39032	
-0.390137	
-0.391968	
-0.390625	
-0.390686	
-0.391235	
-0.39032	
-0.390625	
-0.391113	
-0.391418	
-0.390564	
-0.391724	
-0.390747	
-0.390686	
-0.392883	
-0.391724	
-0.391418	
-0.391479	
-0.392273	
-0.391846	
-0.392151	
-0.393372	
-0.392395	
-0.392944	
-0.392273	
-0.392883	
-0.394043	
-0.393188	
-0.39325	
-0.392761	
-0.392151	
-0.392395	
-0.392212	
-0.392029	
-0.391846	
-0.391541	
-0.390503	
-0.391785	
-0.393555	
-0.392029	
-0.392517	
-0.392944	
-0.392273	
-0.392273	
-0.392456	
-0.392944	
-0.391907	
-0.392029	
-0.391174	
-0.391541	
-0.392944	
-0.391602	
-0.391174	
-0.390747	
-0.390747	
-0.390503	
-0.390076	
-0.391357	
-0.390015	
-0.389343	
-0.388611	
-0.388794	
-0.389465	
-0.387695	
-0.387878	
-0.388123	
-0.387268	
-0.387207	
-0.388	
-0.388977	
-0.388245	
-0.387878	
-0.388794	
-0.389832	
-0.390137	
-0.389709	
-0.390198	
-0.389709	
-0.390137	
-0.390442	
-0.390503	
-0.392212	
-0.391479	
-0.391296	
-0.391846	
-0.392273	
-0.393127	
-0.392456	
-0.3927	
-0.391541	
-0.391479	
-0.391846	
-0.392212	
-0.392883	
-0.391602	
-0.391113	
-0.391235	
-0.391663	
-0.391357	
-0.390991	
-0.391479	
-0.390015	
-0.390869	
-0.390625	
-0.390808	
-0.391357	
-0.390747	
-0.390808	
-0.390686	
-0.391602	
-0.391846	
-0.391724	
-0.391418	
-0.389587	
-0.390808	
-0.391235	
-0.390442	
-0.391174	
-0.390259	
-0.390015	
-0.390503	
-0.392761	
-0.392151	
-0.390686	
-0.390137	
-0.389282	
-0.389587	
-0.389343	
-0.390076	
-0.388489	
-0.388855	
-0.388672	
-0.388	
-0.389465	
-0.389648	
-0.388611	
-0.388611	
-0.386108	
-0.386536	
-0.386841	
-0.388123	
-0.388062	
-0.387634	
-0.387451	
-0.387451	
-0.389648	
-0.389221	
-0.389282	
-0.390198	
-0.388794	
-0.389343	
-0.389832	
-0.390198	
-0.389343	
-0.389709	
-0.389099	
-0.388428	
-0.390503	
-0.389832	
-0.389282	
-0.389954	
-0.388916	
-0.389526	
-0.389587	
-0.390015	
-0.389465	
-0.389832	
-0.389038	
-0.389038	
-0.390381	
-0.390259	
-0.390015	
-0.390564	
-0.389343	
-0.390747	
-0.390686	
-0.391907	
-0.391357	
-0.391235	
-0.391357	
-0.392151	
-0.392456	
-0.392212	
-0.392151	
-0.392517	
-0.391724	
	
