E:\DOCUMENTS AND SETTINGS\JPOTAS\MEUS DOCUMENTOS\UFRJ\RSCI-BM 12 WK SERIES\070803-RSCI-BM-11\RSCI-BM-11-REMG\070803-RSCI-BM-11-REMG-0018.ACQ
0.025000 msec/sample
1 channel
Analog input
Volts
CH1	
2000	
-0.390137	
-0.389557	
-0.389557	
-0.389801	
-0.389832	
-0.390198	
-0.389923	
-0.390594	
-0.390076	
-0.390381	
-0.390503	
-0.389618	
-0.389954	
-0.389191	
-0.389587	
-0.389221	
-0.389679	
-0.389404	
-0.389618	
-0.389648	
-0.388702	
-0.389771	
-0.387878	
-0.388458	
-0.388123	
-0.386932	
-0.387421	
-0.386688	
-0.386902	
-0.387177	
-0.387421	
-0.38678	
-0.386871	
-0.388214	
-0.386566	
-0.387482	
-0.386597	
-0.386627	
-0.386902	
-0.385773	
-0.386963	
-0.386749	
-0.386993	
-0.386688	
-0.387848	
-0.386078	
-0.385925	
-0.386353	
-0.386261	
-0.386536	
-0.386017	
-0.385773	
-0.386078	
-0.386108	
-0.386597	
-0.385559	
-0.386902	
-0.385223	
-0.386444	
-0.386139	
-0.386444	
-0.386719	
-0.386169	
-0.386993	
-0.387085	
-0.387665	
-0.387268	
-0.387115	
-0.38739	
-0.387268	
-0.387848	
-0.385803	
-0.387756	
-0.388641	
-0.38797	
-0.38913	
-0.388245	
-0.388153	
-0.387604	
-0.388397	
-0.386292	
-0.386261	
-0.387024	
-0.386566	
-0.386597	
-0.38681	
-0.386841	
-0.387787	
-0.388794	
-0.389069	
-0.388489	
-0.388885	
-0.38913	
-0.389648	
-0.388184	
-0.387482	
-0.38736	
-0.387146	
-0.387604	
-0.387817	
-0.387848	
-0.388184	
-0.388153	
-0.387695	
-0.388153	
-0.388733	
-0.387909	
-0.388489	
-0.388397	
-0.388489	
-0.388733	
-0.389008	
-0.388763	
-0.38858	
-0.389069	
-0.388367	
-0.387695	
-0.387787	
-0.387695	
-0.388214	
-0.387817	
-0.388306	
-0.388397	
-0.388885	
-0.389069	
-0.389313	
-0.388611	
-0.389038	
-0.388458	
-0.387939	
-0.388611	
-0.38858	
-0.387939	
-0.38913	
-0.389038	
-0.389496	
-0.389923	
-0.390259	
-0.389252	
-0.389618	
-0.389984	
-0.390106	
-0.390106	
-0.390167	
-0.390594	
-0.390442	
-0.3909	
-0.390594	
-0.390869	
-0.390808	
-0.391296	
-0.390381	
-0.390015	
-0.390808	
-0.390686	
-0.389587	
-0.389709	
-0.390198	
-0.390808	
-0.390198	
-0.390533	
-0.389313	
-0.389343	
-0.388672	
-0.388885	
-0.389679	
-0.389801	
-0.389862	
-0.39032	
-0.390472	
-0.390411	
-0.390472	
-0.391144	
-0.38913	
-0.389709	
-0.389496	
-0.389404	
-0.38916	
-0.388824	
-0.388336	
-0.389008	
-0.389313	
-0.388916	
-0.389069	
-0.388916	
-0.388885	
-0.388611	
-0.387726	
-0.38913	
-0.388763	
-0.388031	
-0.388855	
-0.389099	
-0.38974	
-0.389801	
-0.389771	
-0.389404	
-0.386566	
-0.381561	
-0.380951	
-0.382568	
-0.382202	
-0.382538	
-0.386414	
-0.390778	
-0.391327	
-0.391541	
-0.39212	
-0.390869	
-0.391296	
-0.390717	
-0.391388	
-0.391144	
-0.390808	
-0.39151	
-0.391693	
-0.391937	
-0.391937	
-0.39267	
-0.391602	
-0.391144	
-0.391724	
-0.391083	
-0.392181	
-0.391571	
-0.390991	
-0.391571	
-0.391846	
-0.392181	
-0.392212	
-0.392029	
-0.391113	
-0.391235	
-0.391144	
-0.391144	
-0.392365	
-0.391846	
-0.391754	
-0.391815	
-0.39209	
-0.391571	
-0.392883	
-0.393188	
-0.392822	
-0.391815	
-0.390778	
-0.392731	
-0.393433	
-0.392822	
-0.392181	
-0.391663	
-0.390778	
-0.390656	
-0.391937	
-0.390656	
-0.390594	
-0.390656	
-0.389832	
-0.389771	
-0.389893	
-0.389648	
-0.390656	
-0.39212	
-0.392517	
-0.392303	
-0.391846	
-0.390564	
-0.390503	
-0.390747	
-0.390991	
-0.391144	
-0.390503	
-0.390686	
-0.391418	
-0.390564	
-0.391174	
-0.391846	
-0.390991	
-0.391113	
-0.391144	
-0.390808	
-0.391663	
-0.39209	
-0.391663	
-0.392487	
-0.393066	
-0.393463	
-0.393829	
-0.395142	
-0.394562	
-0.395081	
-0.39505	
-0.397278	
-0.398468	
-0.3992	
-0.398834	
-0.40097	
-0.401428	
-0.403015	
-0.403839	
-0.403625	
-0.403748	
-0.40506	
-0.405365	
-0.40625	
-0.407013	
-0.40686	
-0.407867	
-0.408997	
-0.40979	
-0.41037	
-0.411316	
-0.41156	
-0.41214	
-0.413391	
-0.415527	
-0.415985	
-0.417419	
-0.418304	
-0.41922	
-0.420258	
-0.421295	
-0.422058	
-0.421906	
-0.422882	
-0.422455	
-0.424255	
-0.425598	
-0.426178	
-0.426727	
-0.427551	
-0.427979	
-0.428314	
-0.429382	
-0.428314	
-0.428772	
-0.428345	
-0.430023	
-0.429993	
-0.431061	
-0.431519	
-0.432587	
-0.432495	
-0.433411	
-0.433655	
-0.431946	
-0.431702	
-0.432037	
-0.432068	
-0.432526	
-0.432465	
-0.432281	
-0.432526	
-0.433075	
-0.432892	
-0.43338	
-0.433044	
-0.4328	
-0.432281	
-0.432007	
-0.43161	
-0.43103	
-0.43103	
-0.430725	
-0.429962	
-0.430054	
-0.429718	
-0.429565	
-0.428497	
-0.428101	
-0.426147	
-0.424042	
-0.424103	
-0.42276	
-0.420929	
-0.419678	
-0.418518	
-0.41684	
-0.416229	
-0.415466	
-0.412506	
-0.41095	
-0.410217	
-0.40918	
-0.407867	
-0.406464	
-0.404175	
-0.402527	
-0.401398	
-0.400421	
-0.398743	
-0.396759	
-0.394165	
-0.392822	
-0.391083	
-0.389679	
-0.388977	
-0.387146	
-0.385803	
-0.384308	
-0.383636	
-0.382874	
-0.382751	
-0.380341	
-0.379944	
-0.37851	
-0.377258	
-0.376984	
-0.377472	
-0.376801	
-0.37674	
-0.37674	
-0.375885	
-0.375793	
-0.375214	
-0.373199	
-0.371948	
-0.370056	
-0.369019	
-0.36734	
-0.365509	
-0.363892	
-0.363129	
-0.361328	
-0.359802	
-0.358429	
-0.357178	
-0.356781	
-0.35611	
-0.356476	
-0.356354	
-0.355591	
-0.353882	
-0.35379	
-0.353912	
-0.352814	
-0.353027	
-0.35202	
-0.351715	
-0.350494	
-0.351044	
-0.350922	
-0.351074	
-0.351379	
-0.35202	
-0.352661	
-0.352203	
-0.353577	
-0.353668	
-0.353607	
-0.353516	
-0.353424	
-0.35437	
-0.35495	
-0.355133	
-0.354889	
-0.355438	
-0.355591	
-0.355316	
-0.355438	
-0.355103	
-0.354889	
-0.35434	
-0.355682	
-0.356171	
-0.356476	
-0.35614	
-0.357117	
-0.3573	
-0.357544	
-0.356842	
-0.357361	
-0.357361	
-0.357513	
-0.357605	
-0.357819	
-0.358459	
-0.358643	
-0.359436	
-0.360138	
-0.360321	
-0.360779	
-0.36026	
-0.361359	
-0.361938	
-0.362793	
-0.363586	
-0.364441	
-0.36441	
-0.365936	
-0.366913	
-0.367645	
-0.367706	
-0.368073	
-0.368622	
-0.36911	
-0.369141	
-0.369751	
-0.370117	
-0.369476	
-0.369781	
-0.37088	
-0.370972	
-0.370331	
-0.370453	
-0.370605	
-0.370697	
-0.371002	
-0.371857	
-0.371857	
-0.372467	
-0.372864	
-0.373291	
-0.373474	
-0.373413	
-0.372406	
-0.372742	
-0.37265	
-0.373077	
-0.373108	
-0.373688	
-0.373596	
-0.373779	
-0.374573	
-0.37442	
-0.374084	
-0.374115	
-0.373444	
-0.373596	
-0.37381	
-0.373749	
-0.374084	
-0.374786	
-0.374603	
-0.375366	
-0.374725	
-0.375153	
-0.375092	
-0.374878	
-0.374298	
-0.374695	
-0.375366	
-0.375183	
-0.375275	
-0.37561	
-0.375549	
-0.376404	
-0.376007	
-0.37619	
-0.375854	
-0.375397	
-0.375885	
-0.376099	
-0.376251	
-0.376099	
-0.375793	
-0.37561	
-0.376099	
-0.375854	
-0.375702	
-0.375854	
-0.374176	
-0.374512	
-0.375488	
-0.374481	
-0.374695	
-0.374817	
-0.374603	
-0.375244	
-0.37561	
-0.375488	
-0.374969	
-0.374329	
-0.374023	
-0.37326	
-0.373413	
-0.373413	
-0.374023	
-0.37384	
-0.373627	
-0.374268	
-0.374786	
-0.375153	
-0.375366	
-0.374817	
-0.375488	
-0.376129	
-0.376221	
-0.376648	
-0.376434	
-0.375946	
-0.377197	
-0.37796	
-0.378052	
-0.37674	
-0.376221	
-0.37616	
-0.376526	
-0.376038	
-0.377594	
-0.37735	
-0.377991	
-0.378052	
-0.378632	
-0.378632	
-0.379028	
-0.379242	
-0.378815	
-0.378784	
-0.379395	
-0.379639	
-0.379242	
-0.379211	
-0.380096	
-0.380432	
-0.379761	
-0.379913	
-0.380035	
-0.379425	
-0.379242	
-0.379364	
-0.378998	
-0.378967	
-0.378998	
-0.379028	
-0.378967	
-0.379211	
-0.378784	
-0.378693	
-0.378876	
-0.37796	
-0.377655	
-0.378265	
-0.377838	
-0.378174	
-0.37854	
-0.378906	
-0.379608	
-0.379883	
-0.379456	
-0.380066	
-0.379883	
-0.380219	
-0.379822	
-0.380219	
-0.380707	
-0.380951	
-0.380371	
-0.381531	
-0.381256	
-0.381775	
-0.382111	
-0.38147	
-0.381653	
-0.382629	
-0.382843	
-0.383453	
-0.383453	
-0.383606	
-0.384735	
-0.385437	
-0.385529	
-0.3862	
-0.385895	
-0.385376	
-0.385773	
-0.385162	
-0.386963	
-0.387207	
-0.38681	
-0.387573	
-0.387421	
-0.387329	
-0.387512	
-0.387695	
-0.385895	
-0.386902	
-0.386475	
-0.386658	
-0.386383	
-0.386047	
-0.386475	
-0.385834	
-0.385468	
-0.385315	
-0.385101	
-0.383423	
-0.383942	
-0.383667	
-0.382416	
-0.383148	
-0.383087	
-0.382568	
-0.382507	
-0.382507	
-0.381622	
-0.381561	
-0.380981	
-0.380341	
-0.380066	
-0.380127	
-0.380524	
-0.38031	
-0.380341	
-0.381348	
-0.380737	
-0.379883	
-0.380615	
-0.380127	
-0.379395	
-0.379181	
-0.378845	
-0.379303	
-0.379486	
-0.37912	
-0.379517	
-0.379364	
-0.379303	
-0.379791	
-0.380005	
-0.378021	
-0.378845	
-0.37854	
-0.379181	
-0.379181	
-0.379211	
-0.379059	
-0.380219	
-0.380127	
-0.379791	
-0.379669	
-0.380005	
-0.379944	
-0.38031	
-0.378998	
-0.380402	
-0.381195	
-0.381348	
-0.381195	
-0.382629	
-0.382446	
-0.381714	
-0.38269	
-0.381409	
-0.380371	
-0.379913	
-0.380554	
-0.380005	
-0.380127	
-0.380676	
-0.381287	
-0.380798	
-0.38092	
-0.381134	
-0.381592	
-0.381805	
-0.381989	
-0.381714	
-0.383026	
-0.383331	
-0.383148	
-0.382019	
-0.381989	
-0.381836	
-0.381348	
-0.38208	
-0.382019	
-0.382172	
-0.382202	
-0.381958	
-0.38269	
-0.383057	
-0.38327	
-0.38385	
-0.383514	
-0.382599	
-0.38385	
-0.384277	
-0.382996	
-0.383392	
-0.382599	
-0.38385	
-0.384094	
-0.384064	
-0.383942	
-0.383759	
-0.38382	
-0.383148	
-0.383362	
-0.383087	
-0.384003	
-0.383392	
-0.38324	
-0.384491	
-0.384827	
-0.384735	
-0.384857	
-0.384949	
-0.384613	
-0.384613	
-0.385651	
-0.384827	
-0.385101	
-0.384674	
-0.385834	
-0.385773	
-0.385834	
-0.386383	
-0.386261	
-0.386017	
-0.38623	
-0.385925	
-0.386414	
-0.386505	
-0.386078	
-0.386108	
-0.386322	
-0.387421	
-0.387024	
-0.386383	
-0.386993	
-0.386749	
-0.385345	
-0.386688	
-0.386353	
-0.386414	
-0.385101	
-0.38623	
-0.386078	
-0.38559	
-0.386292	
-0.386475	
-0.385986	
-0.386047	
-0.386932	
-0.386536	
-0.386139	
-0.386536	
-0.3862	
-0.386292	
-0.38623	
-0.386139	
-0.385773	
-0.385773	
-0.385437	
-0.385468	
-0.385803	
-0.385376	
-0.384735	
-0.384674	
-0.385834	
-0.385925	
-0.38562	
-0.385803	
-0.385376	
-0.385406	
-0.385162	
-0.386169	
-0.385162	
-0.385437	
-0.384796	
-0.385681	
-0.38559	
-0.386108	
-0.386444	
-0.3862	
-0.3862	
-0.386383	
-0.386475	
-0.386597	
-0.387085	
-0.386505	
-0.386963	
-0.387512	
-0.387543	
-0.387482	
-0.388031	
-0.38739	
-0.387695	
-0.388	
-0.387909	
-0.388397	
-0.388275	
-0.387726	
-0.38855	
-0.388428	
-0.388458	
-0.388763	
-0.388702	
-0.388153	
-0.388123	
-0.387939	
-0.388275	
-0.388153	
-0.387695	
-0.387451	
-0.388245	
-0.388885	
-0.388123	
-0.388184	
-0.388275	
-0.388	
-0.388062	
-0.388428	
-0.38858	
-0.388428	
-0.388092	
-0.388885	
-0.389618	
-0.389648	
-0.390442	
-0.389832	
-0.389191	
-0.38974	
-0.39032	
-0.389404	
-0.388977	
-0.387573	
-0.386047	
-0.387909	
-0.387695	
-0.38797	
-0.387512	
-0.387573	
-0.386902	
-0.385895	
-0.387543	
-0.387268	
-0.38797	
-0.389221	
-0.389435	
-0.389496	
-0.388916	
-0.388947	
-0.388428	
-0.38797	
-0.388397	
-0.388611	
-0.387177	
-0.388062	
-0.388214	
-0.388214	
-0.388702	
-0.389069	
-0.388458	
-0.388336	
-0.388733	
-0.388885	
-0.388672	
-0.388885	
-0.388611	
-0.388306	
-0.388519	
-0.388824	
-0.388855	
-0.388733	
-0.389343	
-0.388672	
-0.388855	
-0.389404	
-0.389465	
-0.388702	
-0.388916	
-0.388702	
-0.389038	
-0.390198	
-0.389679	
-0.389923	
-0.389587	
-0.389709	
-0.38916	
-0.388824	
-0.389587	
-0.389832	
-0.389008	
-0.388397	
-0.390137	
-0.389679	
-0.389404	
-0.390533	
-0.389893	
-0.389832	
-0.390198	
-0.391144	
-0.389221	
-0.389557	
-0.389313	
-0.389404	
-0.390015	
-0.389648	
-0.390015	
-0.388977	
-0.389557	
-0.389221	
-0.388763	
-0.388885	
-0.388763	
-0.387695	
-0.387817	
-0.388763	
-0.388214	
-0.388153	
-0.388733	
-0.387604	
-0.388092	
-0.388184	
-0.388824	
-0.386719	
-0.387787	
-0.387268	
-0.387451	
-0.387817	
-0.388153	
-0.387695	
-0.387756	
-0.387787	
-0.387848	
-0.387878	
-0.387695	
-0.387665	
-0.388428	
-0.388153	
-0.389191	
-0.389893	
-0.389893	
-0.390259	
-0.389526	
-0.389679	
-0.389679	
-0.391235	
-0.388611	
-0.389069	
-0.38913	
-0.38974	
-0.39035	
-0.390015	
-0.39035	
-0.390137	
-0.390747	
-0.39032	
-0.389862	
-0.39032	
-0.389862	
-0.38974	
-0.388947	
-0.390686	
-0.391418	
-0.390778	
-0.391541	
-0.390869	
-0.391846	
-0.391357	
-0.392029	
-0.391388	
-0.391205	
-0.390106	
-0.391327	
-0.391632	
-0.391296	
-0.391266	
-0.391693	
-0.390778	
-0.391541	
-0.391571	
-0.39093	
-0.390167	
-0.390045	
-0.389557	
-0.390839	
-0.391113	
-0.39035	
-0.390289	
-0.387817	
-0.389526	
-0.388672	
-0.390717	
-0.389771	
-0.389679	
-0.389374	
-0.391541	
-0.391754	
-0.391571	
-0.391266	
-0.390717	
-0.390259	
-0.390991	
-0.389435	
-0.38916	
-0.387787	
-0.388824	
-0.387726	
-0.388428	
-0.388458	
-0.388641	
-0.389709	
-0.390289	
-0.391266	
-0.390533	
-0.390625	
-0.389679	
-0.389069	
-0.388611	
-0.389648	
-0.389709	
-0.389038	
-0.388977	
-0.389648	
-0.389221	
-0.389557	
-0.389435	
-0.389069	
-0.388763	
-0.388885	
-0.388458	
-0.389557	
-0.389679	
-0.388855	
-0.38913	
-0.389282	
-0.389404	
-0.389618	
-0.389709	
-0.388977	
-0.389038	
-0.388519	
-0.388611	
-0.389069	
-0.389221	
-0.388794	
-0.389374	
-0.388763	
-0.388763	
-0.388977	
-0.388611	
-0.387817	
-0.387177	
-0.387634	
-0.388855	
-0.388489	
-0.387939	
-0.387878	
-0.387482	
-0.388123	
-0.387848	
-0.387299	
-0.386932	
-0.386169	
-0.385986	
-0.387421	
-0.387085	
-0.386688	
-0.386993	
-0.386749	
-0.386383	
-0.387726	
-0.387848	
-0.387756	
-0.38736	
-0.387543	
-0.38678	
-0.388306	
-0.388397	
-0.388123	
-0.388336	
-0.388306	
-0.388184	
-0.387726	
-0.387421	
-0.387482	
-0.387421	
-0.387024	
-0.387268	
-0.387939	
-0.388397	
-0.388336	
-0.388885	
-0.388428	
-0.389069	
-0.389465	
-0.389069	
-0.388855	
-0.387909	
-0.387817	
-0.388824	
-0.388947	
-0.388672	
-0.388763	
-0.388275	
-0.388763	
-0.389038	
-0.389618	
-0.388824	
-0.388519	
-0.387573	
-0.388153	
-0.388641	
-0.388	
-0.388123	
-0.387817	
-0.387146	
-0.387482	
-0.388275	
-0.387695	
-0.386932	
-0.386749	
-0.386536	
-0.386932	
-0.387299	
-0.387054	
-0.387268	
-0.386322	
-0.387146	
-0.386932	
-0.386047	
-0.386169	
-0.385956	
-0.385071	
-0.386078	
-0.386658	
-0.386292	
-0.386414	
-0.386749	
-0.386383	
-0.386963	
-0.386658	
-0.386963	
-0.386108	
-0.386353	
-0.386566	
-0.386139	
-0.386871	
-0.386505	
-0.387177	
-0.386078	
-0.386993	
-0.386658	
-0.38736	
-0.387024	
-0.386353	
-0.385742	
-0.385651	
-0.386566	
-0.385315	
-0.385559	
-0.385986	
-0.385559	
-0.385101	
-0.385834	
-0.386383	
-0.385712	
-0.385803	
-0.386414	
-0.387482	
-0.388031	
-0.387909	
-0.387909	
-0.387146	
-0.387146	
-0.387604	
-0.388397	
-0.387573	
-0.38562	
-0.384949	
-0.385529	
-0.387085	
-0.386414	
-0.386383	
-0.385895	
-0.386658	
-0.386902	
-0.387421	
-0.386353	
-0.387207	
-0.386566	
-0.3862	
-0.386719	
-0.386627	
-0.386292	
-0.38623	
-0.386139	
-0.385925	
-0.385773	
-0.386444	
-0.386566	
-0.385834	
-0.385071	
-0.386078	
-0.386658	
-0.386688	
-0.386993	
-0.385681	
-0.385742	
-0.386108	
-0.38681	
-0.385651	
-0.386017	
-0.385223	
-0.385284	
-0.385773	
-0.385681	
-0.385559	
-0.385437	
-0.385803	
-0.385742	
-0.3862	
-0.386383	
-0.3862	
-0.385315	
-0.385162	
-0.386017	
-0.385345	
-0.386047	
-0.386017	
-0.385162	
-0.385742	
-0.385437	
-0.385895	
-0.385162	
-0.385895	
-0.385651	
-0.385315	
-0.38562	
-0.386261	
-0.386383	
-0.385864	
-0.386566	
-0.386261	
-0.386047	
-0.387268	
-0.386597	
-0.386139	
-0.386383	
-0.386536	
-0.387604	
-0.387512	
-0.388275	
-0.387878	
-0.387909	
-0.388092	
-0.388641	
-0.388245	
-0.388367	
-0.386871	
-0.386627	
-0.387573	
-0.388092	
-0.387909	
-0.387726	
-0.387512	
-0.38739	
-0.387787	
-0.38855	
-0.38736	
-0.386688	
-0.3862	
-0.386261	
-0.386078	
-0.385651	
-0.385956	
-0.38559	
-0.385101	
-0.38504	
-0.385681	
-0.385925	
-0.385437	
-0.384338	
-0.384399	
-0.38562	
-0.385315	
-0.385162	
-0.385132	
-0.384796	
-0.38501	
-0.384613	
-0.385712	
-0.385162	
-0.384399	
-0.384186	
-0.383423	
-0.384186	
-0.385162	
-0.38446	
-0.384064	
-0.384399	
-0.384369	
-0.384918	
-0.3862	
-0.384369	
-0.383392	
-0.383606	
-0.383972	
-0.384644	
-0.385254	
-0.384277	
-0.384918	
-0.38446	
-0.385498	
-0.385498	
-0.385559	
-0.384766	
-0.385315	
-0.383759	
-0.385468	
-0.386017	
-0.385803	
-0.385681	
-0.387299	
-0.386383	
-0.386993	
-0.387299	
-0.386444	
-0.384674	
-0.384644	
-0.384369	
-0.384857	
-0.384827	
-0.38504	
-0.385284	
-0.38446	
-0.385925	
-0.386078	
-0.387085	
-0.387085	
-0.38681	
-0.386047	
-0.387054	
-0.387604	
-0.386383	
-0.38501	
-0.38501	
-0.38443	
-0.385986	
-0.386566	
-0.386078	
-0.385498	
-0.386017	
-0.385254	
-0.386566	
-0.386932	
-0.386047	
-0.386627	
-0.386871	
-0.386902	
-0.386627	
-0.38739	
-0.387177	
-0.386688	
-0.386139	
-0.386047	
-0.387085	
-0.386353	
-0.385559	
-0.386566	
-0.386505	
-0.386414	
-0.387451	
-0.387177	
-0.386444	
-0.386322	
-0.386505	
-0.386444	
-0.387543	
-0.386719	
-0.387146	
-0.386475	
-0.387665	
-0.387451	
-0.388123	
-0.387543	
-0.387695	
-0.386902	
-0.386566	
-0.388336	
-0.388031	
-0.387726	
-0.388031	
-0.387604	
-0.38855	
-0.38913	
-0.388977	
-0.388794	
-0.388275	
-0.387909	
-0.389313	
-0.389648	
-0.388275	
-0.388763	
-0.388245	
-0.388824	
-0.388641	
-0.388855	
-0.388611	
-0.387878	
-0.387146	
-0.386963	
-0.38797	
-0.388062	
-0.387329	
-0.388336	
-0.387421	
-0.388611	
-0.388702	
-0.389557	
-0.387939	
-0.388214	
-0.388	
-0.388062	
-0.38855	
-0.387329	
-0.38797	
-0.387878	
-0.387878	
-0.387665	
-0.387787	
-0.388428	
-0.387268	
-0.387177	
-0.386475	
-0.387634	
-0.387451	
-0.387238	
-0.387238	
-0.386688	
-0.387726	
-0.387512	
-0.387573	
-0.38681	
-0.387482	
-0.386993	
-0.387024	
-0.388428	
-0.387543	
-0.388184	
-0.388275	
-0.388123	
-0.388428	
-0.38916	
-0.389099	
-0.38797	
-0.388489	
-0.387909	
-0.389313	
-0.389923	
-0.389221	
-0.389893	
-0.389313	
-0.390167	
-0.38974	
-0.390106	
-0.389557	
-0.389648	
-0.388855	
-0.389099	
-0.39035	
-0.389069	
-0.389862	
-0.390076	
-0.388733	
-0.390015	
-0.390472	
-0.390564	
-0.389282	
-0.38916	
-0.389221	
-0.389801	
-0.390503	
-0.389496	
-0.389893	
-0.389709	
-0.390106	
-0.390198	
-0.390228	
-0.389679	
-0.389832	
-0.389801	
-0.391022	
-0.391022	
-0.391571	
-0.391052	
-0.390991	
-0.391113	
-0.391479	
-0.39151	
-0.390503	
-0.388062	
-0.388641	
-0.388153	
-0.389069	
-0.389709	
-0.389313	
-0.388916	
-0.387939	
-0.387939	
-0.388855	
-0.389435	
-0.390137	
-0.390259	
-0.389832	
-0.389252	
-0.389984	
-0.390106	
-0.389679	
-0.389923	
-0.389404	
-0.389862	
-0.390106	
-0.390381	
-0.389374	
-0.389343	
-0.389038	
-0.389801	
-0.390259	
-0.390167	
-0.390381	
-0.39035	
-0.389832	
-0.390076	
-0.390961	
-0.390717	
-0.390198	
-0.389679	
-0.389923	
-0.39035	
-0.390076	
-0.390503	
-0.390747	
-0.389984	
-0.390472	
-0.390625	
-0.391083	
-0.390411	
-0.390533	
-0.390106	
-0.39035	
-0.390656	
-0.391022	
-0.391296	
-0.390564	
-0.390259	
-0.391174	
-0.391052	
-0.390472	
-0.39032	
-0.390411	
-0.390381	
-0.39032	
-0.39151	
-0.390533	
-0.391449	
-0.390839	
-0.39093	
-0.391754	
-0.391357	
-0.390778	
-0.390442	
-0.389008	
-0.390381	
-0.390594	
-0.390381	
-0.390167	
-0.390198	
-0.389404	
-0.390198	
-0.390564	
-0.389954	
-0.389282	
-0.389404	
-0.388428	
-0.388885	
-0.389801	
-0.389099	
-0.38913	
-0.389252	
-0.388672	
-0.389008	
-0.389282	
-0.388611	
-0.388367	
-0.388489	
-0.389313	
-0.388977	
-0.389496	
-0.389252	
-0.390106	
-0.38913	
-0.390167	
-0.390137	
-0.389801	
-0.389923	
-0.389801	
-0.389374	
-0.390198	
-0.39093	
-0.390778	
-0.39093	
-0.390717	
-0.390808	
-0.391754	
-0.391357	
-0.391479	
-0.391083	
-0.390747	
-0.39093	
-0.390961	
-0.391541	
-0.391327	
-0.391174	
-0.391083	
-0.391632	
-0.391937	
-0.391846	
-0.392059	
-0.391907	
-0.390808	
-0.392029	
-0.39212	
-0.392395	
-0.392487	
-0.392365	
-0.391937	
-0.392609	
-0.393311	
-0.392151	
-0.391876	
-0.391907	
-0.392517	
-0.391968	
-0.392853	
-0.392273	
-0.392578	
-0.39212	
-0.391998	
-0.392548	
-0.391998	
-0.391968	
-0.390778	
-0.391022	
-0.390717	
-0.390198	
-0.389893	
-0.39035	
-0.390442	
-0.390594	
-0.391724	
-0.391357	
-0.391754	
-0.39328	
-0.391876	
-0.392303	
-0.391632	
-0.392303	
-0.391174	
-0.391449	
-0.389709	
-0.389862	
-0.390472	
-0.389984	
-0.38974	
-0.38913	
-0.388	
-0.390137	
-0.390991	
-0.391266	
-0.391632	
-0.391571	
-0.390747	
-0.391602	
-0.391205	
-0.3909	
-0.390533	
-0.389923	
-0.38974	
-0.390167	
-0.390778	
-0.390625	
-0.390289	
-0.390015	
-0.389954	
-0.391266	
-0.390045	
-0.390045	
-0.389923	
-0.389435	
-0.390381	
-0.389648	
-0.390564	
-0.39032	
-0.390656	
-0.390198	
-0.390533	
-0.391327	
-0.390137	
-0.389923	
-0.389435	
-0.389404	
-0.389343	
-0.389771	
-0.389343	
-0.38916	
-0.389374	
-0.388855	
-0.390076	
-0.388733	
-0.388947	
-0.38916	
-0.387604	
-0.388855	
-0.388763	
-0.388275	
-0.388336	
-0.388245	
-0.387726	
-0.387451	
-0.389679	
-0.387177	
-0.387939	
-0.38736	
-0.387543	
-0.388275	
-0.388275	
-0.38858	
-0.388702	
-0.388794	
-0.388489	
-0.389618	
-0.388947	
-0.388947	
-0.389313	
-0.387573	
-0.38913	
-0.388916	
-0.389435	
-0.388947	
-0.389191	
-0.38858	
-0.388763	
-0.390411	
-0.388184	
-0.389191	
-0.38855	
-0.388947	
-0.389099	
-0.389435	
-0.390289	
-0.389984	
-0.389862	
-0.389648	
-0.390442	
-0.390411	
-0.389771	
-0.389496	
-0.388519	
-0.389801	
-0.389374	
-0.389709	
-0.38974	
-0.389923	
-0.389923	
-0.389465	
-0.390869	
-0.389221	
-0.389832	
-0.388977	
-0.388214	
-0.388672	
-0.388184	
-0.388672	
-0.388336	
-0.389343	
-0.388123	
-0.388458	
-0.388611	
-0.388153	
-0.388428	
-0.386749	
-0.387756	
-0.387299	
-0.387329	
-0.387329	
-0.387726	
-0.387604	
-0.387115	
-0.388611	
-0.387634	
-0.38736	
-0.387329	
-0.387085	
-0.387512	
-0.387634	
-0.388153	
-0.387665	
-0.388123	
-0.387604	
-0.387817	
-0.389099	
-0.387939	
-0.388367	
-0.387177	
-0.387665	
-0.387848	
-0.387604	
-0.387695	
-0.387665	
-0.387207	
-0.386963	
-0.388428	
-0.387451	
-0.386688	
-0.386658	
-0.385223	
-0.386963	
-0.386597	
-0.386963	
-0.386261	
-0.387054	
-0.386719	
-0.387878	
-0.388428	
-0.388275	
-0.389313	
-0.387726	
-0.388275	
-0.388336	
-0.388489	
-0.388214	
-0.388702	
-0.389008	
-0.387054	
-0.387787	
-0.387634	
-0.387207	
-0.387726	
-0.386047	
-0.387146	
-0.387329	
-0.388824	
-0.388062	
-0.387939	
-0.387268	
-0.387634	
-0.388306	
-0.387756	
-0.38739	
-0.386993	
-0.386383	
-0.386932	
-0.387054	
-0.38736	
-0.386993	
-0.387848	
-0.386169	
-0.387939	
-0.387939	
-0.387207	
-0.387665	
-0.386932	
-0.387054	
-0.386414	
-0.387451	
-0.387024	
-0.38681	
-0.386627	
-0.387207	
-0.387543	
-0.38623	
-0.387177	
-0.386475	
-0.385864	
-0.387054	
-0.386322	
-0.387451	
-0.386749	
-0.387207	
-0.386475	
-0.387177	
-0.38739	
-0.386841	
-0.387482	
-0.3862	
-0.386414	
-0.38681	
-0.387207	
-0.386902	
-0.387115	
-0.387115	
-0.386505	
-0.387024	
-0.386902	
-0.387268	
-0.385376	
-0.386078	
-0.386993	
-0.386871	
-0.388367	
-0.387756	
-0.388275	
-0.388245	
-0.389099	
-0.389069	
-0.388489	
	
