E:\DOCUMENTS AND SETTINGS\JPOTAS\MEUS DOCUMENTOS\UFRJ\RSCI-BM 12 WK SERIES\070803-RSCI-BM-11\RSCI-BM-11-REMG\070803-RSCI-BM-11-REMG-0020.ACQ
0.025000 msec/sample
1 channel
Analog input
Volts
CH1	
2000	
-0.391907	
-0.391541	
-0.391937	
-0.391388	
-0.391815	
-0.391479	
-0.391235	
-0.391815	
-0.391724	
-0.391205	
-0.390961	
-0.390442	
-0.390839	
-0.390015	
-0.390289	
-0.390137	
-0.391541	
-0.389862	
-0.390198	
-0.390747	
-0.391632	
-0.391327	
-0.390228	
-0.389771	
-0.389435	
-0.389587	
-0.390594	
-0.389893	
-0.390808	
-0.389893	
-0.391235	
-0.389709	
-0.390747	
-0.391632	
-0.391876	
-0.39209	
-0.391785	
-0.392395	
-0.392212	
-0.393402	
-0.392059	
-0.391052	
-0.391388	
-0.391541	
-0.391785	
-0.391998	
-0.392242	
-0.392853	
-0.392151	
-0.392426	
-0.392273	
-0.392914	
-0.391632	
-0.392242	
-0.391602	
-0.393005	
-0.392731	
-0.391693	
-0.392853	
-0.392883	
-0.392181	
-0.393616	
-0.394592	
-0.394714	
-0.392975	
-0.394379	
-0.39325	
-0.39389	
-0.393768	
-0.394073	
-0.394073	
-0.393829	
-0.394104	
-0.393463	
-0.394257	
-0.39328	
-0.393524	
-0.393585	
-0.393341	
-0.393219	
-0.39325	
-0.3927	
-0.392334	
-0.39325	
-0.393036	
-0.391907	
-0.392914	
-0.391479	
-0.391937	
-0.391083	
-0.391418	
-0.391479	
-0.390961	
-0.39212	
-0.391785	
-0.391663	
-0.391937	
-0.392242	
-0.392365	
-0.391052	
-0.393005	
-0.391632	
-0.392548	
-0.392792	
-0.392639	
-0.392334	
-0.392181	
-0.392609	
-0.391998	
-0.392822	
-0.391907	
-0.392456	
-0.393219	
-0.392426	
-0.392731	
-0.392731	
-0.393036	
-0.392517	
-0.392548	
-0.392639	
-0.392334	
-0.392578	
-0.391693	
-0.391907	
-0.390808	
-0.391235	
-0.391541	
-0.391327	
-0.392853	
-0.392273	
-0.392334	
-0.39328	
-0.393799	
-0.393036	
-0.392761	
-0.394501	
-0.393463	
-0.393646	
-0.394043	
-0.393982	
-0.393921	
-0.394043	
-0.394226	
-0.394257	
-0.394867	
-0.393921	
-0.393616	
-0.393524	
-0.393158	
-0.392761	
-0.392883	
-0.392365	
-0.391998	
-0.39151	
-0.391541	
-0.391388	
-0.391693	
-0.390381	
-0.390808	
-0.39035	
-0.390076	
-0.390106	
-0.389252	
-0.388763	
-0.389099	
-0.388885	
-0.389191	
-0.390106	
-0.389618	
-0.388702	
-0.389282	
-0.388458	
-0.388947	
-0.389221	
-0.388916	
-0.389069	
-0.388702	
-0.388733	
-0.388977	
-0.389099	
-0.388306	
-0.38858	
-0.388672	
-0.387939	
-0.387482	
-0.387756	
-0.387756	
-0.38797	
-0.388702	
-0.388428	
-0.388489	
-0.389038	
-0.388214	
-0.389313	
-0.390167	
-0.389954	
-0.390167	
-0.386719	
-0.382416	
-0.382111	
-0.382385	
-0.382416	
-0.383057	
-0.386322	
-0.391144	
-0.392731	
-0.392853	
-0.392548	
-0.392303	
-0.391693	
-0.391876	
-0.392395	
-0.392426	
-0.392487	
-0.392944	
-0.392242	
-0.392395	
-0.392548	
-0.392212	
-0.392212	
-0.392395	
-0.392822	
-0.392426	
-0.392395	
-0.391876	
-0.391693	
-0.3909	
-0.391083	
-0.391541	
-0.391754	
-0.391846	
-0.391693	
-0.391052	
-0.391663	
-0.391998	
-0.392151	
-0.391571	
-0.391876	
-0.390961	
-0.39151	
-0.391388	
-0.391022	
-0.391052	
-0.391541	
-0.390533	
-0.391083	
-0.391479	
-0.390717	
-0.39093	
-0.390869	
-0.390533	
-0.390198	
-0.390472	
-0.390167	
-0.389648	
-0.389557	
-0.389038	
-0.388855	
-0.38858	
-0.388794	
-0.389313	
-0.389648	
-0.389801	
-0.390076	
-0.389526	
-0.390045	
-0.389984	
-0.388947	
-0.390045	
-0.390442	
-0.390137	
-0.390747	
-0.391083	
-0.390381	
-0.39093	
-0.391205	
-0.39093	
-0.391266	
-0.391815	
-0.39035	
-0.391205	
-0.391479	
-0.391785	
-0.391846	
-0.391968	
-0.392395	
-0.393066	
-0.393738	
-0.393951	
-0.394135	
-0.393982	
-0.394531	
-0.395447	
-0.395081	
-0.394989	
-0.396301	
-0.396667	
-0.397186	
-0.397583	
-0.397888	
-0.399261	
-0.399445	
-0.399872	
-0.400665	
-0.40155	
-0.401215	
-0.402161	
-0.402679	
-0.403503	
-0.404572	
-0.404236	
-0.406189	
-0.40744	
-0.407837	
-0.40979	
-0.411591	
-0.412323	
-0.413757	
-0.414429	
-0.416016	
-0.417267	
-0.418518	
-0.418884	
-0.42038	
-0.42041	
-0.421906	
-0.423584	
-0.424774	
-0.425507	
-0.425964	
-0.426819	
-0.427612	
-0.427948	
-0.428497	
-0.429321	
-0.429291	
-0.430695	
-0.431091	
-0.43158	
-0.432495	
-0.433533	
-0.433594	
-0.434448	
-0.43454	
-0.434662	
-0.434723	
-0.435059	
-0.434448	
-0.434692	
-0.434937	
-0.434753	
-0.434387	
-0.433563	
-0.433136	
-0.433441	
-0.432953	
-0.432587	
-0.433563	
-0.433441	
-0.432953	
-0.433044	
-0.43219	
-0.430603	
-0.431335	
-0.430267	
-0.429962	
-0.429382	
-0.427338	
-0.42691	
-0.425781	
-0.424286	
-0.423126	
-0.421906	
-0.41983	
-0.418518	
-0.417969	
-0.417145	
-0.415283	
-0.413879	
-0.411133	
-0.410431	
-0.408569	
-0.407074	
-0.406433	
-0.404541	
-0.402283	
-0.400574	
-0.39917	
-0.397217	
-0.395996	
-0.392883	
-0.391876	
-0.390411	
-0.388153	
-0.385986	
-0.384827	
-0.382874	
-0.382599	
-0.3815	
-0.379456	
-0.379333	
-0.377991	
-0.376801	
-0.376953	
-0.376068	
-0.375366	
-0.37558	
-0.375336	
-0.37384	
-0.374359	
-0.37442	
-0.372864	
-0.372711	
-0.371429	
-0.370514	
-0.369659	
-0.36853	
-0.367462	
-0.365967	
-0.364777	
-0.363312	
-0.362457	
-0.361603	
-0.360413	
-0.358765	
-0.357391	
-0.357391	
-0.35614	
-0.355042	
-0.355164	
-0.354004	
-0.352753	
-0.352844	
-0.352051	
-0.351288	
-0.351105	
-0.349792	
-0.350647	
-0.350525	
-0.350739	
-0.351013	
-0.350739	
-0.350769	
-0.351471	
-0.350861	
-0.351898	
-0.352478	
-0.352112	
-0.353149	
-0.353149	
-0.353516	
-0.353424	
-0.354065	
-0.353302	
-0.354767	
-0.354309	
-0.354095	
-0.354645	
-0.354126	
-0.355865	
-0.355316	
-0.35611	
-0.354736	
-0.354797	
-0.354797	
-0.355347	
-0.355255	
-0.355103	
-0.355927	
-0.354675	
-0.35553	
-0.355804	
-0.356232	
-0.355927	
-0.35675	
-0.356812	
-0.35672	
-0.357513	
-0.358063	
-0.359528	
-0.359344	
-0.359528	
-0.361298	
-0.362488	
-0.36319	
-0.364624	
-0.365509	
-0.365814	
-0.366913	
-0.367767	
-0.36908	
-0.368988	
-0.369476	
-0.370026	
-0.371368	
-0.371582	
-0.372284	
-0.37262	
-0.37265	
-0.372742	
-0.372437	
-0.373322	
-0.372833	
-0.373199	
-0.373169	
-0.37384	
-0.373352	
-0.373871	
-0.374603	
-0.374756	
-0.375153	
-0.374664	
-0.375214	
-0.374878	
-0.375061	
-0.375305	
-0.375336	
-0.375946	
-0.37738	
-0.377533	
-0.377075	
-0.377563	
-0.377136	
-0.376373	
-0.377625	
-0.376373	
-0.375549	
-0.376099	
-0.375977	
-0.376251	
-0.376282	
-0.376495	
-0.377594	
-0.376801	
-0.37735	
-0.377167	
-0.37674	
-0.375702	
-0.376007	
-0.375824	
-0.376129	
-0.377502	
-0.37735	
-0.377563	
-0.378448	
-0.378204	
-0.377777	
-0.377655	
-0.377472	
-0.377502	
-0.377533	
-0.378052	
-0.378082	
-0.37796	
-0.377228	
-0.378174	
-0.377747	
-0.37735	
-0.37735	
-0.377991	
-0.377808	
-0.378601	
-0.378082	
-0.376709	
-0.377075	
-0.376556	
-0.376984	
-0.376617	
-0.37735	
-0.375977	
-0.376617	
-0.376831	
-0.377045	
-0.377075	
-0.377014	
-0.377075	
-0.377441	
-0.377411	
-0.377594	
-0.37793	
-0.378113	
-0.378387	
-0.377777	
-0.377655	
-0.378723	
-0.378906	
-0.378601	
-0.378479	
-0.378876	
-0.379303	
-0.379395	
-0.380066	
-0.379639	
-0.380554	
-0.380005	
-0.380157	
-0.380341	
-0.380524	
-0.380554	
-0.380524	
-0.381592	
-0.381226	
-0.381561	
-0.380859	
-0.381531	
-0.381317	
-0.380981	
-0.381561	
-0.381195	
-0.381592	
-0.381561	
-0.381348	
-0.381958	
-0.382263	
-0.382568	
-0.381561	
-0.382385	
-0.381622	
-0.38208	
-0.382141	
-0.382111	
-0.381927	
-0.382629	
-0.383392	
-0.383331	
-0.38446	
-0.383514	
-0.384979	
-0.384613	
-0.384735	
-0.385925	
-0.386383	
-0.386475	
-0.386902	
-0.387146	
-0.387939	
-0.388702	
-0.388885	
-0.388489	
-0.389404	
-0.389465	
-0.390411	
-0.390533	
-0.390564	
-0.391022	
-0.390656	
-0.391663	
-0.391785	
-0.391479	
-0.390594	
-0.391144	
-0.391235	
-0.390106	
-0.390717	
-0.391144	
-0.390198	
-0.390503	
-0.39093	
-0.39093	
-0.390045	
-0.389954	
-0.389954	
-0.389282	
-0.389496	
-0.389862	
-0.389404	
-0.38916	
-0.388916	
-0.389008	
-0.388672	
-0.389221	
-0.389374	
-0.387787	
-0.388092	
-0.387451	
-0.388214	
-0.387299	
-0.385834	
-0.385803	
-0.385803	
-0.386139	
-0.386078	
-0.38559	
-0.384735	
-0.384338	
-0.384766	
-0.385071	
-0.385284	
-0.384735	
-0.383636	
-0.382629	
-0.382721	
-0.383209	
-0.383331	
-0.383423	
-0.382965	
-0.383331	
-0.383362	
-0.383545	
-0.384308	
-0.384094	
-0.384644	
-0.384583	
-0.384674	
-0.384796	
-0.385498	
-0.384491	
-0.383636	
-0.383759	
-0.384674	
-0.384186	
-0.384583	
-0.385345	
-0.385132	
-0.385254	
-0.385162	
-0.384552	
-0.384338	
-0.384949	
-0.384583	
-0.38501	
-0.384674	
-0.385101	
-0.385406	
-0.38504	
-0.385406	
-0.385559	
-0.385956	
-0.386627	
-0.387054	
-0.386292	
-0.385742	
-0.38681	
-0.386963	
-0.386688	
-0.386475	
-0.386688	
-0.387268	
-0.386993	
-0.386536	
-0.38623	
-0.387146	
-0.386292	
-0.386993	
-0.386932	
-0.387054	
-0.386627	
-0.387146	
-0.386536	
-0.386627	
-0.38678	
-0.386871	
-0.385895	
-0.386536	
-0.385864	
-0.38736	
-0.386292	
-0.386749	
-0.386261	
-0.386505	
-0.386932	
-0.386627	
-0.386963	
-0.386963	
-0.387085	
-0.386719	
-0.38736	
-0.38739	
-0.387634	
-0.387726	
-0.386902	
-0.387512	
-0.387543	
-0.387787	
-0.387329	
-0.387207	
-0.388367	
-0.386658	
-0.389038	
-0.388306	
-0.388397	
-0.388184	
-0.38858	
-0.388824	
-0.388275	
-0.389069	
-0.387848	
-0.38858	
-0.38797	
-0.388611	
-0.387817	
-0.386841	
-0.387177	
-0.386841	
-0.388611	
-0.38858	
-0.38858	
-0.389282	
-0.38916	
-0.389435	
-0.388214	
-0.39032	
-0.389343	
-0.389801	
-0.389679	
-0.389801	
-0.390686	
-0.389862	
-0.391296	
-0.390228	
-0.390503	
-0.389709	
-0.390015	
-0.389954	
-0.389465	
-0.389374	
-0.388336	
-0.38858	
-0.388489	
-0.388123	
-0.388458	
-0.387787	
-0.38736	
-0.387268	
-0.388245	
-0.386688	
-0.386627	
-0.385681	
-0.385712	
-0.385834	
-0.385742	
-0.38623	
-0.385284	
-0.386383	
-0.385193	
-0.386322	
-0.3862	
-0.386139	
-0.385803	
-0.385101	
-0.385956	
-0.384888	
-0.385284	
-0.38559	
-0.385651	
-0.385345	
-0.385132	
-0.385956	
-0.384735	
-0.385742	
-0.384186	
-0.38385	
-0.384399	
-0.385101	
-0.385284	
-0.384705	
-0.385468	
-0.384949	
-0.385773	
-0.385742	
-0.386688	
-0.387268	
-0.387451	
-0.387299	
-0.386139	
-0.38678	
-0.387146	
-0.38736	
-0.386749	
-0.387451	
-0.388	
-0.387146	
-0.388855	
-0.389343	
-0.388947	
-0.388519	
-0.388672	
-0.388855	
-0.388672	
-0.389465	
-0.388092	
-0.388611	
-0.388641	
-0.389038	
-0.388397	
-0.387939	
-0.38913	
-0.38913	
-0.390045	
-0.38916	
-0.389252	
-0.388733	
-0.387665	
-0.388367	
-0.388519	
-0.388733	
-0.388428	
-0.388855	
-0.388489	
-0.389038	
-0.38916	
-0.389008	
-0.388611	
-0.388336	
-0.388855	
-0.389069	
-0.388397	
-0.387787	
-0.388062	
-0.388275	
-0.388306	
-0.387756	
-0.387543	
-0.387726	
-0.387573	
-0.388458	
-0.388184	
-0.387573	
-0.387482	
-0.387817	
-0.387817	
-0.387482	
-0.387299	
-0.386505	
-0.386292	
-0.386078	
-0.385895	
-0.386963	
-0.387054	
-0.386261	
-0.386749	
-0.386444	
-0.386261	
-0.387238	
-0.38681	
-0.386688	
-0.387573	
-0.387512	
-0.387848	
-0.388153	
-0.388641	
-0.388092	
-0.388184	
-0.388641	
-0.388458	
-0.388824	
-0.388794	
-0.388306	
-0.388214	
-0.38858	
-0.38855	
-0.388306	
-0.388611	
-0.387512	
-0.387817	
-0.387634	
-0.388	
-0.387054	
-0.387512	
-0.38678	
-0.386353	
-0.385986	
-0.385376	
-0.385284	
-0.384521	
-0.384216	
-0.38501	
-0.384308	
-0.384644	
-0.384552	
-0.384583	
-0.384003	
-0.384003	
-0.384369	
-0.384003	
-0.383148	
-0.383606	
-0.383759	
-0.384155	
-0.384735	
-0.384491	
-0.38446	
-0.385529	
-0.385681	
-0.38562	
-0.385864	
-0.386047	
-0.385529	
-0.386414	
-0.386627	
-0.386536	
-0.386536	
-0.387512	
-0.387207	
-0.387634	
-0.387634	
-0.38736	
-0.387299	
-0.387146	
-0.387238	
-0.388062	
-0.387817	
-0.388092	
-0.387268	
-0.387756	
-0.387756	
-0.388306	
-0.388458	
-0.388184	
-0.388245	
-0.388336	
-0.387848	
-0.388611	
-0.389191	
-0.388519	
-0.388794	
-0.389587	
-0.388794	
-0.388031	
-0.388123	
-0.388489	
-0.387787	
-0.388153	
-0.389221	
-0.390076	
-0.390381	
-0.389618	
-0.389679	
-0.388519	
-0.389465	
-0.388489	
-0.388763	
-0.388062	
-0.387207	
-0.386719	
-0.387207	
-0.387939	
-0.387482	
-0.387115	
-0.387329	
-0.386932	
-0.388153	
-0.387939	
-0.38855	
-0.387177	
-0.387115	
-0.387207	
-0.387299	
-0.387268	
-0.387421	
-0.38739	
-0.386353	
-0.387573	
-0.387207	
-0.387238	
-0.386871	
-0.38623	
-0.385803	
-0.387054	
-0.38678	
-0.385651	
-0.384918	
-0.385559	
-0.38504	
-0.385681	
-0.385834	
-0.385345	
-0.384918	
-0.385681	
-0.385895	
-0.385712	
-0.385651	
-0.385773	
-0.385437	
-0.385864	
-0.386139	
-0.386169	
-0.386719	
-0.386353	
-0.385529	
-0.385895	
-0.387451	
-0.386993	
-0.38678	
-0.387115	
-0.387146	
-0.387238	
-0.387909	
-0.38797	
-0.387634	
-0.386963	
-0.387604	
-0.387329	
-0.388367	
-0.387939	
-0.387573	
-0.386627	
-0.387268	
-0.387848	
-0.386841	
-0.387451	
-0.386841	
-0.387177	
-0.386505	
-0.387939	
-0.387146	
-0.387817	
-0.387299	
-0.38681	
-0.387207	
-0.386963	
-0.387299	
-0.386658	
-0.386322	
-0.386536	
-0.386353	
-0.38736	
-0.387024	
-0.38736	
-0.386383	
-0.38739	
-0.387787	
-0.387238	
-0.387573	
-0.386536	
-0.386688	
-0.387512	
-0.38855	
-0.387085	
-0.386627	
-0.386505	
-0.386902	
-0.386169	
-0.386261	
-0.386353	
-0.386292	
-0.385223	
-0.385468	
-0.384918	
-0.385681	
-0.38504	
-0.385406	
-0.384796	
-0.385376	
-0.385681	
-0.386047	
-0.386108	
-0.385559	
-0.386475	
-0.3862	
-0.386871	
-0.387054	
-0.387054	
-0.387085	
-0.387817	
-0.388245	
-0.387634	
-0.389008	
-0.389099	
-0.388641	
-0.389252	
-0.389191	
-0.39032	
-0.389954	
-0.39035	
-0.389771	
-0.390228	
-0.390656	
-0.390381	
-0.390564	
-0.390594	
-0.389801	
-0.390228	
-0.391235	
-0.390839	
-0.390228	
-0.390869	
-0.391022	
-0.390839	
-0.391174	
-0.391632	
-0.391296	
-0.390686	
-0.390442	
-0.391449	
-0.392548	
-0.39212	
-0.39209	
-0.391449	
-0.391235	
-0.391602	
-0.391113	
-0.389893	
-0.389404	
-0.389038	
-0.389343	
-0.389709	
-0.389709	
-0.389679	
-0.389191	
-0.389008	
-0.389374	
-0.389984	
-0.389038	
-0.388733	
-0.387177	
-0.387848	
-0.387543	
-0.388977	
-0.388397	
-0.388306	
-0.38739	
-0.388031	
-0.387878	
-0.387482	
-0.38855	
-0.387787	
-0.386383	
-0.387054	
-0.387756	
-0.387909	
-0.387299	
-0.38739	
-0.387421	
-0.387512	
-0.388153	
-0.388916	
-0.389038	
-0.388306	
-0.387665	
-0.388184	
-0.388214	
-0.388092	
-0.388184	
-0.387543	
-0.388	
-0.388245	
-0.387482	
-0.387909	
-0.38858	
-0.387695	
-0.387573	
-0.388641	
-0.388794	
-0.388458	
-0.389313	
-0.38913	
-0.388672	
-0.389313	
-0.389252	
-0.389771	
-0.389069	
-0.388916	
-0.389282	
-0.389832	
-0.389618	
-0.389709	
-0.390411	
-0.390808	
-0.391327	
-0.390808	
-0.3909	
-0.390656	
-0.389191	
-0.390045	
-0.389954	
-0.390198	
-0.389862	
-0.389832	
-0.38913	
-0.389587	
-0.390198	
-0.389435	
-0.389893	
-0.388794	
-0.388092	
-0.388763	
-0.389618	
-0.388702	
-0.388947	
-0.388489	
-0.38913	
-0.38913	
-0.388977	
-0.389374	
-0.388916	
-0.388214	
-0.388794	
-0.389038	
-0.389862	
-0.389893	
-0.390228	
-0.390137	
-0.391327	
-0.391693	
-0.391571	
-0.392365	
-0.392212	
-0.391144	
-0.39209	
-0.392487	
-0.392639	
-0.392822	
-0.393036	
-0.393524	
-0.393158	
-0.39389	
-0.393402	
-0.393982	
-0.393219	
-0.392822	
-0.393158	
-0.393066	
-0.392578	
-0.392334	
-0.391693	
-0.39209	
-0.39209	
-0.392303	
-0.392059	
-0.391541	
-0.3909	
-0.390717	
-0.391052	
-0.390747	
-0.39032	
-0.390076	
-0.389679	
-0.390106	
-0.389832	
-0.389954	
-0.39032	
-0.389404	
-0.389099	
-0.389313	
-0.389893	
-0.390076	
-0.389984	
-0.389801	
-0.389313	
-0.389526	
-0.389923	
-0.390381	
-0.389221	
-0.388184	
-0.38855	
-0.388824	
-0.388702	
-0.388611	
-0.388153	
-0.388763	
-0.388702	
-0.389069	
-0.389954	
-0.390442	
-0.388519	
-0.387238	
-0.387573	
-0.388641	
-0.388245	
-0.388733	
-0.388062	
-0.388306	
-0.388885	
-0.389343	
-0.389862	
-0.389648	
-0.389557	
-0.389038	
-0.390106	
-0.390564	
-0.39035	
-0.39035	
-0.389832	
-0.389435	
-0.389099	
-0.389984	
-0.390198	
-0.390411	
-0.389984	
-0.389862	
-0.391083	
-0.390503	
-0.390778	
-0.390625	
-0.390259	
-0.390503	
-0.390961	
-0.391724	
-0.390839	
-0.390472	
-0.390045	
-0.390656	
-0.39093	
-0.39151	
-0.392334	
-0.39209	
-0.392548	
-0.392029	
-0.392578	
-0.392914	
-0.392029	
-0.391113	
-0.392212	
-0.392395	
-0.391937	
-0.392273	
-0.391815	
-0.391571	
-0.391846	
-0.391388	
-0.392365	
-0.391663	
-0.391052	
-0.391052	
-0.391052	
-0.391022	
-0.39032	
-0.390686	
-0.38974	
-0.390228	
-0.390442	
-0.390411	
-0.390259	
-0.389648	
-0.389191	
-0.390106	
-0.390686	
-0.390076	
-0.389954	
-0.390594	
-0.389984	
-0.390747	
-0.390808	
-0.391388	
-0.390656	
-0.390381	
-0.389832	
-0.390533	
-0.390717	
-0.390503	
-0.390411	
-0.390137	
-0.390747	
-0.390991	
-0.391022	
-0.391479	
-0.3909	
-0.390747	
-0.390381	
-0.390564	
-0.390839	
-0.390717	
-0.390717	
-0.39035	
-0.39093	
-0.390778	
-0.39093	
-0.389893	
-0.389832	
-0.389618	
-0.390167	
-0.391602	
-0.390533	
-0.390839	
-0.391479	
-0.391449	
-0.391754	
-0.39212	
-0.392365	
-0.392151	
-0.391907	
-0.391632	
-0.392517	
-0.392426	
-0.392609	
-0.393127	
-0.391876	
-0.392151	
-0.391632	
-0.393005	
-0.391754	
-0.391235	
-0.390259	
-0.390533	
-0.390961	
-0.389801	
-0.389771	
-0.389465	
-0.389862	
-0.389221	
-0.38855	
-0.389557	
-0.388702	
-0.388245	
-0.387268	
-0.387512	
-0.38739	
-0.387268	
-0.388092	
-0.387543	
-0.387878	
-0.387268	
-0.388214	
-0.387909	
-0.387604	
-0.387177	
-0.386993	
-0.388184	
-0.387512	
-0.386932	
-0.386841	
-0.386841	
-0.38681	
-0.386566	
-0.388733	
-0.386108	
-0.385468	
-0.384796	
-0.385864	
-0.386322	
-0.386719	
-0.387268	
-0.385956	
-0.386993	
-0.387329	
-0.388885	
-0.388977	
-0.388763	
-0.388519	
-0.387482	
-0.389038	
-0.388184	
-0.388641	
-0.389069	
-0.388702	
-0.388428	
-0.388641	
-0.390717	
-0.39032	
-0.390808	
-0.389526	
-0.390594	
-0.390076	
-0.389587	
-0.390381	
-0.389862	
-0.390503	
-0.390228	
-0.390869	
-0.391327	
-0.390503	
-0.390015	
-0.389069	
-0.3909	
-0.390656	
-0.39035	
-0.390198	
-0.389252	
-0.38913	
-0.389221	
-0.390778	
-0.390198	
-0.389801	
-0.389496	
-0.389557	
-0.390045	
-0.389801	
-0.390167	
-0.38974	
-0.389984	
-0.389496	
-0.389954	
-0.390411	
-0.389404	
-0.389496	
-0.388641	
-0.389709	
-0.389008	
-0.389099	
-0.389496	
-0.389099	
-0.388763	
-0.388733	
-0.389526	
-0.388916	
-0.388733	
-0.388306	
-0.388489	
-0.388428	
-0.386932	
-0.387543	
-0.386902	
-0.38736	
-0.387878	
-0.388062	
-0.388458	
-0.387756	
-0.388489	
-0.387268	
-0.388519	
-0.388245	
-0.38855	
-0.388855	
-0.388428	
-0.388855	
-0.389069	
-0.389526	
-0.390076	
-0.389709	
-0.389069	
-0.388977	
-0.38974	
-0.389557	
-0.389832	
-0.390106	
-0.38974	
-0.389618	
-0.389526	
-0.39093	
-0.389801	
-0.389526	
-0.388306	
-0.388916	
-0.388123	
-0.387848	
-0.388092	
-0.386505	
-0.386841	
-0.386414	
-0.386505	
-0.386597	
-0.385986	
-0.385132	
-0.385223	
-0.385284	
-0.384888	
-0.385315	
-0.384888	
-0.384827	
-0.384705	
-0.384918	
-0.385406	
-0.385468	
-0.385529	
-0.384613	
-0.385925	
-0.385956	
-0.385986	
-0.385773	
-0.386139	
-0.386475	
-0.386536	
-0.387177	
-0.387482	
-0.387695	
-0.387177	
-0.386749	
-0.387268	
-0.38797	
-0.388123	
-0.388245	
-0.388153	
-0.388214	
-0.388763	
-0.389801	
-0.388824	
-0.388947	
-0.387939	
-0.388733	
-0.388794	
-0.388977	
-0.389252	
-0.388702	
-0.389038	
-0.389313	
-0.390076	
-0.390137	
-0.389923	
-0.389435	
-0.38913	
-0.389618	
-0.389648	
-0.390228	
-0.389984	
-0.388092	
-0.389099	
-0.389679	
-0.390015	
-0.390259	
-0.390503	
-0.390015	
-0.390686	
-0.390259	
-0.390259	
-0.389954	
-0.390015	
-0.389069	
-0.389465	
-0.389038	
-0.389313	
-0.388916	
-0.388245	
-0.38797	
-0.387878	
-0.388519	
-0.388184	
-0.387695	
-0.388855	
-0.389313	
-0.388855	
-0.388519	
-0.38855	
-0.388428	
-0.387726	
-0.387482	
-0.388428	
-0.387909	
-0.38797	
-0.388397	
-0.387604	
-0.387817	
-0.387756	
-0.388397	
-0.387878	
-0.387421	
-0.386108	
-0.38562	
-0.386444	
-0.386078	
-0.385864	
-0.386475	
-0.386322	
-0.386414	
-0.38681	
-0.386871	
-0.386932	
-0.385773	
-0.386322	
-0.386444	
-0.387146	
-0.386627	
-0.387451	
-0.386139	
-0.386536	
-0.387421	
-0.387177	
-0.387268	
-0.387726	
-0.386475	
-0.38739	
-0.387451	
-0.388458	
-0.387634	
-0.388519	
-0.388336	
-0.388611	
-0.38855	
-0.389587	
-0.389282	
-0.388367	
-0.388336	
-0.388214	
-0.38858	
-0.388275	
-0.388245	
-0.388092	
-0.388031	
-0.388214	
-0.388641	
-0.388885	
-0.388214	
-0.387543	
-0.388184	
-0.388123	
-0.388519	
-0.387939	
-0.388062	
-0.38739	
-0.387756	
-0.388245	
-0.388458	
-0.388245	
-0.387634	
-0.387451	
-0.388	
-0.388458	
-0.387817	
-0.38797	
-0.388336	
-0.388092	
-0.388092	
-0.389008	
-0.389526	
-0.389038	
-0.387207	
-0.386932	
-0.387146	
-0.387665	
-0.386841	
-0.387543	
-0.386688	
-0.386292	
-0.387268	
-0.387421	
-0.38681	
-0.386108	
-0.385986	
-0.385529	
-0.386292	
-0.386017	
-0.386566	
-0.386322	
-0.386047	
-0.386963	
-0.388	
-0.388458	
-0.387909	
-0.38739	
-0.387421	
-0.388611	
-0.388916	
-0.388977	
-0.389465	
-0.389496	
-0.389954	
-0.390198	
-0.390289	
-0.390961	
-0.390839	
-0.39032	
-0.390411	
-0.390686	
-0.391693	
-0.39151	
-0.392242	
-0.391602	
-0.391724	
-0.392365	
-0.392273	
-0.391632	
-0.391296	
-0.391785	
-0.391846	
-0.39212	
-0.392059	
-0.391846	
-0.391663	
-0.391815	
-0.391571	
-0.392609	
-0.393372	
-0.393555	
-0.391998	
-0.391876	
-0.392334	
-0.391968	
-0.391907	
-0.391693	
-0.390259	
-0.390442	
-0.391052	
-0.39151	
-0.390686	
-0.390228	
-0.39035	
-0.389984	
-0.390137	
-0.390167	
-0.390808	
-0.389954	
-0.388245	
-0.388489	
-0.388885	
-0.389404	
-0.38913	
-0.388611	
-0.387787	
-0.38855	
-0.389038	
-0.389008	
-0.389069	
-0.388672	
-0.388367	
-0.388702	
-0.389282	
-0.388763	
-0.388031	
-0.387665	
-0.387756	
-0.387726	
-0.388855	
-0.39035	
-0.390259	
-0.389038	
-0.388672	
-0.389587	
-0.389771	
-0.38913	
-0.388611	
-0.388458	
-0.388885	
-0.389008	
-0.388763	
-0.389771	
-0.38913	
-0.388702	
-0.388733	
-0.390564	
-0.390259	
-0.389313	
-0.389435	
-0.389282	
-0.389709	
-0.390167	
-0.39032	
-0.390594	
-0.38974	
-0.390411	
-0.391327	
-0.391113	
-0.39093	
-0.390228	
-0.390472	
-0.391144	
-0.392365	
-0.391907	
-0.391998	
-0.39151	
-0.390991	
-0.391418	
-0.392029	
-0.391174	
-0.391296	
-0.390442	
-0.389893	
-0.390503	
-0.391083	
-0.389801	
-0.390686	
-0.390076	
-0.390289	
-0.390167	
-0.390991	
-0.390381	
-0.389771	
-0.389893	
-0.389465	
-0.389954	
-0.389862	
-0.39035	
-0.389648	
-0.389099	
-0.390167	
-0.390503	
-0.391022	
-0.390717	
-0.390045	
-0.391449	
-0.39151	
-0.392395	
-0.392212	
-0.393097	
-0.392639	
-0.393188	
-0.393036	
-0.394714	
-0.394104	
-0.393219	
-0.393311	
-0.393799	
-0.393646	
-0.394379	
-0.39444	
-0.394501	
-0.394043	
-0.394104	
-0.394409	
-0.394806	
-0.39389	
-0.393494	
-0.392426	
-0.392212	
-0.392883	
-0.392792	
-0.392853	
-0.392303	
-0.391937	
-0.391693	
-0.39328	
-0.39267	
-0.391479	
-0.390625	
-0.3909	
-0.391418	
-0.390839	
-0.391052	
-0.3909	
-0.390106	
-0.390747	
	
