E:\DOCUMENTS AND SETTINGS\JPOTAS\MEUS DOCUMENTOS\UFRJ\RSCI-BM 12 WK SERIES\070803-RSCI-BM-11\RSCI-BM-11-REMG\070803-RSCI-BM-11-REMG-0017.ACQ
0.025000 msec/sample
1 channel
Analog input
Volts
CH1	
2000	
-0.395508	
-0.395447	
-0.393921	
-0.394653	
-0.396301	
-0.394775	
-0.395935	
-0.396362	
-0.396667	
-0.397278	
-0.399231	
-0.399292	
-0.397217	
-0.396667	
-0.39502	
-0.39502	
-0.395752	
-0.395142	
-0.395081	
-0.394836	
-0.395264	
-0.394836	
-0.39502	
-0.395813	
-0.39447	
-0.393066	
-0.391907	
-0.39325	
-0.392395	
-0.393005	
-0.3927	
-0.391968	
-0.39209	
-0.392761	
-0.393005	
-0.391663	
-0.391418	
-0.390198	
-0.390808	
-0.390442	
-0.390198	
-0.390503	
-0.390869	
-0.391052	
-0.39093	
-0.391602	
-0.391663	
-0.390442	
-0.39032	
-0.389648	
-0.389526	
-0.390381	
-0.391357	
-0.390442	
-0.391418	
-0.391296	
-0.391968	
-0.392639	
-0.392883	
-0.391846	
-0.391174	
-0.390381	
-0.392334	
-0.392761	
-0.393982	
-0.395081	
-0.394775	
-0.395203	
-0.396362	
-0.397339	
-0.396851	
-0.396118	
-0.396667	
-0.396301	
-0.396912	
-0.396851	
-0.397705	
-0.39856	
-0.398132	
-0.398499	
-0.398987	
-0.401123	
-0.398621	
-0.398132	
-0.397644	
-0.3974	
-0.396912	
-0.397339	
-0.396973	
-0.397156	
-0.396362	
-0.396729	
-0.396606	
-0.39679	
-0.395569	
-0.394226	
-0.391907	
-0.393311	
-0.392578	
-0.392517	
-0.391724	
-0.391235	
-0.391052	
-0.391785	
-0.392212	
-0.390808	
-0.390991	
-0.389709	
-0.387573	
-0.388794	
-0.388977	
-0.388733	
-0.388794	
-0.388428	
-0.388489	
-0.388794	
-0.390259	
-0.388306	
-0.389343	
-0.387878	
-0.387634	
-0.388489	
-0.388855	
-0.388855	
-0.388855	
-0.388916	
-0.388672	
-0.388245	
-0.389038	
-0.388428	
-0.388611	
-0.388367	
-0.389832	
-0.389282	
-0.391174	
-0.391357	
-0.391357	
-0.391602	
-0.392639	
-0.39325	
-0.392944	
-0.393372	
-0.392578	
-0.392151	
-0.393738	
-0.394043	
-0.394409	
-0.39447	
-0.395325	
-0.394836	
-0.395691	
-0.397034	
-0.395935	
-0.394653	
-0.39502	
-0.395203	
-0.39563	
-0.396118	
-0.395569	
-0.396301	
-0.396973	
-0.396545	
-0.398804	
-0.399414	
-0.398193	
-0.396729	
-0.395569	
-0.39679	
-0.395569	
-0.396301	
-0.395752	
-0.395325	
-0.39563	
-0.396301	
-0.396912	
-0.395203	
-0.395386	
-0.394836	
-0.392639	
-0.39447	
-0.393982	
-0.394531	
-0.394958	
-0.394226	
-0.394836	
-0.395386	
-0.395874	
-0.395203	
-0.39325	
-0.392822	
-0.391113	
-0.390869	
-0.390442	
-0.390381	
-0.391479	
-0.391846	
-0.392334	
-0.389343	
-0.389343	
-0.393066	
-0.391235	
-0.391174	
-0.391479	
-0.391846	
-0.391968	
-0.391846	
-0.391846	
-0.392029	
-0.393066	
-0.39386	
-0.392944	
-0.393372	
-0.393127	
-0.391663	
-0.393677	
-0.395325	
-0.395691	
-0.396484	
-0.396362	
-0.396545	
-0.398132	
-0.399902	
-0.398193	
-0.39801	
-0.397827	
-0.397766	
-0.398621	
-0.399109	
-0.399536	
-0.398865	
-0.399414	
-0.399597	
-0.399475	
-0.400085	
-0.398499	
-0.396362	
-0.395691	
-0.397095	
-0.396545	
-0.396851	
-0.397156	
-0.395813	
-0.395813	
-0.396667	
-0.395569	
-0.394043	
-0.393066	
-0.391663	
-0.388306	
-0.389832	
-0.390503	
-0.389282	
-0.389404	
-0.389526	
-0.388855	
-0.390198	
-0.390747	
-0.388184	
-0.386658	
-0.385864	
-0.385681	
-0.384705	
-0.385437	
-0.384949	
-0.385132	
-0.385376	
-0.384949	
-0.385376	
-0.386841	
-0.385803	
-0.383789	
-0.383484	
-0.384399	
-0.384766	
-0.385254	
-0.384888	
-0.385681	
-0.386414	
-0.387939	
-0.387878	
-0.387695	
-0.387878	
-0.387817	
-0.387634	
-0.388	
-0.389771	
-0.389709	
-0.390808	
-0.391418	
-0.393066	
-0.395081	
-0.396606	
-0.397278	
-0.397339	
-0.396912	
-0.398438	
-0.400085	
-0.400024	
-0.400391	
-0.401733	
-0.402283	
-0.403748	
-0.404053	
-0.405334	
-0.405762	
-0.40509	
-0.404724	
-0.406128	
-0.407288	
-0.40802	
-0.407593	
-0.40741	
-0.40802	
-0.410461	
-0.41095	
-0.411438	
-0.409851	
-0.409119	
-0.408813	
-0.410522	
-0.410828	
-0.411804	
-0.412476	
-0.412903	
-0.414551	
-0.413818	
-0.415588	
-0.414063	
-0.414551	
-0.414734	
-0.416931	
-0.418579	
-0.419006	
-0.420288	
-0.420837	
-0.42334	
-0.422485	
-0.424072	
-0.423523	
-0.423035	
-0.424377	
-0.424561	
-0.4245	
-0.42572	
-0.425903	
-0.427307	
-0.427795	
-0.42926	
-0.428223	
-0.427734	
-0.425415	
-0.42627	
-0.42627	
-0.426575	
-0.426331	
-0.426514	
-0.427185	
-0.427307	
-0.427368	
-0.428467	
-0.428284	
-0.427124	
-0.426758	
-0.42749	
-0.428589	
-0.428894	
-0.427795	
-0.427734	
-0.427002	
-0.427002	
-0.427185	
-0.426025	
-0.423889	
-0.421814	
-0.421204	
-0.419922	
-0.420227	
-0.419373	
-0.417786	
-0.416748	
-0.415649	
-0.415894	
-0.415894	
-0.413818	
-0.411499	
-0.409241	
-0.40802	
-0.407837	
-0.40564	
-0.404358	
-0.402527	
-0.400146	
-0.399414	
-0.3974	
-0.394531	
-0.392334	
-0.389954	
-0.386719	
-0.38501	
-0.384216	
-0.382446	
-0.380249	
-0.378662	
-0.37738	
-0.377136	
-0.374939	
-0.37384	
-0.370605	
-0.368774	
-0.367615	
-0.365601	
-0.364685	
-0.362976	
-0.361755	
-0.360352	
-0.35968	
-0.359009	
-0.357849	
-0.356995	
-0.353333	
-0.351807	
-0.352112	
-0.352661	
-0.351868	
-0.35022	
-0.349548	
-0.349609	
-0.348999	
-0.349182	
-0.349304	
-0.347839	
-0.348022	
-0.348328	
-0.347473	
-0.348389	
-0.348206	
-0.347656	
-0.347839	
-0.349243	
-0.34906	
-0.349243	
-0.348389	
-0.348816	
-0.350281	
-0.348816	
-0.349915	
-0.349609	
-0.350159	
-0.351135	
-0.351868	
-0.352661	
-0.352478	
-0.352417	
-0.352356	
-0.352844	
-0.352661	
-0.35376	
-0.354187	
-0.353699	
-0.353455	
-0.355164	
-0.355713	
-0.355835	
-0.355286	
-0.352905	
-0.352844	
-0.353699	
-0.354187	
-0.354431	
-0.354187	
-0.354553	
-0.354919	
-0.356079	
-0.356018	
-0.355591	
-0.353821	
-0.354004	
-0.355469	
-0.355835	
-0.35675	
-0.356873	
-0.358398	
-0.358948	
-0.359558	
-0.36084	
-0.35968	
-0.359619	
-0.359802	
-0.360229	
-0.361267	
-0.362244	
-0.362854	
-0.363708	
-0.363281	
-0.362793	
-0.363586	
-0.364075	
-0.362427	
-0.362671	
-0.365051	
-0.364624	
-0.365784	
-0.365173	
-0.366028	
-0.36676	
-0.366821	
-0.367371	
-0.367432	
-0.365234	
-0.365601	
-0.366577	
-0.366272	
-0.367249	
-0.367859	
-0.368408	
-0.368225	
-0.369873	
-0.369995	
-0.370667	
-0.368896	
-0.368042	
-0.369995	
-0.368774	
-0.369873	
-0.370239	
-0.371643	
-0.373169	
-0.373962	
-0.375183	
-0.374084	
-0.374207	
-0.37262	
-0.373474	
-0.37323	
-0.373657	
-0.373657	
-0.373962	
-0.373901	
-0.37439	
-0.375305	
-0.375732	
-0.374634	
-0.374207	
-0.373779	
-0.374329	
-0.373657	
-0.374207	
-0.373779	
-0.373779	
-0.372803	
-0.37323	
-0.373047	
-0.372009	
-0.37146	
-0.370056	
-0.368408	
-0.36969	
-0.370056	
-0.369446	
-0.368958	
-0.36969	
-0.368896	
-0.369446	
-0.368713	
-0.368408	
-0.367432	
-0.366638	
-0.367676	
-0.368225	
-0.368103	
-0.369141	
-0.368835	
-0.36969	
-0.370667	
-0.37146	
-0.371582	
-0.372009	
-0.370667	
-0.372314	
-0.373657	
-0.37439	
-0.375793	
-0.376648	
-0.377197	
-0.378174	
-0.379578	
-0.378967	
-0.379761	
-0.377869	
-0.379211	
-0.381104	
-0.38092	
-0.382385	
-0.383057	
-0.383423	
-0.383911	
-0.385803	
-0.385742	
-0.385071	
-0.384949	
-0.383484	
-0.383789	
-0.385193	
-0.385132	
-0.38562	
-0.385742	
-0.386047	
-0.386047	
-0.387085	
-0.387756	
-0.386536	
-0.384766	
-0.383545	
-0.384094	
-0.383484	
-0.382935	
-0.381958	
-0.381348	
-0.381104	
-0.380859	
-0.381104	
-0.38031	
-0.379517	
-0.377441	
-0.377502	
-0.377319	
-0.37738	
-0.377014	
-0.377319	
-0.376404	
-0.377014	
-0.378052	
-0.378174	
-0.377197	
-0.376099	
-0.376526	
-0.378662	
-0.37854	
-0.379761	
-0.380798	
-0.381714	
-0.382263	
-0.383728	
-0.385193	
-0.384216	
-0.384277	
-0.382935	
-0.382935	
-0.385376	
-0.386108	
-0.387329	
-0.387268	
-0.388	
-0.389587	
-0.391174	
-0.391724	
-0.390808	
-0.389832	
-0.391174	
-0.391785	
-0.39209	
-0.392456	
-0.393005	
-0.393372	
-0.394165	
-0.395142	
-0.395508	
-0.394287	
-0.393311	
-0.393372	
-0.395264	
-0.394409	
-0.395142	
-0.394775	
-0.394592	
-0.395264	
-0.39679	
-0.396912	
-0.395691	
-0.39386	
-0.391907	
-0.391541	
-0.392273	
-0.391907	
-0.391541	
-0.390503	
-0.39032	
-0.390381	
-0.390381	
-0.389648	
-0.388916	
-0.387573	
-0.386597	
-0.387634	
-0.387634	
-0.386414	
-0.38623	
-0.386292	
-0.386047	
-0.385071	
-0.38623	
-0.385559	
-0.38385	
-0.382263	
-0.383728	
-0.383484	
-0.382996	
-0.383179	
-0.382996	
-0.383545	
-0.383667	
-0.38324	
-0.383484	
-0.382813	
-0.382141	
-0.381714	
-0.382202	
-0.382813	
-0.38324	
-0.383484	
-0.383667	
-0.384766	
-0.384827	
-0.38562	
-0.384338	
-0.384155	
-0.384338	
-0.384705	
-0.385254	
-0.38501	
-0.385498	
-0.386353	
-0.386719	
-0.387329	
-0.387939	
-0.388611	
-0.388245	
-0.387817	
-0.387207	
-0.388123	
-0.389282	
-0.389709	
-0.390076	
-0.391052	
-0.391357	
-0.391479	
-0.391785	
-0.392151	
-0.391479	
-0.391479	
-0.390381	
-0.391724	
-0.391785	
-0.391724	
-0.391235	
-0.391357	
-0.390503	
-0.390625	
-0.391296	
-0.389404	
-0.388733	
-0.38855	
-0.38855	
-0.387695	
-0.387329	
-0.387573	
-0.386658	
-0.387268	
-0.38623	
-0.386536	
-0.38739	
-0.385437	
-0.385254	
-0.384521	
-0.385559	
-0.385132	
-0.384644	
-0.384399	
-0.384033	
-0.384888	
-0.384644	
-0.385071	
-0.382996	
-0.383606	
-0.383301	
-0.382629	
-0.384277	
-0.384338	
-0.38446	
-0.384583	
-0.384644	
-0.385315	
-0.386169	
-0.384766	
-0.382507	
-0.383362	
-0.384155	
-0.385986	
-0.385681	
-0.38623	
-0.386414	
-0.387512	
-0.38855	
-0.388245	
-0.389526	
-0.388	
-0.388489	
-0.388123	
-0.387695	
-0.389343	
-0.389404	
-0.390198	
-0.39032	
-0.390808	
-0.391541	
-0.391479	
-0.391663	
-0.389893	
-0.390076	
-0.390259	
-0.391541	
-0.392334	
-0.392517	
-0.392761	
-0.392761	
-0.393433	
-0.392517	
-0.393127	
-0.392578	
-0.392334	
-0.392395	
-0.392822	
-0.393494	
-0.392578	
-0.392517	
-0.392578	
-0.393433	
-0.393677	
-0.393372	
-0.392456	
-0.39032	
-0.39093	
-0.389709	
-0.390625	
-0.390869	
-0.391052	
-0.391052	
-0.390808	
-0.39209	
-0.391113	
-0.392273	
-0.391357	
-0.388672	
-0.389893	
-0.389832	
-0.388916	
-0.389587	
-0.388489	
-0.387512	
-0.387024	
-0.388733	
-0.389038	
-0.388062	
-0.387146	
-0.387268	
-0.388306	
-0.387756	
-0.388306	
-0.388123	
-0.38855	
-0.38916	
-0.388855	
-0.388977	
-0.388733	
-0.388306	
-0.38855	
-0.387329	
-0.389465	
-0.389648	
-0.39093	
-0.391541	
-0.391724	
-0.3927	
-0.393921	
-0.393494	
-0.392395	
-0.393311	
-0.393738	
-0.393799	
-0.393433	
-0.394043	
-0.395203	
-0.39563	
-0.395874	
-0.396179	
-0.39679	
-0.396484	
-0.396545	
-0.393494	
-0.393982	
-0.39502	
-0.39502	
-0.394836	
-0.394531	
-0.394409	
-0.394165	
-0.395325	
-0.394226	
-0.392151	
-0.391479	
-0.390686	
-0.390869	
-0.389404	
-0.390015	
-0.388916	
-0.388184	
-0.387939	
-0.388184	
-0.387085	
-0.38739	
-0.385925	
-0.382996	
-0.383972	
-0.384583	
-0.383911	
-0.383606	
-0.384094	
-0.383423	
-0.382996	
-0.384033	
-0.383545	
-0.382446	
-0.382141	
-0.381409	
-0.381775	
-0.381226	
-0.382324	
-0.381897	
-0.38208	
-0.382324	
-0.382874	
-0.383789	
-0.382996	
-0.383972	
-0.381836	
-0.382996	
-0.384583	
-0.385193	
-0.385559	
-0.385254	
-0.385681	
-0.386597	
-0.388977	
-0.389343	
-0.388184	
-0.388062	
-0.38855	
-0.389343	
-0.389404	
-0.390076	
-0.39032	
-0.390564	
-0.390625	
-0.391479	
-0.39209	
-0.390564	
-0.390503	
-0.38855	
-0.387756	
-0.389771	
-0.389404	
-0.389648	
-0.390076	
-0.389526	
-0.389221	
-0.390381	
-0.390259	
-0.388611	
-0.387878	
-0.385803	
-0.389221	
-0.388916	
-0.388672	
-0.387878	
-0.387573	
-0.387085	
-0.387634	
-0.388916	
-0.386475	
-0.386108	
-0.384033	
-0.385071	
-0.384644	
-0.383118	
-0.383972	
-0.384277	
-0.383789	
-0.383911	
-0.384277	
-0.384338	
-0.382813	
-0.382751	
-0.38147	
-0.382141	
-0.381653	
-0.381592	
-0.381897	
-0.381531	
-0.380432	
-0.380188	
-0.381104	
-0.380493	
-0.381714	
-0.38031	
-0.380981	
-0.382568	
-0.382813	
-0.382629	
-0.382629	
-0.383301	
-0.383423	
-0.384521	
-0.384888	
-0.38385	
-0.383484	
-0.381775	
-0.38446	
-0.384277	
-0.384521	
-0.384888	
-0.385193	
-0.385742	
-0.385864	
-0.388	
-0.386292	
-0.385742	
-0.385315	
-0.385986	
-0.386536	
-0.385681	
-0.387024	
-0.388	
-0.387024	
-0.387329	
-0.388062	
-0.388489	
-0.387573	
-0.387634	
-0.38501	
-0.387024	
-0.386963	
-0.387146	
-0.387512	
-0.387634	
-0.387634	
-0.38739	
-0.389099	
-0.38739	
-0.38739	
-0.385742	
-0.385315	
-0.385071	
-0.385193	
-0.385071	
-0.384766	
-0.384155	
-0.383728	
-0.383789	
-0.383301	
-0.38269	
-0.382813	
-0.380371	
-0.380798	
-0.381409	
-0.38147	
-0.381775	
-0.381104	
-0.380432	
-0.38092	
-0.381714	
-0.381653	
-0.380188	
-0.379272	
-0.378662	
-0.379944	
-0.379883	
-0.38031	
-0.38031	
-0.38092	
-0.381348	
-0.381836	
-0.38324	
-0.382751	
-0.382385	
-0.380798	
-0.38208	
-0.382751	
-0.384888	
-0.385742	
-0.385254	
-0.386169	
-0.387085	
-0.389893	
-0.388733	
-0.388489	
-0.388306	
-0.388	
-0.389099	
-0.388123	
-0.389465	
-0.389648	
-0.389282	
-0.389893	
-0.39032	
-0.391846	
-0.390198	
-0.390625	
-0.389038	
-0.388184	
-0.389587	
-0.389771	
-0.389404	
-0.389282	
-0.389648	
-0.390015	
-0.391052	
-0.390625	
-0.390869	
-0.390686	
-0.389709	
-0.389771	
-0.388855	
-0.388123	
-0.387817	
-0.387268	
-0.387634	
-0.387573	
-0.388184	
-0.387512	
-0.387268	
-0.384644	
-0.384827	
-0.385254	
-0.385376	
-0.385559	
-0.38501	
-0.383667	
-0.384033	
-0.384766	
-0.384827	
-0.383728	
-0.382813	
-0.382263	
-0.382874	
-0.382202	
-0.383606	
-0.382629	
-0.382751	
-0.38269	
-0.383179	
-0.382263	
-0.382019	
-0.381409	
-0.379211	
-0.38031	
-0.381836	
-0.38269	
-0.382813	
-0.383118	
-0.383301	
-0.384155	
-0.385437	
-0.384766	
-0.384766	
-0.382813	
-0.383301	
-0.383301	
-0.383667	
-0.384033	
-0.383972	
-0.38501	
-0.384766	
-0.384827	
-0.385376	
-0.385986	
-0.384827	
-0.382751	
-0.384949	
-0.384521	
-0.385681	
-0.385864	
-0.385925	
-0.387573	
-0.388245	
-0.389526	
-0.388062	
-0.387695	
-0.38678	
-0.386658	
-0.386902	
-0.387085	
-0.387207	
-0.387451	
-0.386719	
-0.387085	
-0.387573	
-0.388	
-0.387451	
-0.386902	
-0.385681	
-0.385742	
-0.384216	
-0.385437	
-0.38501	
-0.384766	
-0.38446	
-0.384216	
-0.383484	
-0.382935	
-0.384033	
-0.38031	
-0.381165	
-0.380798	
-0.381409	
-0.381409	
-0.380737	
-0.38092	
-0.380005	
-0.380981	
-0.380737	
-0.381104	
-0.38092	
-0.379517	
-0.380127	
-0.37915	
-0.381348	
-0.381592	
-0.381714	
-0.382202	
-0.382813	
-0.38324	
-0.383606	
-0.384216	
-0.382935	
-0.383484	
-0.384216	
-0.386169	
-0.387146	
-0.388245	
-0.388855	
-0.389221	
-0.390564	
-0.391052	
-0.391418	
-0.391663	
-0.39032	
-0.390808	
-0.389771	
-0.392517	
-0.392273	
-0.393005	
-0.393372	
-0.394043	
-0.394714	
-0.393738	
-0.395081	
-0.393616	
-0.394165	
-0.393433	
-0.392334	
-0.39386	
-0.394348	
-0.393982	
-0.394104	
-0.394592	
-0.394958	
-0.394653	
-0.395142	
-0.392151	
-0.39209	
-0.391541	
-0.391418	
-0.390198	
-0.390442	
-0.390015	
-0.389893	
-0.390076	
-0.389709	
-0.390442	
-0.387634	
-0.387207	
-0.386597	
-0.385315	
-0.387146	
-0.386536	
-0.386169	
-0.386047	
-0.386902	
-0.386169	
-0.386169	
-0.386841	
-0.386353	
-0.386414	
-0.385254	
-0.386658	
-0.38739	
-0.387268	
-0.387756	
-0.388367	
-0.388977	
-0.389099	
-0.390076	
-0.387329	
-0.387024	
-0.387085	
-0.386963	
-0.389343	
-0.389832	
-0.390381	
-0.390503	
-0.391602	
-0.391541	
-0.391785	
-0.393188	
-0.391235	
-0.391052	
-0.391724	
-0.3927	
-0.393127	
-0.392944	
-0.393188	
-0.393799	
-0.393494	
-0.393677	
-0.394287	
-0.393555	
-0.393433	
-0.393799	
-0.394226	
-0.395264	
-0.395386	
-0.395508	
-0.396423	
-0.397461	
-0.397949	
-0.397461	
-0.397766	
-0.394836	
-0.394104	
-0.394592	
-0.393921	
-0.39447	
-0.39502	
-0.394409	
-0.394653	
-0.393982	
-0.39447	
-0.393616	
-0.393372	
-0.392395	
-0.391724	
-0.389893	
-0.391724	
-0.391479	
-0.391052	
-0.390808	
-0.391418	
-0.390869	
-0.390564	
-0.391541	
-0.390869	
-0.389526	
-0.389771	
-0.389893	
-0.390137	
-0.39032	
-0.390076	
-0.390137	
-0.390076	
-0.390991	
-0.391418	
-0.389709	
-0.389343	
-0.389893	
-0.389404	
-0.390076	
-0.389709	
-0.389893	
-0.389893	
-0.390625	
-0.390442	
-0.391052	
-0.39209	
-0.390625	
-0.390076	
-0.391113	
-0.390503	
-0.392395	
-0.392761	
-0.39325	
-0.393799	
-0.394897	
-0.395874	
-0.395081	
-0.395142	
-0.39563	
-0.395203	
-0.394714	
-0.395142	
-0.396362	
-0.39679	
-0.397217	
-0.397278	
-0.397766	
-0.399353	
-0.398926	
-0.397278	
-0.397278	
-0.39679	
-0.395752	
-0.396362	
-0.395813	
-0.395508	
-0.395874	
-0.395386	
-0.39563	
-0.395081	
-0.395752	
-0.393372	
-0.391663	
-0.391785	
-0.390869	
-0.391113	
-0.390747	
-0.390076	
-0.390747	
-0.39032	
-0.39093	
-0.389709	
-0.389343	
-0.388306	
-0.388245	
-0.387146	
-0.386719	
-0.388184	
-0.388123	
-0.387573	
-0.387756	
-0.387146	
-0.387634	
-0.387756	
-0.387512	
-0.386658	
-0.385803	
-0.386292	
-0.386963	
-0.387695	
-0.388367	
-0.388428	
-0.387695	
-0.386963	
-0.386658	
-0.386353	
-0.386963	
-0.387756	
-0.386108	
-0.388	
-0.388672	
-0.389954	
-0.390198	
-0.391541	
-0.391541	
-0.391602	
-0.392029	
-0.391785	
-0.391602	
-0.391907	
-0.391418	
-0.392151	
-0.392578	
-0.393311	
-0.393494	
-0.393555	
-0.393677	
-0.394226	
-0.393066	
-0.394653	
-0.392761	
-0.39209	
-0.394104	
-0.395081	
-0.39502	
-0.39502	
-0.395264	
-0.394287	
-0.395935	
-0.397034	
-0.396118	
-0.395264	
-0.393982	
-0.393982	
-0.393738	
-0.395386	
-0.394775	
-0.394226	
-0.394592	
-0.393921	
-0.393799	
-0.394043	
-0.394104	
-0.391907	
-0.391479	
-0.392761	
-0.392578	
-0.392822	
-0.392639	
-0.392334	
-0.392456	
-0.392761	
-0.394104	
-0.392212	
-0.391846	
-0.389771	
-0.391602	
-0.388733	
-0.389221	
-0.388611	
-0.389221	
-0.390442	
-0.390259	
-0.39093	
-0.39032	
-0.390259	
-0.389099	
-0.389709	
-0.390381	
-0.389526	
-0.390686	
-0.390259	
-0.390747	
-0.39032	
-0.391541	
-0.392151	
-0.390259	
-0.391357	
-0.391052	
-0.390747	
-0.392456	
-0.393555	
-0.394165	
-0.394653	
-0.39624	
-0.395813	
-0.396912	
-0.396423	
-0.39624	
-0.395874	
-0.39502	
-0.396606	
-0.395874	
-0.396851	
-0.397644	
-0.397766	
-0.397888	
-0.397766	
-0.397644	
-0.3974	
-0.397339	
-0.39502	
-0.395935	
-0.395569	
-0.394958	
-0.394836	
-0.394653	
-0.394653	
-0.394104	
-0.394348	
-0.392517	
-0.392578	
-0.392212	
-0.390137	
-0.390381	
-0.390015	
-0.389404	
-0.389221	
-0.388672	
-0.388062	
-0.386841	
-0.388123	
-0.386475	
-0.386658	
-0.385559	
-0.384705	
-0.384888	
-0.384033	
-0.384399	
-0.384766	
-0.384521	
-0.38385	
-0.383667	
-0.383728	
-0.382263	
-0.383911	
-0.382202	
-0.382324	
-0.38324	
-0.383972	
-0.384094	
-0.384216	
-0.385315	
-0.385193	
-0.385925	
-0.386353	
-0.386047	
-0.385559	
-0.386108	
-0.386719	
-0.386963	
-0.388245	
-0.388794	
-0.388916	
-0.389038	
-0.39032	
-0.39032	
-0.389404	
-0.390808	
-0.389771	
-0.389709	
-0.391724	
-0.391479	
-0.391235	
-0.391479	
-0.391663	
-0.39093	
-0.392273	
-0.390747	
-0.389832	
-0.390991	
-0.390381	
-0.38916	
-0.389893	
-0.390259	
-0.389893	
-0.389099	
-0.389771	
-0.389343	
-0.389038	
-0.390442	
-0.389221	
-0.389404	
-0.388367	
-0.388184	
-0.386292	
-0.386841	
-0.386597	
-0.386597	
-0.386292	
-0.387024	
-0.386169	
-0.384705	
-0.385681	
-0.384583	
-0.38446	
-0.385193	
-0.384705	
-0.384094	
-0.384216	
-0.384644	
-0.38385	
-0.383972	
-0.38385	
-0.382446	
-0.38092	
-0.382751	
-0.381775	
-0.380737	
-0.380859	
-0.380737	
-0.381958	
-0.38324	
-0.38324	
-0.383057	
-0.383484	
-0.382874	
-0.383667	
-0.383301	
-0.384277	
-0.383667	
-0.383972	
-0.384399	
-0.384827	
-0.385864	
-0.384827	
-0.385315	
-0.384766	
-0.385437	
-0.386292	
-0.386169	
-0.386475	
-0.387146	
-0.387085	
-0.387634	
-0.388184	
-0.389282	
-0.388062	
-0.387878	
-0.387817	
-0.388245	
-0.388123	
-0.387329	
-0.388733	
-0.388428	
-0.38855	
-0.388794	
-0.38855	
-0.388184	
-0.388672	
-0.387451	
-0.386597	
-0.387939	
-0.387268	
-0.387024	
-0.387634	
-0.387878	
-0.387451	
-0.387451	
-0.387817	
-0.386536	
-0.38739	
-0.385254	
-0.385803	
-0.384583	
-0.384338	
-0.38446	
-0.384644	
-0.383667	
-0.383789	
-0.384277	
-0.383057	
-0.382568	
-0.382568	
-0.380615	
-0.381836	
-0.380188	
-0.381287	
-0.381287	
-0.381592	
-0.381653	
-0.381531	
-0.382568	
-0.381836	
-0.381714	
-0.380737	
-0.381042	
-0.381226	
-0.381287	
-0.38208	
-0.381897	
-0.382874	
-0.383667	
-0.384949	
-0.384521	
-0.385498	
-0.385315	
-0.383972	
-0.38623	
-0.385803	
-0.386658	
-0.387329	
-0.388123	
-0.388062	
-0.388489	
-0.390076	
-0.389893	
-0.390503	
-0.389771	
-0.389221	
-0.390381	
-0.390137	
-0.391174	
-0.391052	
-0.391174	
-0.390747	
-0.391663	
-0.392944	
-0.391479	
-0.391418	
-0.390015	
-0.390442	
-0.390564	
-0.390564	
-0.390625	
-0.390259	
-0.39032	
-0.391602	
-0.393005	
-0.39093	
-0.390442	
-0.389404	
-0.387878	
-0.388733	
-0.387329	
-0.387207	
-0.387939	
-0.387268	
-0.386902	
-0.387817	
-0.387451	
-0.386414	
-0.38623	
-0.384399	
-0.385986	
-0.385376	
-0.384033	
-0.385132	
-0.384888	
-0.384583	
-0.384644	
-0.38562	
-0.384583	
-0.384888	
-0.384766	
-0.382446	
-0.384644	
-0.384094	
-0.383606	
-0.384155	
-0.382751	
-0.382385	
-0.382996	
-0.384155	
-0.382813	
-0.384094	
-0.383179	
-0.384033	
-0.383667	
-0.383606	
-0.384521	
-0.38501	
-0.385132	
-0.385376	
-0.385803	
-0.386353	
-0.384949	
-0.384888	
-0.384094	
-0.385559	
-0.385193	
-0.384033	
-0.386108	
-0.386414	
-0.386108	
-0.387268	
-0.388184	
-0.387085	
-0.387817	
-0.388428	
-0.386902	
-0.387939	
-0.388611	
-0.388428	
-0.389465	
-0.389282	
-0.389282	
-0.389771	
-0.388977	
-0.388245	
-0.388794	
-0.388916	
-0.388184	
-0.387756	
-0.388184	
-0.388794	
-0.388184	
-0.388184	
-0.388489	
-0.387878	
-0.387085	
-0.386658	
-0.386963	
-0.384949	
-0.385925	
-0.384583	
-0.384155	
-0.385132	
-0.384705	
-0.38446	
-0.38446	
-0.384155	
-0.382813	
-0.382019	
-0.382324	
-0.381653	
-0.381287	
-0.380127	
-0.381897	
-0.381653	
-0.381287	
-0.382751	
-0.383057	
-0.382263	
-0.382324	
-0.383179	
-0.382507	
-0.382874	
-0.382996	
-0.382935	
-0.384094	
-0.384399	
-0.385193	
-0.385925	
-0.387634	
-0.38678	
-0.387146	
-0.388306	
-0.388611	
-0.389343	
-0.388916	
-0.390259	
-0.390869	
-0.391235	
-0.392456	
-0.392639	
-0.393616	
-0.393372	
-0.394348	
-0.39325	
-0.394531	
-0.394714	
-0.395081	
-0.395142	
-0.395142	
-0.395691	
-0.396973	
-0.396729	
-0.395569	
-0.395081	
-0.395996	
-0.39563	
-0.395325	
-0.394348	
-0.39386	
-0.395081	
-0.394653	
-0.395264	
-0.394897	
-0.394592	
-0.391968	
-0.391785	
-0.391968	
-0.391846	
-0.390869	
-0.390015	
-0.389893	
-0.390137	
-0.390198	
-0.39093	
-0.389771	
-0.388977	
-0.388428	
-0.389343	
-0.387146	
-0.388306	
-0.387451	
-0.387268	
-0.387512	
-0.387756	
-0.388123	
-0.388733	
-0.389282	
-0.387878	
-0.388611	
-0.389038	
-0.388855	
-0.388855	
-0.38916	
-0.389648	
-0.390686	
-0.390259	
-0.389954	
-0.389832	
-0.390198	
-0.389954	
-0.392273	
-0.391541	
-0.39209	
-0.391602	
-0.391846	
-0.3927	
-0.393188	
-0.39325	
-0.393982	
-0.394348	
-0.393982	
-0.393921	
-0.394592	
-0.393799	
-0.394653	
-0.394104	
-0.395325	
	
