E:\DOCUMENTS AND SETTINGS\JPOTAS\MEUS DOCUMENTOS\UFRJ\RSCI-BM 12 WK SERIES\070803-RSCI-BM-11\RSCI-BM-11-REMG\070803-RSCI-BM-11-REMG-0008.ACQ
0.025000 msec/sample
1 channel
Analog input
Volts
CH1	
2000	
-0.390686	
-0.391541	
-0.389954	
-0.391418	
-0.391296	
-0.39209	
-0.391541	
-0.391968	
-0.392212	
-0.394287	
-0.393677	
-0.393982	
-0.393738	
-0.39386	
-0.393311	
-0.394531	
-0.393677	
-0.394165	
-0.393921	
-0.394653	
-0.39447	
-0.394836	
-0.395203	
-0.394165	
-0.393555	
-0.3927	
-0.393494	
-0.392822	
-0.39325	
-0.392456	
-0.392761	
-0.392334	
-0.392517	
-0.392639	
-0.391541	
-0.391907	
-0.391418	
-0.390503	
-0.391418	
-0.391296	
-0.391724	
-0.389343	
-0.389282	
-0.388977	
-0.390198	
-0.39093	
-0.389832	
-0.389648	
-0.389893	
-0.388306	
-0.390015	
-0.388428	
-0.389832	
-0.389404	
-0.389465	
-0.388977	
-0.389465	
-0.390381	
-0.389771	
-0.388	
-0.388123	
-0.388184	
-0.388428	
-0.386902	
-0.387878	
-0.387573	
-0.386658	
-0.385376	
-0.386414	
-0.387268	
-0.386902	
-0.385193	
-0.386108	
-0.38562	
-0.385437	
-0.386047	
-0.385437	
-0.385315	
-0.385376	
-0.385193	
-0.38678	
-0.386475	
-0.38623	
-0.386108	
-0.386108	
-0.386353	
-0.385437	
-0.387207	
-0.38739	
-0.387207	
-0.387085	
-0.387207	
-0.388977	
-0.387634	
-0.387329	
-0.38739	
-0.387024	
-0.388489	
-0.387146	
-0.389709	
-0.388672	
-0.388306	
-0.38916	
-0.390015	
-0.389343	
-0.389465	
-0.389221	
-0.388611	
-0.389587	
-0.389954	
-0.390198	
-0.391724	
-0.391174	
-0.392029	
-0.392883	
-0.393066	
-0.392761	
-0.392029	
-0.391541	
-0.391052	
-0.392029	
-0.391479	
-0.39209	
-0.392212	
-0.391968	
-0.391724	
-0.390869	
-0.392578	
-0.391663	
-0.391785	
-0.391785	
-0.392517	
-0.392029	
-0.391602	
-0.393311	
-0.392395	
-0.3927	
-0.392761	
-0.393311	
-0.393555	
-0.393188	
-0.393738	
-0.39325	
-0.39325	
-0.393921	
-0.394592	
-0.394714	
-0.394836	
-0.394165	
-0.394287	
-0.394653	
-0.39502	
-0.393982	
-0.393555	
-0.392578	
-0.392822	
-0.3927	
-0.392883	
-0.393616	
-0.392395	
-0.392212	
-0.392212	
-0.3927	
-0.392883	
-0.391907	
-0.391052	
-0.390076	
-0.38916	
-0.388794	
-0.389282	
-0.390076	
-0.389343	
-0.389709	
-0.389709	
-0.390503	
-0.389648	
-0.389709	
-0.389221	
-0.388	
-0.389221	
-0.388672	
-0.389587	
-0.389709	
-0.389526	
-0.389465	
-0.390076	
-0.390015	
-0.389404	
-0.389954	
-0.387878	
-0.388245	
-0.389343	
-0.389465	
-0.389893	
-0.389587	
-0.389709	
-0.389221	
-0.388062	
-0.38208	
-0.381226	
-0.381287	
-0.380493	
-0.381226	
-0.383179	
-0.388794	
-0.388245	
-0.388184	
-0.387939	
-0.387756	
-0.389465	
-0.387634	
-0.387878	
-0.385803	
-0.38501	
-0.385803	
-0.385254	
-0.386047	
-0.385376	
-0.38562	
-0.385681	
-0.386108	
-0.386414	
-0.386414	
-0.386292	
-0.385193	
-0.385315	
-0.385742	
-0.386902	
-0.387329	
-0.386658	
-0.387085	
-0.387451	
-0.387878	
-0.388245	
-0.388062	
-0.387573	
-0.38623	
-0.388	
-0.387512	
-0.388428	
-0.389526	
-0.389404	
-0.388977	
-0.388916	
-0.390076	
-0.390747	
-0.391602	
-0.391785	
-0.389587	
-0.391724	
-0.390198	
-0.391479	
-0.391724	
-0.391846	
-0.392029	
-0.391968	
-0.394897	
-0.393311	
-0.393494	
-0.393066	
-0.392822	
-0.393982	
-0.394043	
-0.39502	
-0.394653	
-0.394714	
-0.394714	
-0.393921	
-0.397034	
-0.395264	
-0.395386	
-0.394104	
-0.39447	
-0.393494	
-0.394226	
-0.395447	
-0.394165	
-0.391357	
-0.386414	
-0.386536	
-0.387634	
-0.386108	
-0.38623	
-0.388367	
-0.394226	
-0.394226	
-0.395508	
-0.395569	
-0.395386	
-0.39624	
-0.395935	
-0.398071	
-0.39801	
-0.39856	
-0.398499	
-0.396545	
-0.399841	
-0.400513	
-0.401428	
-0.402161	
-0.402222	
-0.402466	
-0.402527	
-0.406128	
-0.403931	
-0.403809	
-0.403442	
-0.403198	
-0.401611	
-0.402954	
-0.404236	
-0.40387	
-0.404846	
-0.405457	
-0.408508	
-0.407959	
-0.408875	
-0.407776	
-0.409058	
-0.409912	
-0.411011	
-0.412659	
-0.412048	
-0.412842	
-0.413025	
-0.415771	
-0.41571	
-0.415771	
-0.415833	
-0.415833	
-0.416748	
-0.416077	
-0.417725	
-0.416931	
-0.417114	
-0.416809	
-0.418396	
-0.418457	
-0.417603	
-0.417969	
-0.416748	
-0.418091	
-0.416931	
-0.417664	
-0.41803	
-0.416565	
-0.415833	
-0.415466	
-0.417053	
-0.415222	
-0.414856	
-0.413513	
-0.413391	
-0.413391	
-0.413391	
-0.41394	
-0.413086	
-0.412964	
-0.412659	
-0.413696	
-0.413635	
-0.412354	
-0.410889	
-0.411194	
-0.411682	
-0.411011	
-0.411926	
-0.4104	
-0.409668	
-0.408569	
-0.408508	
-0.407532	
-0.40564	
-0.404907	
-0.401917	
-0.402527	
-0.403015	
-0.402771	
-0.401184	
-0.39978	
-0.398621	
-0.397705	
-0.398376	
-0.396057	
-0.394775	
-0.393311	
-0.392517	
-0.391785	
-0.39032	
-0.391113	
-0.390198	
-0.389832	
-0.389709	
-0.388611	
-0.390564	
-0.389099	
-0.38855	
-0.387268	
-0.387268	
-0.388123	
-0.386597	
-0.388855	
-0.388184	
-0.388062	
-0.387878	
-0.388855	
-0.389771	
-0.388977	
-0.388977	
-0.385925	
-0.387329	
-0.386475	
-0.385742	
-0.384766	
-0.384338	
-0.38324	
-0.382202	
-0.382874	
-0.381226	
-0.379639	
-0.377808	
-0.375977	
-0.37616	
-0.374207	
-0.375183	
-0.374512	
-0.373291	
-0.372498	
-0.372498	
-0.372192	
-0.370544	
-0.370483	
-0.367554	
-0.368408	
-0.368469	
-0.369446	
-0.369324	
-0.369629	
-0.370361	
-0.370972	
-0.373596	
-0.372559	
-0.373413	
-0.372375	
-0.37262	
-0.371582	
-0.369873	
-0.37085	
-0.370667	
-0.370178	
-0.368774	
-0.370056	
-0.367859	
-0.367004	
-0.365906	
-0.364624	
-0.365051	
-0.363525	
-0.365112	
-0.364014	
-0.362488	
-0.362366	
-0.361755	
-0.363098	
-0.36084	
-0.360901	
-0.358765	
-0.357544	
-0.357727	
-0.357605	
-0.357361	
-0.356689	
-0.356934	
-0.356018	
-0.357422	
-0.356506	
-0.356995	
-0.355896	
-0.35553	
-0.356812	
-0.357544	
-0.358643	
-0.357727	
-0.35907	
-0.358887	
-0.360901	
-0.361023	
-0.361145	
-0.360535	
-0.360168	
-0.362244	
-0.361938	
-0.364563	
-0.363525	
-0.363831	
-0.363708	
-0.36438	
-0.364075	
-0.362854	
-0.362549	
-0.360168	
-0.362366	
-0.362854	
-0.362671	
-0.361755	
-0.36084	
-0.360474	
-0.358643	
-0.360474	
-0.358643	
-0.358582	
-0.356262	
-0.356018	
-0.355957	
-0.355408	
-0.356201	
-0.354553	
-0.354126	
-0.353455	
-0.354553	
-0.35376	
-0.352966	
-0.351135	
-0.348938	
-0.349731	
-0.349182	
-0.348083	
-0.347534	
-0.34729	
-0.34668	
-0.347473	
-0.347778	
-0.346558	
-0.346985	
-0.346375	
-0.347595	
-0.347839	
-0.349915	
-0.349915	
-0.35083	
-0.351318	
-0.353394	
-0.354309	
-0.355042	
-0.356506	
-0.355957	
-0.35791	
-0.358948	
-0.35968	
-0.360046	
-0.360657	
-0.361572	
-0.362061	
-0.362732	
-0.362915	
-0.362976	
-0.361511	
-0.361816	
-0.361816	
-0.362671	
-0.362244	
-0.361267	
-0.361145	
-0.361328	
-0.361511	
-0.36084	
-0.360596	
-0.359436	
-0.359131	
-0.35968	
-0.358521	
-0.359009	
-0.358582	
-0.358521	
-0.358337	
-0.358704	
-0.35907	
-0.358154	
-0.356567	
-0.356079	
-0.356079	
-0.357422	
-0.358887	
-0.359436	
-0.359497	
-0.359863	
-0.359375	
-0.361023	
-0.360596	
-0.361023	
-0.359985	
-0.359619	
-0.359985	
-0.360107	
-0.361633	
-0.361328	
-0.361267	
-0.362183	
-0.36322	
-0.362976	
-0.362854	
-0.362854	
-0.362793	
-0.36322	
-0.363403	
-0.364563	
-0.364197	
-0.36499	
-0.366089	
-0.365173	
-0.366089	
-0.367249	
-0.367249	
-0.367126	
-0.367432	
-0.36731	
-0.368103	
-0.369324	
-0.369019	
-0.370056	
-0.371094	
-0.370911	
-0.371521	
-0.372498	
-0.371033	
-0.372253	
-0.372192	
-0.373474	
-0.373901	
-0.373596	
-0.374329	
-0.374023	
-0.375671	
-0.375488	
-0.37561	
-0.375244	
-0.374939	
-0.375488	
-0.376648	
-0.377808	
-0.377258	
-0.378418	
-0.380127	
-0.380981	
-0.38092	
-0.380493	
-0.381409	
-0.380249	
-0.381042	
-0.380554	
-0.381897	
-0.382202	
-0.380798	
-0.381836	
-0.381775	
-0.382141	
-0.381836	
-0.382507	
-0.3797	
-0.381531	
-0.379822	
-0.382019	
-0.382996	
-0.382385	
-0.382263	
-0.382141	
-0.38446	
-0.383057	
-0.384033	
-0.383484	
-0.383545	
-0.382446	
-0.384399	
-0.384766	
-0.383911	
-0.384216	
-0.38446	
-0.385193	
-0.384888	
-0.385681	
-0.385193	
-0.38501	
-0.383545	
-0.38562	
-0.386047	
-0.385864	
-0.38562	
-0.385315	
-0.385925	
-0.385742	
-0.386047	
-0.385132	
-0.383545	
-0.38446	
-0.384277	
-0.384583	
-0.383911	
-0.383667	
-0.383362	
-0.38324	
-0.383362	
-0.383789	
-0.382813	
-0.382141	
-0.382446	
-0.381287	
-0.383057	
-0.382751	
-0.381531	
-0.380554	
-0.380066	
-0.382019	
-0.382141	
-0.382996	
-0.380798	
-0.380737	
-0.381165	
-0.382385	
-0.382568	
-0.38208	
-0.381775	
-0.381042	
-0.382507	
-0.382019	
-0.382751	
-0.380676	
-0.380249	
-0.380188	
-0.380493	
-0.38092	
-0.379944	
-0.378967	
-0.379089	
-0.379333	
-0.379822	
-0.379639	
-0.378174	
-0.376465	
-0.377136	
-0.377014	
-0.377502	
-0.378113	
-0.378479	
-0.37738	
-0.377869	
-0.37854	
-0.379028	
-0.378113	
-0.377625	
-0.378113	
-0.378845	
-0.379211	
-0.379211	
-0.379517	
-0.3797	
-0.378845	
-0.38031	
-0.380493	
-0.380249	
-0.378906	
-0.379639	
-0.378906	
-0.3797	
-0.379517	
-0.379517	
-0.378784	
-0.379517	
-0.380005	
-0.379578	
-0.379822	
-0.378784	
-0.377991	
-0.378784	
-0.379333	
-0.380066	
-0.380188	
-0.380981	
-0.380798	
-0.3797	
-0.383301	
-0.384583	
-0.384399	
-0.38385	
-0.382141	
-0.382996	
-0.383789	
-0.384766	
-0.384155	
-0.384277	
-0.384583	
-0.384888	
-0.385742	
-0.385376	
-0.38446	
-0.383484	
-0.383667	
-0.383911	
-0.38623	
-0.385986	
-0.386108	
-0.38562	
-0.38623	
-0.387268	
-0.388428	
-0.386414	
-0.38623	
-0.385925	
-0.386414	
-0.387512	
-0.387695	
-0.387695	
-0.388	
-0.387756	
-0.388123	
-0.389771	
-0.390015	
-0.388245	
-0.387573	
-0.386841	
-0.388245	
-0.387878	
-0.387756	
-0.387146	
-0.387268	
-0.38623	
-0.388428	
-0.388123	
-0.386169	
-0.385681	
-0.385437	
-0.385986	
-0.38623	
-0.385132	
-0.384094	
-0.382935	
-0.381775	
-0.383545	
-0.384583	
-0.38446	
-0.38324	
-0.383423	
-0.38269	
-0.384155	
-0.384155	
-0.383728	
-0.384155	
-0.383728	
-0.383667	
-0.384094	
-0.384521	
-0.383606	
-0.383484	
-0.382935	
-0.383484	
-0.38385	
-0.38385	
-0.383911	
-0.383301	
-0.38324	
-0.384338	
-0.383911	
-0.384583	
-0.384155	
-0.382813	
-0.382996	
-0.383911	
-0.384338	
-0.383606	
-0.383118	
-0.383179	
-0.382935	
-0.384155	
-0.384094	
-0.382263	
-0.380432	
-0.38147	
-0.380859	
-0.381531	
-0.380493	
-0.380371	
-0.379883	
-0.380005	
-0.380371	
-0.380676	
-0.380981	
-0.379517	
-0.379456	
-0.378662	
-0.380127	
-0.38031	
-0.380432	
-0.380249	
-0.380798	
-0.381165	
-0.382202	
-0.382263	
-0.38092	
-0.379639	
-0.381287	
-0.382324	
-0.382507	
-0.382141	
-0.382019	
-0.382385	
-0.382996	
-0.384216	
-0.384033	
-0.383972	
-0.383301	
-0.383667	
-0.383301	
-0.383789	
-0.384888	
-0.385864	
-0.386169	
-0.384644	
-0.385803	
-0.385315	
-0.385254	
-0.385437	
-0.384644	
-0.385254	
-0.385559	
-0.38739	
-0.387268	
-0.387329	
-0.386536	
-0.387329	
-0.388977	
-0.388	
-0.388245	
-0.387146	
-0.387451	
-0.387207	
-0.388855	
-0.38855	
-0.388	
-0.388428	
-0.386902	
-0.388245	
-0.38855	
-0.388428	
-0.387878	
-0.384644	
-0.386169	
-0.386902	
-0.387573	
-0.386841	
-0.386108	
-0.386353	
-0.38623	
-0.387634	
-0.385742	
-0.385193	
-0.385193	
-0.385071	
-0.384399	
-0.38446	
-0.384766	
-0.38446	
-0.384033	
-0.38385	
-0.384338	
-0.384827	
-0.384216	
-0.38385	
-0.382141	
-0.383118	
-0.382324	
-0.383545	
-0.382751	
-0.38208	
-0.382141	
-0.381958	
-0.380371	
-0.379822	
-0.3797	
-0.380188	
-0.379639	
-0.379578	
-0.380554	
-0.381653	
-0.380615	
-0.381531	
-0.381104	
-0.382141	
-0.383057	
-0.382874	
-0.382568	
-0.38147	
-0.382935	
-0.382324	
-0.383179	
-0.384216	
-0.384521	
-0.384949	
-0.385193	
-0.386719	
-0.386719	
-0.385803	
-0.385986	
-0.383911	
-0.384521	
-0.384399	
-0.38501	
-0.384277	
-0.384155	
-0.383972	
-0.38385	
-0.385315	
-0.38385	
-0.383667	
-0.382996	
-0.382935	
-0.381714	
-0.382507	
-0.382446	
-0.382263	
-0.382996	
-0.381653	
-0.383667	
-0.382996	
-0.383972	
-0.382568	
-0.38324	
-0.38324	
-0.383789	
-0.383911	
-0.384521	
-0.384338	
-0.384094	
-0.385254	
-0.386536	
-0.385315	
-0.384766	
-0.385681	
-0.385803	
-0.384766	
-0.385559	
-0.385498	
-0.38623	
-0.385681	
-0.386902	
-0.387878	
-0.388062	
-0.387756	
-0.387512	
-0.386536	
-0.38678	
-0.387146	
-0.385803	
-0.386414	
-0.386414	
-0.385559	
-0.386292	
-0.387085	
-0.387024	
-0.385071	
-0.386536	
-0.386292	
-0.385132	
-0.387329	
-0.387024	
-0.386841	
-0.387268	
-0.388245	
-0.388	
-0.388	
-0.388245	
-0.388367	
-0.387085	
-0.388428	
-0.387512	
-0.388794	
-0.389404	
-0.389343	
-0.389343	
-0.390015	
-0.390625	
-0.389587	
-0.390503	
-0.390015	
-0.388367	
-0.388794	
-0.389709	
-0.389038	
-0.388916	
-0.389099	
-0.387939	
-0.388916	
-0.389221	
-0.387939	
-0.387817	
-0.387634	
-0.387939	
-0.387329	
-0.387268	
-0.387817	
-0.387634	
-0.38678	
-0.387146	
-0.387634	
-0.387146	
-0.386414	
-0.387756	
-0.386658	
-0.386169	
-0.38623	
-0.385864	
-0.386169	
-0.385925	
-0.385681	
-0.384277	
-0.383728	
-0.38324	
-0.385132	
-0.384338	
-0.384827	
-0.383728	
-0.38385	
-0.385254	
-0.384888	
-0.385193	
-0.385132	
-0.385193	
-0.384766	
-0.385742	
-0.385315	
-0.384399	
-0.384399	
-0.382996	
-0.38385	
-0.383972	
-0.384338	
-0.384033	
-0.384155	
-0.384521	
-0.384033	
-0.384033	
-0.382996	
-0.382874	
-0.382935	
-0.382385	
-0.382813	
-0.382874	
-0.382202	
-0.382263	
-0.382202	
-0.38208	
-0.381226	
-0.382813	
-0.381897	
-0.382141	
-0.381836	
-0.382629	
-0.383301	
-0.383057	
-0.382629	
-0.383545	
-0.384399	
-0.383789	
-0.384338	
-0.38446	
-0.383972	
-0.38446	
-0.383911	
-0.384766	
-0.38562	
-0.386536	
-0.386353	
-0.387878	
-0.386475	
-0.385742	
-0.388	
-0.386536	
-0.386414	
-0.38678	
-0.387207	
-0.387512	
-0.387024	
-0.387939	
-0.387329	
-0.387207	
-0.386902	
-0.387207	
-0.387024	
-0.386963	
-0.386475	
-0.386841	
-0.387512	
-0.387329	
-0.38739	
-0.386536	
-0.387756	
-0.387085	
-0.386475	
-0.387939	
-0.385803	
-0.387451	
-0.386963	
-0.386841	
-0.387634	
-0.387878	
-0.388062	
-0.388062	
-0.389893	
-0.388367	
-0.389465	
-0.390564	
-0.389709	
-0.389465	
-0.389465	
-0.390686	
-0.39093	
-0.391235	
-0.390625	
-0.392151	
-0.391235	
-0.389771	
-0.39209	
-0.391113	
-0.390869	
-0.390198	
-0.39032	
-0.390869	
-0.390991	
-0.390991	
-0.390076	
-0.391479	
-0.389893	
-0.390015	
-0.390503	
-0.389404	
-0.389587	
-0.388489	
-0.389465	
-0.388611	
-0.38916	
-0.388	
-0.389221	
-0.388245	
-0.387268	
-0.38855	
-0.387085	
-0.38623	
-0.385132	
-0.383423	
-0.385193	
-0.385254	
-0.387024	
-0.384583	
-0.386841	
-0.384827	
-0.385437	
-0.386169	
-0.384705	
-0.38385	
-0.383423	
-0.384521	
-0.383423	
-0.383545	
-0.383057	
-0.382629	
-0.383484	
-0.38208	
-0.383423	
-0.382202	
-0.382568	
-0.382263	
-0.380554	
-0.382813	
-0.382019	
-0.383118	
-0.38269	
-0.382874	
-0.382385	
-0.382874	
-0.383362	
-0.382446	
-0.382935	
-0.383057	
-0.383728	
-0.383606	
-0.38446	
-0.384338	
-0.384216	
-0.384399	
-0.383667	
-0.385437	
-0.385071	
-0.385498	
-0.385559	
-0.38446	
-0.386475	
-0.386414	
-0.386292	
-0.386292	
-0.38623	
-0.386169	
-0.386597	
-0.387634	
-0.38501	
-0.386719	
-0.386475	
-0.38623	
-0.387573	
-0.387878	
-0.387512	
-0.387634	
-0.390686	
-0.389282	
-0.390137	
-0.391479	
-0.388245	
-0.388916	
-0.388855	
-0.389893	
-0.389038	
-0.389587	
-0.387878	
-0.38855	
-0.387939	
-0.387634	
-0.388428	
-0.388123	
-0.38739	
-0.386841	
-0.386292	
-0.387207	
-0.386658	
-0.387451	
-0.38562	
-0.387268	
-0.386902	
-0.388245	
-0.388977	
-0.387756	
-0.388428	
-0.387878	
-0.38916	
-0.388977	
-0.389709	
-0.389587	
-0.390015	
-0.390137	
-0.390808	
-0.390564	
-0.390381	
-0.390686	
-0.391174	
-0.389709	
-0.392029	
-0.391846	
-0.392883	
-0.390625	
-0.392334	
-0.390991	
-0.390991	
-0.391724	
-0.390991	
-0.390686	
-0.39032	
-0.390625	
-0.389954	
-0.389343	
-0.389587	
-0.389038	
-0.388855	
-0.388062	
-0.389465	
-0.388	
-0.388428	
-0.388794	
-0.38678	
-0.387817	
-0.387024	
-0.386963	
-0.385925	
-0.38678	
-0.387146	
-0.386719	
-0.387634	
-0.386169	
-0.386658	
-0.386047	
-0.38562	
-0.386292	
-0.38623	
-0.387085	
-0.385376	
-0.386841	
-0.385986	
-0.38623	
-0.386169	
-0.385254	
-0.384949	
-0.383667	
-0.385437	
-0.38446	
-0.384338	
-0.383667	
-0.383057	
-0.383423	
-0.382385	
-0.384583	
-0.383057	
-0.383301	
-0.382202	
-0.381287	
-0.383118	
-0.382813	
-0.383484	
-0.382935	
-0.383545	
-0.383545	
-0.383667	
-0.38446	
-0.38324	
-0.383545	
-0.382935	
-0.384155	
-0.384277	
-0.384644	
-0.384216	
-0.383606	
-0.384094	
-0.383423	
-0.385132	
-0.383667	
-0.385132	
-0.384888	
-0.383667	
-0.386719	
-0.385559	
-0.386536	
-0.386169	
-0.386841	
-0.386108	
-0.386841	
-0.387634	
-0.386414	
-0.386719	
-0.386902	
-0.387268	
-0.388428	
-0.388	
-0.389465	
-0.389709	
-0.390869	
-0.388794	
-0.390137	
-0.390198	
-0.388794	
-0.388733	
-0.388123	
-0.389587	
-0.389648	
-0.389526	
-0.388794	
-0.388855	
-0.38855	
-0.388245	
-0.390198	
-0.388123	
-0.389526	
-0.389099	
-0.389954	
-0.389954	
-0.389954	
-0.390808	
-0.389832	
-0.390564	
-0.389648	
-0.390503	
-0.390015	
-0.389709	
-0.390991	
-0.390564	
-0.391785	
-0.391968	
-0.392212	
-0.391846	
-0.390503	
-0.392395	
-0.39093	
-0.391785	
-0.390747	
-0.391235	
-0.390686	
-0.389832	
-0.391052	
-0.390625	
-0.389832	
-0.389954	
-0.390198	
-0.389771	
-0.388916	
-0.390564	
-0.388123	
-0.388428	
-0.386658	
-0.387085	
-0.386658	
-0.387146	
-0.387573	
-0.386536	
-0.387146	
-0.386902	
-0.387939	
-0.387146	
-0.385986	
-0.38678	
-0.385864	
-0.387634	
-0.387207	
-0.387512	
-0.386902	
-0.387146	
-0.387695	
-0.387024	
-0.388	
-0.386902	
-0.386719	
-0.38678	
-0.385559	
-0.386841	
-0.387268	
-0.387512	
-0.385681	
-0.387512	
-0.387085	
-0.387207	
-0.388245	
-0.386353	
-0.386353	
-0.385559	
-0.386536	
-0.385559	
-0.385376	
-0.38562	
-0.385071	
-0.385864	
-0.384155	
-0.38623	
-0.384094	
-0.383789	
-0.383179	
-0.382141	
-0.383667	
-0.382751	
-0.384094	
-0.382996	
-0.383118	
-0.383301	
-0.383667	
-0.384216	
-0.382507	
-0.382935	
-0.382874	
-0.383972	
-0.383545	
-0.384644	
-0.38446	
-0.384583	
-0.385071	
-0.383301	
-0.385498	
-0.38501	
-0.385193	
-0.385315	
-0.383789	
-0.386414	
-0.386047	
-0.38678	
-0.386169	
-0.386902	
-0.387634	
-0.387207	
-0.38855	
-0.388184	
-0.389954	
-0.389221	
-0.388977	
-0.389282	
-0.389282	
-0.389099	
-0.388733	
-0.389465	
-0.389282	
-0.390869	
-0.390503	
-0.389648	
-0.391174	
-0.390503	
-0.392578	
-0.391968	
-0.393433	
-0.391724	
-0.392517	
-0.393433	
-0.392944	
-0.393005	
-0.3927	
-0.392944	
-0.392639	
-0.391663	
-0.392761	
-0.392761	
-0.393494	
-0.391785	
-0.391907	
-0.392456	
-0.391907	
-0.391724	
-0.390503	
-0.391296	
-0.391174	
-0.390869	
-0.39093	
-0.390869	
-0.390198	
-0.389648	
-0.390381	
-0.389587	
-0.389771	
-0.390503	
-0.388672	
-0.389465	
-0.387756	
-0.390076	
-0.389038	
-0.389648	
-0.388184	
-0.388916	
-0.389221	
-0.388855	
-0.388855	
-0.388611	
-0.388	
-0.388123	
-0.387634	
-0.386353	
-0.385132	
-0.38562	
-0.386169	
-0.386597	
-0.387207	
-0.386963	
-0.387573	
-0.386902	
-0.386597	
-0.386292	
-0.38739	
-0.387268	
-0.387939	
-0.387329	
-0.387634	
-0.387512	
-0.388611	
-0.388977	
-0.389587	
-0.387634	
-0.388611	
-0.388	
-0.388733	
-0.389099	
-0.388855	
-0.387512	
-0.387634	
-0.388	
-0.387451	
-0.387573	
-0.386841	
-0.386047	
-0.386047	
-0.385925	
-0.386292	
-0.386108	
-0.385254	
-0.385376	
-0.384399	
-0.385132	
-0.384705	
-0.385315	
-0.384033	
-0.383606	
-0.383972	
-0.384644	
-0.384583	
-0.384644	
-0.385193	
-0.384766	
-0.384216	
-0.384827	
-0.385559	
-0.386292	
-0.384949	
-0.386169	
-0.385254	
-0.387268	
-0.388062	
-0.386353	
-0.386475	
-0.386536	
-0.387817	
-0.387695	
-0.388306	
-0.387024	
-0.386353	
-0.388367	
-0.390137	
-0.390442	
-0.389832	
-0.389221	
-0.388977	
-0.388184	
-0.390198	
-0.389771	
-0.390015	
-0.389038	
-0.389587	
-0.389465	
-0.390747	
-0.390564	
-0.390076	
-0.389893	
-0.390686	
-0.391174	
-0.391602	
-0.391357	
-0.392273	
-0.392029	
-0.392578	
-0.391113	
-0.392822	
-0.393005	
-0.392822	
-0.392639	
-0.392029	
-0.394104	
-0.393738	
-0.394775	
-0.393616	
-0.393372	
-0.393066	
-0.394531	
-0.393372	
-0.393005	
-0.39325	
-0.392517	
-0.391907	
-0.393127	
-0.392151	
-0.393616	
-0.391357	
-0.392273	
-0.391663	
-0.392639	
-0.392639	
-0.391663	
-0.391357	
-0.391052	
-0.39209	
-0.391479	
-0.391113	
-0.390991	
-0.390564	
-0.390076	
-0.388794	
-0.39032	
-0.390625	
-0.390015	
-0.389587	
-0.388916	
-0.389954	
-0.389465	
-0.389893	
-0.388306	
-0.387695	
-0.386475	
-0.385925	
-0.386719	
-0.387085	
-0.387207	
-0.386536	
-0.386902	
-0.387695	
-0.388	
-0.388733	
-0.387268	
-0.387695	
-0.388062	
-0.388428	
-0.388306	
-0.387756	
-0.387329	
-0.387573	
-0.38739	
-0.387085	
-0.387207	
-0.386902	
-0.387146	
-0.386292	
-0.385986	
-0.387451	
-0.387207	
-0.386597	
-0.385742	
-0.386169	
-0.385986	
-0.385132	
-0.386047	
-0.384949	
-0.384949	
-0.384338	
-0.384949	
-0.386047	
-0.38501	
-0.384766	
-0.384521	
-0.386475	
-0.386108	
-0.386108	
-0.387146	
-0.386292	
-0.38678	
-0.386597	
-0.386902	
-0.38739	
-0.387024	
-0.385742	
-0.387024	
-0.38739	
-0.387451	
-0.389221	
-0.390503	
-0.390137	
-0.390076	
-0.391052	
-0.39032	
-0.389526	
-0.389832	
-0.389587	
-0.390137	
-0.389587	
-0.389709	
-0.389404	
-0.389832	
-0.389893	
-0.389404	
-0.390442	
-0.39032	
-0.390076	
-0.390198	
-0.390198	
-0.389893	
-0.390198	
-0.390625	
-0.389648	
-0.389954	
-0.390259	
-0.390015	
-0.390137	
-0.389709	
-0.390015	
-0.389343	
-0.390991	
-0.391113	
-0.390991	
-0.391602	
-0.392639	
-0.390991	
-0.391418	
-0.392456	
-0.392456	
-0.392212	
-0.392151	
-0.393372	
-0.393738	
-0.393982	
-0.39386	
-0.393982	
-0.394592	
-0.394165	
-0.394287	
-0.394104	
-0.394531	
-0.394592	
-0.393677	
-0.393921	
-0.39386	
-0.393372	
-0.393372	
-0.392761	
-0.393372	
-0.392883	
-0.392212	
-0.393555	
-0.392761	
-0.392639	
-0.392273	
-0.392761	
-0.392029	
-0.391968	
-0.392578	
-0.391907	
-0.39093	
-0.391174	
-0.391235	
-0.391663	
-0.390686	
-0.388977	
-0.388	
-0.387817	
-0.387756	
-0.388367	
-0.388062	
-0.389526	
-0.388428	
-0.387634	
-0.38916	
-0.388794	
-0.387573	
-0.387451	
-0.387146	
-0.386414	
-0.386658	
-0.38678	
-0.385742	
-0.385559	
-0.385071	
-0.385742	
-0.385498	
-0.385193	
-0.385498	
-0.384583	
-0.384888	
-0.385132	
-0.384949	
-0.384644	
-0.386169	
-0.385193	
-0.38501	
-0.38678	
-0.386658	
-0.386292	
-0.386108	
-0.385376	
-0.386047	
-0.386353	
-0.387268	
-0.386047	
-0.387512	
-0.387939	
-0.38739	
-0.388245	
-0.388794	
-0.387573	
-0.387878	
-0.388306	
-0.388794	
-0.388794	
-0.389465	
-0.389587	
-0.389038	
-0.388916	
-0.38916	
-0.389526	
-0.388855	
-0.389465	
-0.38916	
-0.388977	
-0.389832	
-0.390137	
-0.389465	
-0.392151	
-0.392212	
-0.391907	
-0.392578	
-0.392395	
-0.392029	
-0.392029	
-0.392151	
-0.390686	
-0.391846	
-0.392029	
-0.390198	
-0.391235	
-0.390442	
-0.390869	
-0.389954	
-0.391052	
-0.390625	
-0.389648	
-0.390137	
-0.389709	
-0.389648	
-0.38916	
-0.390137	
-0.389526	
	
