E:\DOCUMENTS AND SETTINGS\JPOTAS\MEUS DOCUMENTOS\UFRJ\RSCI-BM 12 WK SERIES\070803-RSCI-BM-11\RSCI-BM-11-REMG\070803-RSCI-BM-11-REMG-0002.ACQ
0.025000 msec/sample
1 channel
Analog input
Volts
CH1	
2000	
-0.390015	
-0.391602	
-0.392273	
-0.390808	
-0.390747	
-0.389343	
-0.391052	
-0.391052	
-0.391113	
-0.390076	
-0.388672	
-0.388367	
-0.388367	
-0.388977	
-0.390442	
-0.38916	
-0.388428	
-0.386353	
-0.387207	
-0.387695	
-0.389709	
-0.390259	
-0.390015	
-0.390137	
-0.390808	
-0.390686	
-0.390137	
-0.390015	
-0.389954	
-0.388245	
-0.389954	
-0.390076	
-0.390686	
-0.389893	
-0.388367	
-0.389832	
-0.389954	
-0.39032	
-0.390747	
-0.390381	
-0.389954	
-0.388062	
-0.389404	
-0.389893	
-0.390442	
-0.389954	
-0.38916	
-0.389465	
-0.389832	
-0.390808	
-0.390137	
-0.389709	
-0.389832	
-0.388123	
-0.389526	
-0.390137	
-0.390137	
-0.389893	
-0.387878	
-0.388672	
-0.389709	
-0.389832	
-0.388916	
-0.388977	
-0.389282	
-0.38678	
-0.387268	
-0.38916	
-0.388733	
-0.387695	
-0.387268	
-0.388367	
-0.387939	
-0.388855	
-0.388489	
-0.388794	
-0.38739	
-0.387268	
-0.387024	
-0.388	
-0.387756	
-0.387817	
-0.386414	
-0.386902	
-0.387695	
-0.38855	
-0.388184	
-0.38739	
-0.387329	
-0.38562	
-0.387207	
-0.388428	
-0.387634	
-0.387451	
-0.386536	
-0.387512	
-0.388428	
-0.389954	
-0.388489	
-0.388794	
-0.388794	
-0.388428	
-0.389526	
-0.391357	
-0.39032	
-0.390137	
-0.390198	
-0.390625	
-0.391663	
-0.3927	
-0.392456	
-0.391479	
-0.391418	
-0.390564	
-0.392029	
-0.39325	
-0.392822	
-0.392212	
-0.391541	
-0.391785	
-0.391602	
-0.392395	
-0.391113	
-0.390076	
-0.389771	
-0.389587	
-0.390381	
-0.389404	
-0.389038	
-0.388306	
-0.387817	
-0.387817	
-0.388428	
-0.389038	
-0.388245	
-0.387146	
-0.386353	
-0.385803	
-0.387573	
-0.387573	
-0.386597	
-0.386353	
-0.386292	
-0.385925	
-0.385986	
-0.38739	
-0.386536	
-0.385803	
-0.38562	
-0.385071	
-0.386597	
-0.385559	
-0.385681	
-0.384521	
-0.384155	
-0.385071	
-0.385376	
-0.387024	
-0.385681	
-0.385132	
-0.384827	
-0.384949	
-0.386536	
-0.38623	
-0.385742	
-0.385864	
-0.385925	
-0.387085	
-0.387451	
-0.388977	
-0.387756	
-0.387146	
-0.387085	
-0.387634	
-0.388977	
-0.388367	
-0.388	
-0.38739	
-0.386536	
-0.387817	
-0.388062	
-0.389282	
-0.388367	
-0.387512	
-0.387146	
-0.386658	
-0.388489	
-0.387085	
-0.387329	
-0.387451	
-0.38623	
-0.387634	
-0.388062	
-0.389954	
-0.387695	
-0.387207	
-0.38678	
-0.383667	
-0.380249	
-0.379089	
-0.379272	
-0.378723	
-0.37915	
-0.383911	
-0.388245	
-0.389282	
-0.388123	
-0.388184	
-0.387329	
-0.387878	
-0.389404	
-0.38855	
-0.388428	
-0.388123	
-0.388611	
-0.388245	
-0.38855	
-0.389587	
-0.388916	
-0.387878	
-0.387512	
-0.388184	
-0.389221	
-0.387756	
-0.388	
-0.387817	
-0.387573	
-0.388	
-0.388733	
-0.388611	
-0.388062	
-0.387573	
-0.385986	
-0.387268	
-0.388855	
-0.388062	
-0.388367	
-0.388428	
-0.388306	
-0.388489	
-0.389282	
-0.389832	
-0.388733	
-0.389221	
-0.387573	
-0.388794	
-0.390869	
-0.389954	
-0.389465	
-0.389404	
-0.390198	
-0.39032	
-0.390442	
-0.390686	
-0.390259	
-0.389526	
-0.388	
-0.389343	
-0.389343	
-0.389709	
-0.389404	
-0.387939	
-0.389587	
-0.389404	
-0.390137	
-0.390015	
-0.389526	
-0.38916	
-0.387878	
-0.389099	
-0.389587	
-0.389343	
-0.389709	
-0.388184	
-0.389587	
-0.389709	
-0.390503	
-0.389832	
-0.389465	
-0.390015	
-0.387512	
-0.389282	
-0.390015	
-0.390137	
-0.390503	
-0.389893	
-0.391724	
-0.391357	
-0.392456	
-0.392822	
-0.392761	
-0.393127	
-0.392395	
-0.395264	
-0.396362	
-0.396118	
-0.39679	
-0.396851	
-0.398682	
-0.398804	
-0.401306	
-0.401306	
-0.400879	
-0.401428	
-0.401733	
-0.403015	
-0.401428	
-0.401123	
-0.401062	
-0.400574	
-0.401428	
-0.401855	
-0.402466	
-0.401733	
-0.40155	
-0.402039	
-0.402283	
-0.403809	
-0.404053	
-0.404785	
-0.404846	
-0.405762	
-0.406128	
-0.406921	
-0.407471	
-0.406006	
-0.406433	
-0.404541	
-0.406982	
-0.406311	
-0.40625	
-0.405396	
-0.404968	
-0.406128	
-0.405945	
-0.407043	
-0.405273	
-0.403809	
-0.403137	
-0.403381	
-0.40448	
-0.403259	
-0.40271	
-0.401245	
-0.402832	
-0.403442	
-0.403748	
-0.403381	
-0.400391	
-0.399658	
-0.398743	
-0.401611	
-0.40033	
-0.39679	
-0.394836	
-0.393738	
-0.393982	
-0.394226	
-0.394165	
-0.394897	
-0.393372	
-0.393188	
-0.391663	
-0.393799	
-0.392395	
-0.391541	
-0.391113	
-0.39032	
-0.390442	
-0.390015	
-0.389465	
-0.388672	
-0.387451	
-0.385986	
-0.38501	
-0.385803	
-0.385193	
-0.383911	
-0.382629	
-0.382141	
-0.381897	
-0.381714	
-0.382202	
-0.381592	
-0.379822	
-0.379333	
-0.378845	
-0.377991	
-0.377625	
-0.377075	
-0.375	
-0.372498	
-0.372314	
-0.371521	
-0.37146	
-0.369019	
-0.367065	
-0.365112	
-0.363525	
-0.36322	
-0.361938	
-0.361389	
-0.359558	
-0.359131	
-0.359863	
-0.359253	
-0.359253	
-0.35968	
-0.358582	
-0.357178	
-0.358521	
-0.35968	
-0.359192	
-0.358032	
-0.3573	
-0.357727	
-0.355591	
-0.355469	
-0.355103	
-0.351929	
-0.35144	
-0.348633	
-0.348022	
-0.346985	
-0.346558	
-0.343506	
-0.342896	
-0.34375	
-0.342529	
-0.342896	
-0.34198	
-0.339478	
-0.338928	
-0.340271	
-0.339355	
-0.337891	
-0.338379	
-0.338684	
-0.338501	
-0.339111	
-0.341431	
-0.340454	
-0.340454	
-0.341064	
-0.341431	
-0.341492	
-0.34259	
-0.342285	
-0.342712	
-0.342529	
-0.343506	
-0.343994	
-0.344604	
-0.34552	
-0.345459	
-0.345825	
-0.346802	
-0.348389	
-0.348206	
-0.347961	
-0.348755	
-0.349365	
-0.350647	
-0.351563	
-0.351563	
-0.351501	
-0.351868	
-0.35199	
-0.352844	
-0.353271	
-0.353516	
-0.354309	
-0.355164	
-0.35498	
-0.35614	
-0.356934	
-0.357178	
-0.357239	
-0.356934	
-0.358704	
-0.35968	
-0.360352	
-0.359863	
-0.361084	
-0.362671	
-0.364563	
-0.365662	
-0.366516	
-0.366699	
-0.366577	
-0.368408	
-0.370239	
-0.369873	
-0.370056	
-0.370117	
-0.370605	
-0.370422	
-0.37207	
-0.372742	
-0.372314	
-0.371704	
-0.370667	
-0.371399	
-0.37146	
-0.37146	
-0.370483	
-0.370422	
-0.371094	
-0.371094	
-0.372559	
-0.371826	
-0.372375	
-0.371948	
-0.371338	
-0.37262	
-0.37262	
-0.372009	
-0.370178	
-0.370667	
-0.372437	
-0.374329	
-0.374329	
-0.374573	
-0.374023	
-0.37262	
-0.373413	
-0.374756	
-0.374146	
-0.373901	
-0.374512	
-0.374634	
-0.375061	
-0.375305	
-0.376709	
-0.376831	
-0.375427	
-0.375427	
-0.377197	
-0.376648	
-0.376709	
-0.375793	
-0.375916	
-0.377075	
-0.376892	
-0.378662	
-0.377625	
-0.377014	
-0.376831	
-0.377747	
-0.378174	
-0.377808	
-0.37793	
-0.377808	
-0.377808	
-0.378174	
-0.378357	
-0.378418	
-0.377869	
-0.377808	
-0.377502	
-0.376831	
-0.377014	
-0.376892	
-0.376221	
-0.375854	
-0.376404	
-0.376465	
-0.376831	
-0.375977	
-0.375488	
-0.375244	
-0.374512	
-0.375916	
-0.375305	
-0.374451	
-0.374756	
-0.375916	
-0.374878	
-0.375	
-0.37561	
-0.375854	
-0.374329	
-0.372803	
-0.374573	
-0.37439	
-0.373596	
-0.373413	
-0.373352	
-0.373962	
-0.374756	
-0.375793	
-0.374451	
-0.374573	
-0.374084	
-0.374146	
-0.374512	
-0.374451	
-0.374451	
-0.375122	
-0.374878	
-0.374878	
-0.375366	
-0.376831	
-0.376282	
-0.375732	
-0.375916	
-0.376831	
-0.377014	
-0.37616	
-0.375854	
-0.375793	
-0.375916	
-0.376343	
-0.377014	
-0.376526	
-0.377502	
-0.377014	
-0.375488	
-0.377075	
-0.377258	
-0.37738	
-0.376831	
-0.376892	
-0.378052	
-0.378662	
-0.380066	
-0.378906	
-0.378784	
-0.378906	
-0.379456	
-0.378845	
-0.37915	
-0.379456	
-0.379944	
-0.37854	
-0.380371	
-0.380859	
-0.381958	
-0.381897	
-0.381226	
-0.381165	
-0.381836	
-0.382263	
-0.381592	
-0.381531	
-0.38208	
-0.383057	
-0.383423	
-0.384644	
-0.383545	
-0.383301	
-0.383423	
-0.383972	
-0.383911	
-0.384216	
-0.384583	
-0.384338	
-0.384094	
-0.385193	
-0.385803	
-0.385559	
-0.385559	
-0.384766	
-0.383789	
-0.385559	
-0.385132	
-0.384644	
-0.383484	
-0.384094	
-0.384216	
-0.384216	
-0.384827	
-0.383728	
-0.384705	
-0.383301	
-0.382568	
-0.382141	
-0.380798	
-0.380188	
-0.380188	
-0.379944	
-0.381653	
-0.380615	
-0.380737	
-0.379761	
-0.379395	
-0.378845	
-0.381531	
-0.383728	
-0.382629	
-0.38147	
-0.381958	
-0.38208	
-0.382263	
-0.384094	
-0.382568	
-0.382385	
-0.381836	
-0.382935	
-0.382141	
-0.383789	
-0.382507	
-0.382629	
-0.382324	
-0.382813	
-0.383789	
-0.383728	
-0.382263	
-0.382141	
-0.381226	
-0.38269	
-0.381531	
-0.38269	
-0.382324	
-0.382874	
-0.381226	
-0.38269	
-0.383301	
-0.382751	
-0.383301	
-0.382507	
-0.381226	
-0.38208	
-0.383179	
-0.381958	
-0.382019	
-0.381958	
-0.381592	
-0.382568	
-0.382629	
-0.382324	
-0.382141	
-0.381042	
-0.381836	
-0.381653	
-0.382446	
-0.381165	
-0.382019	
-0.381836	
-0.381714	
-0.383118	
-0.382324	
-0.381836	
-0.38147	
-0.382385	
-0.381409	
-0.381531	
-0.382019	
-0.381287	
-0.381714	
-0.381226	
-0.381653	
-0.38269	
-0.382446	
-0.382629	
-0.381226	
-0.38208	
-0.381775	
-0.382507	
-0.381714	
-0.382202	
-0.381897	
-0.381409	
-0.384155	
-0.383118	
-0.383606	
-0.383057	
-0.383728	
-0.384583	
-0.384521	
-0.386169	
-0.385193	
-0.386414	
-0.386658	
-0.387268	
-0.388855	
-0.387329	
-0.388916	
-0.387695	
-0.389038	
-0.388184	
-0.388855	
-0.388367	
-0.388611	
-0.388733	
-0.387939	
-0.388306	
-0.388977	
-0.387756	
-0.387451	
-0.385681	
-0.386841	
-0.385986	
-0.387024	
-0.38501	
-0.385864	
-0.385498	
-0.385681	
-0.386292	
-0.385376	
-0.385254	
-0.383972	
-0.384705	
-0.384216	
-0.383606	
-0.38501	
-0.382996	
-0.383911	
-0.383789	
-0.38446	
-0.384216	
-0.383423	
-0.383484	
-0.382202	
-0.38385	
-0.383057	
-0.383179	
-0.382629	
-0.382813	
-0.382751	
-0.383118	
-0.38324	
-0.382446	
-0.382935	
-0.382813	
-0.381226	
-0.382751	
-0.382324	
-0.383362	
-0.381958	
-0.383972	
-0.383728	
-0.384155	
-0.385559	
-0.384521	
-0.385498	
-0.384521	
-0.385193	
-0.385193	
-0.385071	
-0.38562	
-0.385498	
-0.386108	
-0.384338	
-0.385742	
-0.385498	
-0.385559	
-0.38562	
-0.383545	
-0.386475	
-0.385315	
-0.386475	
-0.385132	
-0.38501	
-0.385437	
-0.385437	
-0.386047	
-0.385254	
-0.385803	
-0.385193	
-0.383972	
-0.385803	
-0.385437	
-0.386536	
-0.385071	
-0.385315	
-0.385376	
-0.385681	
-0.387024	
-0.385742	
-0.386047	
-0.384827	
-0.385864	
-0.385437	
-0.386658	
-0.385803	
-0.386169	
-0.38623	
-0.385742	
-0.387146	
-0.387207	
-0.387146	
-0.386169	
-0.385925	
-0.386841	
-0.385193	
-0.38678	
-0.385864	
-0.386353	
-0.385559	
-0.386047	
-0.386841	
-0.386169	
-0.387268	
-0.385681	
-0.385925	
-0.386597	
-0.386536	
-0.386841	
-0.386169	
-0.386536	
-0.386597	
-0.387085	
-0.388123	
-0.386841	
-0.387085	
-0.385864	
-0.387451	
-0.38623	
-0.387695	
-0.388	
-0.386963	
-0.387878	
-0.387695	
-0.389221	
-0.389038	
-0.389099	
-0.388245	
-0.388184	
-0.389832	
-0.387268	
-0.389221	
-0.38855	
-0.388428	
-0.388184	
-0.387756	
-0.389526	
-0.38855	
-0.389099	
-0.388245	
-0.387329	
-0.388916	
-0.38855	
-0.388977	
-0.387756	
-0.387695	
-0.387634	
-0.388062	
-0.388306	
-0.387878	
-0.387695	
-0.386353	
-0.387451	
-0.387268	
-0.387878	
-0.387756	
-0.387817	
-0.387634	
-0.38678	
-0.388733	
-0.388672	
-0.387817	
-0.387634	
-0.38678	
-0.388733	
-0.386902	
-0.38855	
-0.388306	
-0.388245	
-0.388062	
-0.387634	
-0.389343	
-0.388428	
-0.388916	
-0.388367	
-0.387268	
-0.38916	
-0.38855	
-0.38916	
-0.388	
-0.388367	
-0.388367	
-0.389038	
-0.389221	
-0.389099	
-0.389343	
-0.386963	
-0.387634	
-0.388367	
-0.38855	
-0.388672	
-0.388855	
-0.388794	
-0.388062	
-0.389282	
-0.389587	
-0.388977	
-0.388733	
-0.387695	
-0.38916	
-0.388	
-0.389343	
-0.388733	
-0.388855	
-0.388611	
-0.387634	
-0.389893	
-0.390259	
-0.390198	
-0.389526	
-0.390198	
-0.389648	
-0.389099	
-0.390747	
-0.388977	
-0.389526	
-0.389343	
-0.389893	
-0.389343	
-0.390564	
-0.390747	
-0.390137	
-0.391907	
-0.391663	
-0.391479	
-0.390503	
-0.390503	
-0.391296	
-0.391846	
-0.391846	
-0.39032	
-0.389893	
-0.389893	
-0.38916	
-0.390259	
-0.389404	
-0.39032	
-0.390259	
-0.390259	
-0.390747	
-0.388733	
-0.391296	
-0.390625	
-0.390991	
-0.390015	
-0.390137	
-0.390076	
-0.389893	
-0.390869	
-0.389648	
-0.389587	
-0.389465	
-0.390381	
-0.390686	
-0.390503	
-0.389709	
-0.388733	
-0.39032	
-0.389343	
-0.390564	
-0.390503	
-0.389771	
-0.390198	
-0.389465	
-0.390869	
-0.390808	
-0.391235	
-0.391235	
-0.390015	
-0.391357	
-0.389648	
-0.391968	
-0.391052	
-0.390869	
-0.391602	
-0.39093	
-0.392273	
-0.391846	
-0.392944	
-0.392456	
-0.392456	
-0.3927	
-0.392029	
-0.39325	
-0.391968	
-0.392395	
-0.391968	
-0.392456	
-0.393127	
-0.393005	
-0.393616	
-0.392395	
-0.3927	
-0.392822	
-0.391846	
-0.392822	
-0.392273	
-0.393066	
-0.392517	
-0.392639	
-0.393311	
-0.392822	
-0.393372	
-0.3927	
-0.393005	
-0.392029	
-0.391724	
-0.391846	
-0.391296	
-0.391357	
-0.390625	
-0.390686	
-0.390625	
-0.390381	
-0.389832	
-0.388977	
-0.389587	
-0.388	
-0.389587	
-0.388428	
-0.389099	
-0.38855	
-0.388855	
-0.389343	
-0.38855	
-0.388794	
-0.389404	
-0.388	
-0.388794	
-0.387939	
-0.390259	
-0.38855	
-0.389709	
-0.389709	
-0.39093	
-0.391785	
-0.390808	
-0.391663	
-0.39209	
-0.392639	
-0.391663	
-0.392029	
-0.392822	
-0.392639	
-0.392761	
-0.391724	
-0.393433	
-0.393127	
-0.393494	
-0.394043	
-0.393738	
-0.394897	
-0.394348	
-0.394226	
-0.393738	
-0.393982	
-0.394409	
-0.394348	
-0.395081	
-0.394653	
-0.395447	
-0.396301	
-0.395081	
-0.396362	
-0.395508	
-0.395569	
-0.395508	
-0.395752	
-0.396057	
-0.395874	
-0.39679	
-0.395691	
-0.395752	
-0.395813	
-0.395203	
-0.395386	
-0.394287	
-0.393494	
-0.394531	
-0.394653	
-0.393005	
-0.394104	
-0.394043	
-0.393982	
-0.393311	
-0.393005	
-0.393494	
-0.393188	
-0.392212	
-0.391907	
-0.392212	
-0.392456	
-0.392273	
-0.392578	
-0.391846	
-0.391846	
-0.394348	
-0.394531	
-0.394592	
-0.393433	
-0.39386	
-0.392944	
-0.393311	
-0.393799	
-0.393677	
-0.393738	
-0.394348	
-0.39325	
-0.393982	
-0.394043	
-0.392883	
-0.393066	
-0.393311	
-0.392883	
-0.392883	
-0.392944	
-0.393188	
-0.392883	
-0.393677	
-0.392822	
-0.393982	
-0.393372	
-0.392944	
-0.392822	
-0.392761	
-0.392151	
-0.392639	
-0.392822	
-0.392822	
-0.393494	
-0.393005	
-0.393494	
-0.393433	
-0.393738	
-0.39325	
-0.393188	
-0.392212	
-0.393005	
-0.3927	
-0.392883	
-0.393005	
-0.393066	
-0.393188	
-0.393066	
-0.393311	
-0.392761	
-0.392456	
-0.392334	
-0.392029	
-0.392212	
-0.392578	
-0.391724	
-0.39209	
-0.392212	
-0.392273	
-0.391846	
-0.391724	
-0.390259	
-0.391235	
-0.391663	
-0.388611	
-0.390564	
-0.39032	
-0.391052	
-0.390991	
-0.391113	
-0.391235	
-0.391785	
-0.391846	
-0.39093	
-0.391418	
-0.391663	
-0.390564	
-0.391602	
-0.391541	
-0.391541	
-0.391479	
-0.392212	
-0.391479	
-0.392334	
-0.393127	
-0.392029	
-0.392151	
-0.392273	
-0.392151	
-0.39209	
-0.392395	
-0.391663	
-0.392334	
-0.392639	
-0.392334	
-0.392273	
-0.393433	
-0.391907	
-0.391479	
-0.390991	
-0.392029	
-0.391724	
-0.391479	
-0.391113	
-0.392029	
-0.391968	
-0.39209	
-0.391724	
-0.39093	
-0.391541	
-0.390564	
-0.389893	
-0.391113	
-0.39093	
-0.390808	
-0.391418	
-0.391357	
-0.391235	
-0.392273	
-0.392395	
-0.390503	
-0.391052	
-0.392151	
-0.389343	
-0.391052	
-0.390747	
-0.391296	
-0.390991	
-0.391663	
-0.39209	
-0.391968	
-0.392151	
-0.390381	
-0.390991	
-0.391724	
-0.390442	
-0.391357	
-0.391113	
-0.391357	
-0.392151	
-0.392456	
-0.391541	
-0.391663	
-0.392029	
-0.391479	
-0.391174	
-0.391785	
-0.391479	
-0.391785	
-0.391663	
-0.391602	
-0.39209	
-0.391846	
-0.392029	
-0.391724	
-0.392212	
-0.391418	
-0.389038	
-0.388306	
-0.38916	
-0.38916	
-0.39032	
-0.390442	
-0.389038	
-0.388672	
-0.389099	
-0.389221	
-0.390198	
-0.390747	
-0.391113	
-0.391724	
-0.391052	
-0.390564	
-0.389954	
-0.390442	
-0.390686	
-0.391418	
-0.391785	
-0.391724	
-0.391113	
-0.390564	
-0.390991	
-0.389587	
-0.390808	
-0.390442	
-0.390076	
-0.391174	
-0.390808	
-0.390991	
-0.391663	
-0.391235	
-0.390137	
-0.390625	
-0.390869	
-0.390137	
-0.391174	
-0.39093	
-0.389832	
-0.390869	
-0.390747	
-0.391113	
-0.391479	
-0.391479	
-0.389404	
-0.388977	
-0.391113	
-0.390625	
-0.389893	
-0.38916	
-0.389893	
-0.389771	
-0.389771	
-0.390869	
-0.390137	
-0.389343	
-0.388	
-0.388733	
-0.388916	
-0.389282	
-0.388428	
-0.388428	
-0.387451	
-0.389343	
-0.389282	
-0.389282	
-0.388672	
-0.388123	
-0.387695	
-0.387695	
-0.388062	
-0.388123	
-0.388489	
-0.387573	
-0.388123	
-0.388733	
-0.389038	
-0.389038	
-0.389404	
-0.388306	
-0.387878	
-0.388	
-0.388916	
-0.388855	
-0.389038	
-0.389343	
-0.389648	
-0.389954	
-0.390259	
-0.391846	
-0.39093	
-0.390564	
-0.391602	
-0.390686	
-0.392395	
-0.3927	
-0.392883	
-0.392639	
-0.392639	
-0.393311	
-0.393555	
-0.393555	
-0.393738	
-0.392944	
-0.392212	
-0.392273	
-0.392517	
-0.392212	
-0.392151	
-0.390991	
-0.391296	
-0.391052	
-0.391785	
-0.390442	
-0.390747	
-0.388	
-0.389526	
-0.389221	
-0.389526	
-0.389038	
-0.388977	
-0.387634	
-0.388306	
-0.388611	
-0.388977	
-0.388672	
-0.388184	
-0.386841	
-0.387695	
-0.387756	
-0.387756	
-0.387451	
-0.386902	
-0.386475	
-0.386963	
-0.387573	
-0.386902	
-0.387024	
-0.386047	
-0.385742	
-0.386597	
-0.385559	
-0.386414	
-0.38562	
-0.385925	
-0.38623	
-0.386475	
-0.386658	
-0.386536	
-0.38739	
-0.386597	
-0.38678	
-0.386597	
-0.386658	
-0.387573	
-0.387024	
-0.388367	
-0.388611	
-0.388672	
-0.389038	
-0.388489	
-0.390076	
-0.388123	
-0.389282	
-0.389099	
-0.389404	
-0.389221	
-0.388733	
-0.388306	
-0.388489	
-0.389282	
-0.390015	
-0.38916	
-0.389587	
-0.388489	
-0.388489	
-0.387939	
-0.388123	
-0.388306	
-0.38855	
-0.387695	
-0.389038	
-0.38916	
-0.389648	
-0.388977	
-0.389038	
-0.388123	
-0.387878	
-0.387146	
-0.388489	
-0.38855	
-0.388245	
-0.387268	
-0.388733	
-0.389465	
-0.389465	
-0.390198	
-0.388855	
-0.388489	
-0.388733	
-0.388184	
-0.38916	
-0.388916	
-0.389648	
-0.388123	
-0.389404	
-0.389404	
-0.390198	
-0.389954	
-0.387146	
-0.38855	
-0.388733	
-0.389099	
-0.388977	
-0.388794	
-0.38916	
-0.388306	
-0.389526	
-0.389282	
-0.389099	
-0.39032	
-0.387878	
-0.38855	
-0.38916	
-0.389771	
-0.389465	
-0.389587	
-0.389587	
-0.388733	
-0.390686	
-0.39032	
-0.390747	
-0.391113	
-0.390259	
-0.388977	
-0.39032	
-0.391724	
-0.390625	
-0.391052	
-0.391113	
-0.391663	
-0.392029	
-0.391663	
-0.390991	
-0.391663	
-0.390442	
-0.390808	
-0.389404	
-0.391296	
-0.390381	
-0.390625	
-0.39032	
-0.390808	
-0.391663	
-0.391418	
-0.39093	
-0.390503	
-0.390076	
-0.390381	
-0.388672	
-0.390869	
-0.390564	
-0.39032	
-0.389709	
-0.390747	
-0.390686	
-0.391174	
-0.391174	
-0.390137	
-0.390015	
-0.390015	
-0.388611	
-0.390259	
-0.390198	
-0.390381	
-0.389526	
-0.39032	
-0.390625	
-0.390808	
-0.391968	
-0.389893	
-0.389771	
-0.39032	
-0.390503	
-0.390076	
-0.390381	
-0.390442	
-0.388916	
-0.390747	
-0.390808	
-0.391357	
-0.391052	
-0.389709	
-0.390564	
-0.390137	
-0.391479	
-0.390808	
-0.390564	
-0.390503	
-0.39032	
-0.390747	
-0.391357	
-0.391235	
-0.391968	
-0.390137	
-0.39032	
-0.390442	
-0.392029	
-0.390503	
-0.390503	
-0.390442	
-0.39093	
-0.391541	
-0.391479	
-0.391663	
-0.392212	
-0.390381	
-0.389343	
-0.390076	
-0.391968	
-0.391663	
-0.391418	
-0.390869	
-0.391357	
-0.392212	
-0.392639	
-0.391113	
-0.391235	
-0.390686	
-0.391663	
-0.389771	
-0.391296	
-0.3927	
-0.393555	
-0.3927	
-0.393738	
-0.393738	
-0.393311	
-0.392822	
-0.394104	
-0.393555	
-0.391174	
-0.391052	
-0.391785	
-0.39209	
-0.392517	
-0.390442	
-0.392456	
-0.392273	
-0.392883	
-0.393127	
-0.39209	
-0.391602	
-0.391724	
-0.392151	
-0.392029	
-0.391907	
-0.391907	
-0.391235	
-0.391907	
-0.392029	
-0.392395	
-0.393127	
-0.391418	
-0.391907	
-0.390869	
-0.392456	
-0.391785	
-0.391724	
-0.391663	
-0.391663	
-0.392212	
-0.392395	
-0.393066	
-0.393311	
-0.39093	
-0.39209	
-0.392212	
-0.392822	
-0.392334	
-0.3927	
-0.392456	
-0.392761	
-0.393188	
-0.393433	
-0.394226	
-0.393799	
-0.392395	
-0.393066	
-0.392151	
-0.394409	
-0.393799	
-0.393677	
-0.393066	
-0.394043	
-0.394226	
-0.394287	
-0.395142	
-0.394592	
-0.393677	
-0.393921	
-0.39325	
-0.394653	
-0.394287	
-0.394409	
-0.393127	
-0.394897	
-0.394897	
-0.394653	
-0.395142	
-0.394592	
-0.392944	
-0.394409	
-0.393677	
-0.394958	
-0.394897	
-0.394531	
-0.393188	
-0.393799	
-0.394409	
-0.393555	
-0.39502	
-0.392395	
-0.392273	
-0.391235	
-0.391418	
-0.391174	
-0.39093	
-0.390442	
-0.389954	
-0.390869	
-0.391785	
-0.390625	
-0.392273	
-0.390503	
-0.390015	
-0.389221	
-0.391174	
-0.390503	
-0.390503	
-0.390747	
-0.390503	
-0.391174	
-0.391968	
-0.391907	
-0.39386	
-0.392212	
-0.392639	
-0.391846	
-0.393677	
-0.393311	
-0.39325	
-0.393188	
-0.393677	
-0.394043	
-0.395203	
-0.394836	
-0.395203	
-0.394348	
-0.394836	
-0.393677	
-0.395386	
-0.395447	
-0.395447	
-0.39502	
-0.395874	
-0.395874	
-0.397339	
-0.396484	
-0.396851	
-0.395813	
-0.396545	
-0.394653	
-0.397156	
-0.396973	
-0.397034	
-0.396973	
-0.397339	
-0.397522	
-0.398438	
-0.398071	
-0.397522	
-0.397461	
-0.397461	
-0.396301	
-0.397217	
-0.397217	
-0.39679	
-0.395447	
-0.397095	
-0.396484	
-0.396851	
-0.397156	
-0.395264	
-0.394958	
-0.394287	
-0.393555	
-0.395142	
-0.395325	
-0.394714	
-0.393188	
-0.394958	
-0.394043	
-0.394714	
-0.396912	
-0.393372	
-0.392273	
-0.393799	
-0.395447	
-0.395386	
-0.395264	
-0.394958	
-0.394043	
-0.395203	
-0.394958	
-0.395935	
-0.397156	
-0.394775	
-0.394348	
-0.394287	
-0.395203	
-0.394226	
-0.394714	
-0.394714	
-0.394653	
-0.394592	
-0.39502	
-0.394836	
-0.396667	
-0.394104	
-0.393066	
-0.393066	
-0.394836	
-0.394409	
-0.394165	
-0.393738	
-0.394104	
-0.394165	
-0.394775	
-0.395142	
-0.396301	
-0.394348	
-0.39386	
-0.393188	
-0.395447	
-0.394775	
-0.394714	
-0.394409	
-0.394348	
-0.394775	
-0.39502	
-0.39502	
-0.395508	
-0.39386	
-0.393494	
-0.391724	
-0.394958	
-0.394043	
-0.394226	
-0.393982	
-0.393677	
-0.393555	
-0.39502	
-0.394958	
-0.393555	
-0.393066	
-0.391724	
-0.39209	
-0.393127	
-0.392944	
-0.3927	
-0.391968	
-0.392273	
-0.392029	
-0.393372	
-0.393616	
-0.392517	
-0.392212	
-0.391846	
-0.392639	
-0.393005	
-0.393127	
-0.392822	
-0.392944	
-0.39325	
-0.393005	
-0.394043	
-0.394775	
-0.393005	
-0.393127	
-0.392151	
-0.392578	
-0.393372	
-0.393677	
-0.393311	
-0.392639	
-0.393005	
-0.393494	
-0.394348	
-0.394592	
-0.393127	
-0.393127	
-0.392761	
-0.392395	
-0.393738	
-0.393311	
-0.393433	
-0.392639	
-0.393188	
-0.393555	
-0.39386	
-0.394043	
-0.392517	
-0.392761	
-0.390991	
-0.392578	
-0.392761	
-0.3927	
-0.392334	
-0.391296	
-0.392395	
-0.393066	
-0.393982	
-0.393738	
-0.391968	
-0.392395	
-0.390259	
-0.392761	
-0.392578	
-0.392822	
-0.392273	
-0.391785	
-0.392151	
-0.392761	
-0.393433	
-0.393372	
-0.392395	
-0.391235	
-0.391541	
-0.393127	
-0.392883	
-0.392517	
-0.392273	
-0.391663	
-0.392883	
-0.393555	
-0.39447	
-0.393555	
-0.393066	
-0.391602	
-0.392578	
-0.393188	
-0.392944	
-0.392639	
-0.392883	
	
