E:\DOCUMENTS AND SETTINGS\JPOTAS\MEUS DOCUMENTOS\UFRJ\RSCI-BM 12 WK SERIES\070803-RSCI-BM-11\RSCI-BM-11-REMG\070803-RSCI-BM-11-REMG-0013.ACQ
0.025000 msec/sample
1 channel
Analog input
Volts
CH1	
2000	
-0.392151	
-0.3927	
-0.3927	
-0.393127	
-0.392151	
-0.393188	
-0.394226	
-0.394104	
-0.393616	
-0.393616	
-0.393311	
-0.392517	
-0.393494	
-0.394958	
-0.394836	
-0.394958	
-0.393799	
-0.394531	
-0.394531	
-0.394958	
-0.394348	
-0.39386	
-0.393433	
-0.393677	
-0.393799	
-0.394104	
-0.393188	
-0.393494	
-0.393005	
-0.3927	
-0.392822	
-0.393066	
-0.392761	
-0.392456	
-0.39093	
-0.391479	
-0.392151	
-0.391846	
-0.391907	
-0.392151	
-0.391479	
-0.39093	
-0.391785	
-0.392883	
-0.390686	
-0.390137	
-0.390076	
-0.389648	
-0.389771	
-0.388855	
-0.388	
-0.387817	
-0.388855	
-0.388489	
-0.388672	
-0.389465	
-0.388611	
-0.388733	
-0.388672	
-0.389587	
-0.38916	
-0.389282	
-0.389526	
-0.388672	
-0.389954	
-0.390137	
-0.388977	
-0.390381	
-0.389771	
-0.388733	
-0.388306	
-0.390198	
-0.389832	
-0.38916	
-0.389893	
-0.387634	
-0.388977	
-0.389404	
-0.389771	
-0.389465	
-0.388123	
-0.388184	
-0.387329	
-0.388184	
-0.386963	
-0.387207	
-0.386475	
-0.386292	
-0.386536	
-0.387207	
-0.387756	
-0.386353	
-0.386536	
-0.386353	
-0.387085	
-0.38739	
-0.387634	
-0.387817	
-0.386597	
-0.388123	
-0.387878	
-0.38739	
-0.389038	
-0.38855	
-0.387451	
-0.387451	
-0.389771	
-0.388855	
-0.389526	
-0.391846	
-0.391357	
-0.39209	
-0.391968	
-0.392517	
-0.391541	
-0.391296	
-0.391113	
-0.389832	
-0.392395	
-0.391479	
-0.391235	
-0.392212	
-0.391479	
-0.391418	
-0.391846	
-0.392517	
-0.391785	
-0.39093	
-0.391357	
-0.39209	
-0.3927	
-0.391785	
-0.391968	
-0.391846	
-0.392151	
-0.392578	
-0.391174	
-0.392822	
-0.39325	
-0.391663	
-0.391418	
-0.393799	
-0.394348	
-0.393738	
-0.394409	
-0.394043	
-0.394714	
-0.395386	
-0.395081	
-0.395508	
-0.395264	
-0.394958	
-0.394592	
-0.396912	
-0.39624	
-0.396179	
-0.397034	
-0.395569	
-0.395874	
-0.396179	
-0.397583	
-0.39563	
-0.39502	
-0.394775	
-0.395386	
-0.395691	
-0.394592	
-0.39502	
-0.39502	
-0.394531	
-0.394165	
-0.39447	
-0.395203	
-0.393433	
-0.393372	
-0.392395	
-0.393738	
-0.394348	
-0.393005	
-0.393005	
-0.392212	
-0.392334	
-0.392395	
-0.390869	
-0.390625	
-0.390198	
-0.389587	
-0.38855	
-0.390625	
-0.391174	
-0.39032	
-0.390503	
-0.390137	
-0.390259	
-0.390686	
-0.390808	
-0.389954	
-0.386353	
-0.380615	
-0.381409	
-0.381104	
-0.38147	
-0.381287	
-0.384827	
-0.387878	
-0.388855	
-0.390015	
-0.389709	
-0.388916	
-0.388	
-0.387024	
-0.388	
-0.388733	
-0.388306	
-0.388184	
-0.388855	
-0.388245	
-0.388916	
-0.389221	
-0.388672	
-0.388245	
-0.388611	
-0.38678	
-0.388428	
-0.389648	
-0.389404	
-0.389771	
-0.389282	
-0.389832	
-0.389893	
-0.390381	
-0.390198	
-0.390259	
-0.389832	
-0.390198	
-0.391052	
-0.390747	
-0.390625	
-0.391357	
-0.389832	
-0.391113	
-0.391113	
-0.391846	
-0.392029	
-0.391357	
-0.390869	
-0.392273	
-0.392883	
-0.392456	
-0.393982	
-0.395325	
-0.393738	
-0.393982	
-0.393982	
-0.39386	
-0.394165	
-0.39325	
-0.390625	
-0.393372	
-0.393555	
-0.393127	
-0.393311	
-0.393066	
-0.392578	
-0.392151	
-0.39325	
-0.391479	
-0.391724	
-0.390686	
-0.389648	
-0.391418	
-0.392517	
-0.392029	
-0.392334	
-0.391663	
-0.392517	
-0.393127	
-0.394592	
-0.393921	
-0.393433	
-0.392944	
-0.394714	
-0.395874	
-0.395874	
-0.396667	
-0.397888	
-0.396851	
-0.398621	
-0.399475	
-0.40033	
-0.40033	
-0.401062	
-0.399109	
-0.402832	
-0.403503	
-0.403687	
-0.404724	
-0.40448	
-0.40509	
-0.406128	
-0.407166	
-0.407288	
-0.407532	
-0.406738	
-0.406982	
-0.408203	
-0.408203	
-0.408386	
-0.409851	
-0.409119	
-0.409912	
-0.411316	
-0.41217	
-0.411987	
-0.412598	
-0.412476	
-0.414795	
-0.41333	
-0.413879	
-0.414856	
-0.416321	
-0.417297	
-0.418152	
-0.418213	
-0.419067	
-0.4198	
-0.41803	
-0.421265	
-0.421753	
-0.421814	
-0.421753	
-0.421936	
-0.422485	
-0.422729	
-0.423462	
-0.422546	
-0.422058	
-0.421631	
-0.423401	
-0.424866	
-0.42395	
-0.424805	
-0.424805	
-0.424622	
-0.424194	
-0.425049	
-0.42334	
-0.422546	
-0.422302	
-0.421265	
-0.423096	
-0.422668	
-0.422241	
-0.422729	
-0.421265	
-0.421204	
-0.421204	
-0.421936	
-0.419678	
-0.419067	
-0.417786	
-0.419067	
-0.418945	
-0.41864	
-0.41803	
-0.416931	
-0.417175	
-0.416748	
-0.417603	
-0.415955	
-0.41394	
-0.412659	
-0.411194	
-0.41156	
-0.409851	
-0.409119	
-0.408875	
-0.407288	
-0.406555	
-0.406189	
-0.404602	
-0.40332	
-0.401428	
-0.399048	
-0.401184	
-0.399353	
-0.397034	
-0.395447	
-0.392883	
-0.392334	
-0.39093	
-0.389771	
-0.387695	
-0.386292	
-0.384155	
-0.38269	
-0.382935	
-0.380493	
-0.378845	
-0.378052	
-0.377258	
-0.375916	
-0.375061	
-0.375549	
-0.374573	
-0.373718	
-0.37207	
-0.37384	
-0.374146	
-0.373047	
-0.372314	
-0.371521	
-0.370544	
-0.370178	
-0.370667	
-0.368225	
-0.367615	
-0.365845	
-0.363831	
-0.363892	
-0.363098	
-0.361938	
-0.360779	
-0.358215	
-0.358032	
-0.357788	
-0.357178	
-0.355225	
-0.354553	
-0.352722	
-0.354126	
-0.353333	
-0.352539	
-0.352661	
-0.351013	
-0.351868	
-0.351318	
-0.35144	
-0.351196	
-0.350525	
-0.34967	
-0.34967	
-0.349548	
-0.348877	
-0.349792	
-0.350525	
-0.351074	
-0.351074	
-0.352173	
-0.351257	
-0.351318	
-0.351196	
-0.350586	
-0.352478	
-0.351624	
-0.351807	
-0.3526	
-0.352539	
-0.352295	
-0.352661	
-0.353333	
-0.353149	
-0.353088	
-0.3526	
-0.353882	
-0.354065	
-0.354187	
-0.354797	
-0.353455	
-0.355164	
-0.355408	
-0.354797	
-0.354797	
-0.354858	
-0.353333	
-0.355347	
-0.356384	
-0.355835	
-0.3573	
-0.35614	
-0.357178	
-0.357422	
-0.358337	
-0.358215	
-0.358521	
-0.358948	
-0.359436	
-0.361206	
-0.361023	
-0.362183	
-0.360962	
-0.36322	
-0.363342	
-0.363892	
-0.363953	
-0.364502	
-0.362488	
-0.365173	
-0.366455	
-0.365784	
-0.366638	
-0.365723	
-0.366333	
-0.366638	
-0.369019	
-0.36731	
-0.367493	
-0.367798	
-0.368652	
-0.369873	
-0.368958	
-0.369568	
-0.369446	
-0.36969	
-0.369995	
-0.371277	
-0.370911	
-0.371155	
-0.372009	
-0.37146	
-0.374023	
-0.374268	
-0.373352	
-0.373718	
-0.372803	
-0.37384	
-0.374146	
-0.374573	
-0.37439	
-0.374573	
-0.372375	
-0.375854	
-0.376892	
-0.376404	
-0.377075	
-0.377319	
-0.377686	
-0.378418	
-0.379822	
-0.378113	
-0.378296	
-0.378418	
-0.378174	
-0.379944	
-0.379944	
-0.38031	
-0.380493	
-0.378723	
-0.379944	
-0.380127	
-0.381958	
-0.380127	
-0.379639	
-0.378845	
-0.379639	
-0.380737	
-0.379272	
-0.379761	
-0.378723	
-0.377991	
-0.378174	
-0.378601	
-0.377075	
-0.376648	
-0.376099	
-0.376099	
-0.376282	
-0.376587	
-0.375977	
-0.37616	
-0.375122	
-0.375854	
-0.375488	
-0.376648	
-0.375488	
-0.375122	
-0.374695	
-0.375305	
-0.37616	
-0.375244	
-0.375916	
-0.373474	
-0.372375	
-0.373047	
-0.37384	
-0.373718	
-0.373962	
-0.372925	
-0.373535	
-0.374268	
-0.374329	
-0.375122	
-0.375183	
-0.374573	
-0.374756	
-0.375305	
-0.376343	
-0.375732	
-0.368408	
-0.367798	
-0.369873	
-0.370361	
-0.370239	
-0.373291	
-0.378296	
-0.377441	
-0.378357	
-0.378906	
-0.377869	
-0.376953	
-0.375366	
-0.376099	
-0.376892	
-0.376648	
-0.377014	
-0.375977	
-0.375	
-0.375488	
-0.375	
-0.374634	
-0.374756	
-0.374695	
-0.374329	
-0.374084	
-0.376343	
-0.376038	
-0.376831	
-0.376465	
-0.376465	
-0.377686	
-0.379211	
-0.379211	
-0.379272	
-0.378967	
-0.38031	
-0.380493	
-0.381897	
-0.381836	
-0.38324	
-0.382507	
-0.38324	
-0.384155	
-0.384399	
-0.383972	
-0.384033	
-0.383301	
-0.384338	
-0.385132	
-0.384888	
-0.385803	
-0.385437	
-0.387207	
-0.388	
-0.388245	
-0.388306	
-0.38678	
-0.385559	
-0.387573	
-0.388367	
-0.388184	
-0.389282	
-0.388062	
-0.387817	
-0.388	
-0.389954	
-0.388916	
-0.388367	
-0.388245	
-0.389038	
-0.389404	
-0.389893	
-0.389771	
-0.388916	
-0.387939	
-0.388794	
-0.389343	
-0.388977	
-0.388611	
-0.388428	
-0.387451	
-0.388672	
-0.389648	
-0.389465	
-0.389648	
-0.388977	
-0.388489	
-0.388916	
-0.390564	
-0.389832	
-0.390137	
-0.390747	
-0.390381	
-0.392761	
-0.393616	
-0.394592	
-0.394531	
-0.393921	
-0.396057	
-0.397034	
-0.398193	
-0.397888	
-0.398438	
-0.398987	
-0.400024	
-0.400208	
-0.401367	
-0.400574	
-0.40033	
-0.401672	
-0.403076	
-0.403076	
-0.403259	
-0.403931	
-0.405151	
-0.405762	
-0.406006	
-0.407227	
-0.406555	
-0.40686	
-0.408691	
-0.411133	
-0.410889	
-0.410767	
-0.410095	
-0.41156	
-0.412964	
-0.413208	
-0.41394	
-0.413086	
-0.41394	
-0.413452	
-0.416687	
-0.416016	
-0.415771	
-0.416321	
-0.416992	
-0.41864	
-0.418518	
-0.418213	
-0.418884	
-0.418884	
-0.418152	
-0.4198	
-0.419067	
-0.418457	
-0.417297	
-0.415466	
-0.417053	
-0.415588	
-0.414673	
-0.412964	
-0.412231	
-0.410034	
-0.410034	
-0.408752	
-0.40741	
-0.406006	
-0.40332	
-0.40387	
-0.402954	
-0.402466	
-0.401062	
-0.399109	
-0.398987	
-0.399719	
-0.399231	
-0.398071	
-0.396545	
-0.396301	
-0.396301	
-0.397644	
-0.396973	
-0.396606	
-0.39679	
-0.396973	
-0.397644	
-0.398438	
-0.398132	
-0.396423	
-0.394287	
-0.393311	
-0.392883	
-0.391602	
-0.390747	
-0.388367	
-0.387207	
-0.386719	
-0.38562	
-0.384033	
-0.38269	
-0.381042	
-0.38031	
-0.37854	
-0.378906	
-0.378479	
-0.377075	
-0.375183	
-0.375366	
-0.376404	
-0.375977	
-0.376709	
-0.375427	
-0.375366	
-0.375916	
-0.377197	
-0.377441	
-0.377441	
-0.376709	
-0.375977	
-0.376099	
-0.374939	
-0.374573	
-0.374146	
-0.372925	
-0.371338	
-0.370422	
-0.37085	
-0.369507	
-0.366882	
-0.366394	
-0.366699	
-0.365662	
-0.365295	
-0.364929	
-0.36261	
-0.362305	
-0.362122	
-0.36261	
-0.361816	
-0.361511	
-0.360046	
-0.360413	
-0.35968	
-0.359985	
-0.359436	
-0.358154	
-0.358643	
-0.358032	
-0.358398	
-0.358215	
-0.356628	
-0.355896	
-0.355957	
-0.355164	
-0.35614	
-0.355408	
-0.354309	
-0.354065	
-0.352234	
-0.353943	
-0.351563	
-0.351685	
-0.350769	
-0.350403	
-0.35083	
-0.351624	
-0.35199	
-0.351685	
-0.351013	
-0.351685	
-0.351624	
-0.353149	
-0.353088	
-0.352295	
-0.35199	
-0.35321	
-0.352234	
-0.352661	
-0.353516	
-0.352539	
-0.352722	
-0.353271	
-0.354309	
-0.354675	
-0.354675	
-0.353943	
-0.355164	
-0.355286	
-0.357117	
-0.357544	
-0.357971	
-0.358948	
-0.359985	
-0.361267	
-0.362061	
-0.362366	
-0.36261	
-0.364136	
-0.364746	
-0.365173	
-0.365967	
-0.366089	
-0.367188	
-0.367737	
-0.368347	
-0.369141	
-0.369141	
-0.368347	
-0.369507	
-0.370239	
-0.370911	
-0.370361	
-0.369873	
-0.370728	
-0.371155	
-0.371582	
-0.371399	
-0.371094	
-0.370667	
-0.371826	
-0.37384	
-0.373596	
-0.373413	
-0.373596	
-0.373718	
-0.375122	
-0.377625	
-0.377075	
-0.377441	
-0.376282	
-0.376892	
-0.376343	
-0.377136	
-0.377014	
-0.377686	
-0.377075	
-0.377014	
-0.377075	
-0.377625	
-0.378479	
-0.377747	
-0.376526	
-0.377747	
-0.377136	
-0.377502	
-0.377991	
-0.377258	
-0.376648	
-0.378235	
-0.379028	
-0.378418	
-0.379272	
-0.380127	
-0.380493	
-0.379822	
-0.380981	
-0.381592	
-0.38092	
-0.38208	
-0.382446	
-0.382813	
-0.383484	
-0.383789	
-0.383545	
-0.383972	
-0.383423	
-0.38446	
-0.384521	
-0.382751	
-0.383911	
-0.38324	
-0.383423	
-0.384338	
-0.383911	
-0.384033	
-0.383423	
-0.383911	
-0.383118	
-0.383789	
-0.383423	
-0.382446	
-0.381714	
-0.381592	
-0.382996	
-0.382263	
-0.38147	
-0.381592	
-0.381287	
-0.382202	
-0.382263	
-0.381531	
-0.381592	
-0.381348	
-0.380554	
-0.379211	
-0.380554	
-0.380005	
-0.379639	
-0.380005	
-0.380737	
-0.380981	
-0.380554	
-0.3797	
-0.380188	
-0.380371	
-0.380005	
-0.380859	
-0.380066	
-0.379883	
-0.379944	
-0.379272	
-0.38031	
-0.378723	
-0.378052	
-0.37854	
-0.378723	
-0.378052	
-0.378784	
-0.37854	
-0.378479	
-0.378052	
-0.377808	
-0.378113	
-0.378357	
-0.377991	
-0.377563	
-0.377014	
-0.37738	
-0.377441	
-0.378174	
-0.378174	
-0.377258	
-0.377747	
-0.378357	
-0.379456	
-0.379089	
-0.37793	
-0.378967	
-0.378967	
-0.37915	
-0.380493	
-0.380249	
-0.379883	
-0.380432	
-0.381165	
-0.381287	
-0.380798	
-0.381165	
-0.380432	
-0.380981	
-0.381165	
-0.381104	
-0.382507	
-0.381958	
-0.381714	
-0.382568	
-0.383118	
-0.382874	
-0.383118	
-0.383057	
-0.383484	
-0.384949	
-0.385559	
-0.38562	
-0.384583	
-0.384216	
-0.385193	
-0.384705	
-0.385742	
-0.385071	
-0.38446	
-0.384827	
-0.384888	
-0.384888	
-0.384888	
-0.383972	
-0.383545	
-0.38385	
-0.38385	
-0.384766	
-0.385498	
-0.383728	
-0.384644	
-0.383301	
-0.385254	
-0.385498	
-0.386169	
-0.383972	
-0.385315	
-0.386475	
-0.386475	
-0.387207	
-0.386536	
-0.38678	
-0.386719	
-0.387146	
-0.388	
-0.388367	
-0.388123	
-0.388062	
-0.38855	
-0.387085	
-0.388489	
-0.388306	
-0.387146	
-0.386047	
-0.387268	
-0.387634	
-0.387146	
-0.387085	
-0.385742	
-0.386719	
-0.385132	
-0.387695	
-0.386292	
-0.385681	
-0.385742	
-0.38562	
-0.386047	
-0.384399	
-0.384216	
-0.382385	
-0.383545	
-0.382874	
-0.384033	
-0.38385	
-0.383362	
-0.383118	
-0.382874	
-0.383789	
-0.383606	
-0.384094	
-0.383301	
-0.383484	
-0.382813	
-0.383362	
-0.384094	
-0.383606	
-0.382996	
-0.382874	
-0.383667	
-0.383728	
-0.383057	
-0.383667	
-0.382202	
-0.383301	
-0.382385	
-0.383362	
-0.381897	
-0.381531	
-0.381714	
-0.381165	
-0.381226	
-0.382019	
-0.381958	
-0.380615	
-0.381104	
-0.380615	
-0.380798	
-0.380371	
-0.380249	
-0.379395	
-0.378662	
-0.379761	
-0.379578	
-0.379944	
-0.379272	
-0.379944	
-0.380066	
-0.3797	
-0.379944	
-0.380371	
-0.380127	
-0.379944	
-0.381042	
-0.380737	
-0.381104	
-0.381714	
-0.381226	
-0.381897	
-0.381348	
-0.381958	
-0.381897	
-0.381714	
-0.382141	
-0.382751	
-0.381836	
-0.382568	
-0.382874	
-0.382507	
-0.383606	
-0.383972	
-0.383789	
-0.384155	
-0.384338	
-0.385742	
-0.385925	
-0.386597	
-0.386292	
-0.385376	
-0.386047	
-0.385925	
-0.386475	
-0.384583	
-0.386536	
-0.38562	
-0.387024	
-0.386536	
-0.387207	
-0.386536	
-0.387634	
-0.388184	
-0.38739	
-0.38916	
-0.388855	
-0.388184	
-0.388184	
-0.388977	
-0.38855	
-0.387817	
-0.38916	
-0.387512	
-0.388733	
-0.387817	
-0.389404	
-0.388245	
-0.387207	
-0.388794	
-0.388123	
-0.389221	
-0.388306	
-0.38916	
-0.388245	
-0.388306	
-0.389404	
-0.388	
-0.388733	
-0.387573	
-0.388306	
-0.387085	
-0.387878	
-0.386963	
-0.387024	
-0.386353	
-0.386658	
-0.387085	
-0.385437	
-0.386108	
-0.38623	
-0.386414	
-0.386108	
-0.386108	
-0.386597	
-0.385132	
-0.386292	
-0.38562	
-0.385681	
-0.385498	
-0.384033	
-0.38269	
-0.381775	
-0.38324	
-0.384155	
-0.384094	
-0.383789	
-0.384399	
-0.384277	
-0.383606	
-0.38501	
-0.384949	
-0.384888	
-0.384766	
-0.384094	
-0.38501	
-0.385498	
-0.386658	
-0.384949	
-0.385803	
-0.385376	
-0.385742	
-0.385254	
-0.386047	
-0.385437	
-0.384949	
-0.385437	
-0.384338	
-0.38446	
-0.384583	
-0.38385	
-0.383728	
-0.383423	
-0.384216	
-0.383118	
-0.383606	
-0.382507	
-0.382507	
-0.381531	
-0.381531	
-0.382507	
-0.381287	
-0.381531	
-0.381531	
-0.381958	
-0.381348	
-0.382263	
-0.382568	
-0.381287	
-0.382202	
-0.381836	
-0.382629	
-0.38269	
-0.383423	
-0.382874	
-0.382324	
-0.38385	
-0.384277	
-0.384094	
-0.384644	
-0.384827	
-0.384155	
-0.384705	
-0.385315	
-0.384155	
-0.385254	
-0.38501	
-0.385437	
-0.384521	
-0.386414	
-0.387573	
-0.386719	
-0.388306	
-0.388	
-0.387634	
-0.387024	
-0.386902	
-0.387573	
-0.386841	
-0.388	
-0.387695	
-0.387512	
-0.387756	
-0.387878	
-0.389038	
-0.388794	
-0.390076	
-0.38916	
-0.390015	
-0.389709	
-0.390198	
-0.389587	
-0.390625	
-0.390564	
-0.390137	
-0.39093	
-0.391296	
-0.391541	
-0.391907	
-0.392883	
-0.392029	
-0.391785	
-0.392883	
-0.392029	
-0.392334	
-0.391052	
-0.391785	
-0.390564	
-0.391785	
-0.391663	
-0.391113	
-0.391418	
-0.390686	
-0.390747	
-0.390137	
-0.390991	
-0.390259	
-0.38916	
-0.389526	
-0.389648	
-0.390198	
-0.389771	
-0.388977	
-0.389099	
-0.388672	
-0.389709	
-0.390076	
-0.388977	
-0.388184	
-0.388123	
-0.389404	
-0.388611	
-0.389404	
-0.388367	
-0.387085	
-0.385559	
-0.386047	
-0.386108	
-0.387573	
-0.386963	
-0.385498	
-0.386597	
-0.387207	
-0.387268	
-0.387085	
-0.38739	
-0.387268	
-0.386902	
-0.388184	
-0.387085	
-0.387817	
-0.387573	
-0.388062	
-0.387329	
-0.387939	
-0.38855	
-0.387207	
-0.388184	
-0.387024	
-0.387451	
-0.38678	
-0.38739	
-0.385803	
-0.385803	
-0.386597	
-0.386597	
-0.386047	
-0.38562	
-0.384399	
-0.385559	
-0.383728	
-0.385376	
-0.383545	
-0.384094	
-0.383667	
-0.383728	
-0.385071	
-0.384521	
-0.385193	
-0.384521	
-0.385315	
-0.385254	
-0.385498	
-0.384949	
-0.386108	
-0.38562	
-0.385803	
-0.385681	
-0.387024	
-0.387268	
-0.386658	
-0.387146	
-0.386902	
-0.386536	
-0.387207	
-0.387756	
-0.389099	
-0.388916	
-0.389526	
-0.390381	
-0.388733	
-0.38916	
-0.388916	
-0.389221	
-0.388672	
-0.390015	
-0.388367	
-0.388977	
-0.389099	
-0.389282	
-0.388855	
-0.389221	
-0.389465	
-0.389099	
-0.38916	
-0.389648	
-0.389832	
-0.390564	
-0.388916	
-0.389832	
-0.390015	
-0.390869	
-0.390198	
-0.391235	
-0.391968	
-0.390991	
-0.391663	
-0.391357	
-0.391968	
-0.390686	
-0.393188	
-0.39209	
-0.392395	
-0.392456	
-0.393372	
-0.393799	
-0.393616	
-0.39325	
-0.393311	
-0.392456	
-0.393555	
-0.392639	
-0.393921	
-0.392212	
-0.393188	
-0.393555	
-0.393982	
-0.393677	
-0.392944	
-0.393066	
-0.392761	
-0.392761	
-0.392517	
-0.393066	
-0.391541	
-0.391296	
-0.392029	
-0.3927	
-0.392456	
-0.391602	
-0.391418	
-0.391663	
-0.391296	
-0.391052	
-0.390076	
-0.390503	
-0.389404	
-0.389221	
-0.388794	
-0.388428	
-0.388367	
-0.387634	
-0.387268	
-0.387939	
-0.388611	
-0.387756	
-0.389038	
-0.387695	
-0.387634	
-0.387329	
-0.388367	
-0.38739	
-0.387146	
-0.386719	
-0.387207	
-0.386536	
-0.387085	
-0.386658	
-0.386047	
-0.385254	
-0.385193	
-0.386108	
-0.38678	
-0.385986	
-0.385315	
-0.384766	
-0.384338	
-0.385193	
-0.385559	
-0.384705	
-0.384766	
-0.38446	
-0.384949	
-0.385925	
-0.386108	
-0.385376	
-0.385193	
-0.386353	
-0.385803	
-0.386658	
-0.38623	
-0.386169	
-0.38623	
-0.386658	
-0.386475	
-0.387268	
-0.387634	
-0.387085	
-0.386414	
-0.387451	
-0.387512	
-0.388733	
-0.387756	
-0.387756	
-0.387573	
-0.387573	
-0.389221	
-0.388611	
-0.388245	
-0.388611	
-0.388367	
-0.389282	
-0.389771	
-0.388977	
-0.390259	
-0.391235	
-0.391602	
-0.390686	
-0.391602	
-0.390808	
-0.390259	
-0.390198	
-0.390076	
-0.390564	
-0.389832	
-0.389404	
-0.389343	
-0.388794	
-0.38916	
-0.389893	
-0.388977	
-0.389099	
-0.388489	
-0.388672	
-0.387573	
-0.388855	
-0.388611	
-0.388428	
-0.389282	
-0.388062	
-0.389404	
-0.389893	
-0.390686	
-0.390259	
-0.390381	
-0.391174	
-0.391052	
-0.391785	
-0.392029	
-0.392151	
-0.391785	
-0.392456	
-0.392456	
-0.393616	
-0.393188	
-0.392883	
-0.393188	
-0.392334	
-0.392883	
-0.392334	
-0.392395	
-0.391907	
-0.39209	
-0.391785	
-0.392517	
-0.391724	
-0.391602	
-0.390137	
-0.390991	
-0.390503	
-0.391235	
-0.389465	
-0.390137	
-0.389526	
-0.389343	
-0.389099	
-0.389954	
-0.38916	
-0.388855	
-0.388916	
-0.388916	
-0.388855	
-0.387329	
-0.386108	
-0.387146	
-0.385193	
-0.38678	
-0.386475	
-0.387146	
-0.386963	
-0.386597	
-0.387207	
-0.386963	
-0.387695	
-0.387207	
-0.387756	
-0.386292	
-0.386353	
-0.387024	
-0.386292	
-0.385681	
-0.385132	
-0.384155	
-0.385193	
-0.384277	
-0.385193	
-0.384277	
-0.384033	
-0.383789	
-0.383484	
-0.383667	
-0.382874	
-0.382507	
-0.381226	
-0.381958	
-0.382874	
-0.383179	
-0.382874	
-0.382751	
-0.382874	
-0.383179	
-0.383728	
-0.384033	
-0.383484	
-0.383728	
-0.382874	
-0.384644	
-0.384583	
-0.384338	
-0.384338	
-0.384155	
-0.383606	
-0.385193	
-0.38562	
-0.384949	
-0.385193	
-0.385376	
-0.385559	
-0.385315	
-0.386536	
-0.385437	
-0.385498	
-0.386108	
-0.385315	
-0.386475	
-0.38739	
-0.38678	
-0.386414	
-0.386719	
-0.389282	
-0.389771	
-0.390198	
-0.389038	
-0.388489	
-0.388	
-0.388428	
-0.387634	
-0.388245	
-0.388428	
-0.387878	
-0.387207	
-0.388062	
-0.388184	
-0.38739	
-0.387939	
-0.387085	
-0.38739	
-0.387268	
-0.387634	
-0.387085	
-0.387573	
-0.386353	
-0.388123	
-0.388245	
-0.388916	
-0.388489	
-0.388306	
-0.388428	
-0.388794	
-0.390076	
-0.389404	
-0.389709	
-0.389099	
-0.390076	
-0.390869	
-0.391541	
-0.391357	
-0.390625	
-0.390869	
-0.390198	
-0.390991	
-0.391235	
-0.390015	
-0.389893	
-0.389709	
-0.390442	
-0.389648	
-0.390198	
-0.389465	
-0.389404	
-0.388855	
-0.388855	
-0.38855	
-0.388123	
-0.388062	
-0.387756	
-0.387085	
-0.387207	
-0.38623	
-0.385864	
-0.385498	
-0.384949	
-0.385193	
-0.385803	
-0.38678	
-0.38623	
-0.385681	
-0.384399	
-0.386414	
-0.385437	
-0.385986	
-0.385742	
-0.385376	
-0.385376	
-0.384888	
-0.385437	
-0.386353	
-0.385864	
-0.385254	
-0.385437	
-0.385437	
-0.385437	
-0.386169	
-0.38446	
-0.384521	
-0.38324	
-0.384338	
-0.384338	
-0.383606	
-0.383423	
-0.383057	
-0.383362	
-0.38324	
-0.383484	
-0.38269	
-0.38324	
-0.38269	
-0.381897	
-0.381897	
-0.382568	
-0.381714	
-0.381042	
-0.381287	
-0.381104	
-0.381836	
-0.382141	
-0.381348	
-0.381409	
-0.381042	
-0.381714	
-0.381958	
-0.381836	
-0.381897	
-0.38147	
-0.382263	
-0.382874	
-0.383118	
-0.383179	
-0.383606	
-0.382813	
-0.383362	
-0.383606	
-0.38446	
-0.383606	
-0.383606	
-0.383484	
-0.384583	
-0.384766	
-0.384338	
-0.384033	
-0.385193	
-0.385193	
-0.385315	
-0.386475	
-0.388062	
-0.388062	
-0.387695	
-0.387268	
-0.387207	
-0.388489	
-0.387146	
-0.387756	
-0.387268	
-0.388245	
-0.387939	
-0.389648	
-0.388733	
-0.38916	
-0.387939	
-0.388489	
-0.389404	
-0.389587	
-0.38916	
-0.389709	
-0.388855	
-0.390076	
-0.389404	
-0.390808	
-0.390015	
-0.390259	
-0.389587	
-0.390381	
-0.390686	
-0.390381	
-0.390808	
-0.390015	
-0.389526	
-0.390137	
-0.391113	
-0.390076	
-0.389465	
-0.389404	
-0.389648	
-0.389771	
-0.388977	
-0.388306	
-0.388611	
-0.387817	
-0.388428	
-0.388611	
-0.388306	
-0.388123	
-0.387939	
-0.387756	
-0.387634	
-0.388367	
-0.387817	
-0.387329	
-0.387268	
-0.387024	
-0.387207	
-0.388184	
-0.387146	
-0.386902	
-0.386658	
-0.386292	
-0.386292	
-0.385071	
-0.384277	
-0.384888	
-0.383423	
-0.385193	
-0.384644	
-0.38623	
-0.385437	
-0.38501	
-0.384521	
-0.386292	
-0.386902	
-0.386414	
-0.38562	
-0.386169	
-0.387085	
-0.386414	
-0.388062	
-0.387939	
-0.387329	
-0.387085	
-0.387085	
-0.386658	
-0.387817	
-0.387207	
-0.385864	
-0.386353	
-0.386108	
-0.385437	
-0.387085	
-0.385254	
-0.384644	
-0.384399	
-0.38562	
-0.384949	
-0.384216	
-0.383972	
-0.383728	
-0.382568	
-0.382751	
-0.383545	
-0.383667	
-0.382813	
-0.382751	
-0.38269	
-0.383484	
-0.384277	
-0.383606	
-0.383789	
-0.383484	
-0.383911	
-0.383545	
-0.385132	
-0.38446	
-0.384888	
-0.384644	
-0.385132	
-0.386169	
-0.38739	
-0.386597	
-0.38623	
-0.386353	
-0.386292	
-0.387695	
-0.387573	
-0.386597	
-0.386841	
-0.386169	
-0.387634	
-0.388794	
-0.389343	
-0.388611	
-0.389282	
-0.389526	
-0.388367	
-0.390076	
-0.389221	
-0.389465	
-0.389221	
-0.389404	
-0.389709	
-0.38916	
-0.389526	
-0.38916	
-0.38916	
	
