E:\DOCUMENTS AND SETTINGS\JPOTAS\MEUS DOCUMENTOS\UFRJ\RSCI-BM 12 WK SERIES\070803-RSCI-BM-11\RSCI-BM-11-REMG\070803-RSCI-BM-11-REMG-0007.ACQ
0.025000 msec/sample
1 channel
Analog input
Volts
CH1	
2000	
-0.393799	
-0.394409	
-0.394348	
-0.394897	
-0.394165	
-0.393555	
-0.394409	
-0.393921	
-0.394287	
-0.393921	
-0.393799	
-0.393799	
-0.392456	
-0.394104	
-0.393188	
-0.393677	
-0.393066	
-0.393066	
-0.39325	
-0.392273	
-0.393616	
-0.393494	
-0.39325	
-0.393799	
-0.392029	
-0.393433	
-0.391907	
-0.392761	
-0.390747	
-0.390869	
-0.39093	
-0.390686	
-0.391052	
-0.390259	
-0.389465	
-0.389282	
-0.390076	
-0.388916	
-0.387512	
-0.388977	
-0.387085	
-0.388306	
-0.387817	
-0.388184	
-0.388	
-0.387329	
-0.387756	
-0.387756	
-0.388733	
-0.388306	
-0.387756	
-0.389404	
-0.388733	
-0.390259	
-0.390259	
-0.390991	
-0.391846	
-0.391174	
-0.392456	
-0.392151	
-0.39386	
-0.393005	
-0.394104	
-0.393372	
-0.394348	
-0.394165	
-0.395081	
-0.394653	
-0.394836	
-0.394165	
-0.395386	
-0.393433	
-0.394348	
-0.394165	
-0.394836	
-0.393372	
-0.394287	
-0.393555	
-0.393616	
-0.394348	
-0.39386	
-0.393127	
-0.394287	
-0.392883	
-0.393799	
-0.393127	
-0.394592	
-0.392517	
-0.393616	
-0.39325	
-0.392883	
-0.393372	
-0.393127	
-0.392029	
-0.392883	
-0.391907	
-0.391785	
-0.390991	
-0.391113	
-0.390747	
-0.391113	
-0.390747	
-0.390198	
-0.39032	
-0.389465	
-0.389465	
-0.389099	
-0.389587	
-0.389465	
-0.388794	
-0.389282	
-0.388489	
-0.388	
-0.386597	
-0.389099	
-0.390198	
-0.389648	
-0.39032	
-0.389038	
-0.391235	
-0.390381	
-0.390747	
-0.389832	
-0.389709	
-0.390381	
-0.391235	
-0.391296	
-0.390137	
-0.390015	
-0.390869	
-0.39093	
-0.390747	
-0.389893	
-0.390625	
-0.38916	
-0.390503	
-0.390137	
-0.390503	
-0.390076	
-0.389709	
-0.389404	
-0.389954	
-0.389893	
-0.390137	
-0.388611	
-0.388428	
-0.386719	
-0.388245	
-0.388306	
-0.389282	
-0.389282	
-0.388977	
-0.38855	
-0.389282	
-0.389771	
-0.389404	
-0.388855	
-0.389709	
-0.389832	
-0.389648	
-0.389893	
-0.389954	
-0.389587	
-0.389404	
-0.388306	
-0.389709	
-0.389709	
-0.389038	
-0.387878	
-0.389221	
-0.388672	
-0.388428	
-0.387756	
-0.388611	
-0.388611	
-0.388489	
-0.387329	
-0.385986	
-0.388428	
-0.387512	
-0.387268	
-0.387024	
-0.387756	
-0.387573	
-0.38855	
-0.388916	
-0.388062	
-0.388184	
-0.387512	
-0.388611	
-0.388489	
-0.388367	
-0.388855	
-0.388672	
-0.388672	
-0.388184	
-0.388794	
-0.387085	
-0.381775	
-0.381042	
-0.381958	
-0.382385	
-0.381714	
-0.385132	
-0.390503	
-0.389282	
-0.389282	
-0.388855	
-0.390137	
-0.389587	
-0.38916	
-0.388672	
-0.388916	
-0.389038	
-0.388367	
-0.388184	
-0.387817	
-0.387817	
-0.388	
-0.387329	
-0.388367	
-0.387939	
-0.387939	
-0.387146	
-0.387939	
-0.387207	
-0.387756	
-0.386475	
-0.387329	
-0.386902	
-0.387329	
-0.386963	
-0.388428	
-0.388489	
-0.387878	
-0.388855	
-0.388062	
-0.386047	
-0.381592	
-0.382202	
-0.381104	
-0.382385	
-0.382874	
-0.38623	
-0.391418	
-0.391479	
-0.391418	
-0.391785	
-0.392212	
-0.391296	
-0.391357	
-0.391357	
-0.39093	
-0.390991	
-0.390869	
-0.390808	
-0.391174	
-0.390869	
-0.390686	
-0.389954	
-0.389587	
-0.389832	
-0.388855	
-0.390259	
-0.389648	
-0.388916	
-0.388672	
-0.389221	
-0.388428	
-0.388245	
-0.388611	
-0.387512	
-0.384583	
-0.384705	
-0.384705	
-0.385315	
-0.386108	
-0.386475	
-0.385681	
-0.386292	
-0.385559	
-0.385803	
-0.386169	
-0.386963	
-0.385925	
-0.386902	
-0.387146	
-0.387817	
-0.388428	
-0.388977	
-0.388611	
-0.391235	
-0.391785	
-0.392029	
-0.393066	
-0.394287	
-0.395447	
-0.397217	
-0.397827	
-0.397644	
-0.397949	
-0.398621	
-0.399414	
-0.400085	
-0.399841	
-0.400269	
-0.400146	
-0.399963	
-0.401428	
-0.401367	
-0.402161	
-0.402283	
-0.402893	
-0.403259	
-0.404358	
-0.405457	
-0.405518	
-0.406616	
-0.405518	
-0.40686	
-0.407227	
-0.407349	
-0.407776	
-0.407593	
-0.407471	
-0.408691	
-0.408997	
-0.408997	
-0.409729	
-0.408691	
-0.409729	
-0.409363	
-0.410217	
-0.409485	
-0.409912	
-0.409607	
-0.410156	
-0.410645	
-0.410889	
-0.41095	
-0.4104	
-0.410706	
-0.411743	
-0.411865	
-0.410522	
-0.41156	
-0.411316	
-0.410828	
-0.411804	
-0.410645	
-0.410461	
-0.409546	
-0.410339	
-0.408691	
-0.407837	
-0.408142	
-0.407959	
-0.407715	
-0.40802	
-0.408325	
-0.408447	
-0.408813	
-0.408142	
-0.407837	
-0.407104	
-0.406494	
-0.406799	
-0.406372	
-0.405762	
-0.405334	
-0.404663	
-0.405884	
-0.404297	
-0.403931	
-0.403564	
-0.403198	
-0.402039	
-0.401245	
-0.401489	
-0.40033	
-0.400574	
-0.398621	
-0.398865	
-0.398193	
-0.3974	
-0.396362	
-0.394348	
-0.393982	
-0.392517	
-0.3927	
-0.390198	
-0.390686	
-0.389099	
-0.386841	
-0.386963	
-0.386047	
-0.38501	
-0.38324	
-0.381897	
-0.379944	
-0.378296	
-0.378784	
-0.377197	
-0.377441	
-0.37677	
-0.377197	
-0.376953	
-0.376953	
-0.376831	
-0.377014	
-0.37677	
-0.375916	
-0.375977	
-0.376221	
-0.375916	
-0.375183	
-0.373413	
-0.373108	
-0.372803	
-0.37085	
-0.369263	
-0.368286	
-0.366699	
-0.365112	
-0.366333	
-0.365051	
-0.365295	
-0.365051	
-0.365112	
-0.365112	
-0.365295	
-0.365601	
-0.365479	
-0.364502	
-0.36438	
-0.36438	
-0.364502	
-0.364258	
-0.363586	
-0.362793	
-0.363525	
-0.364136	
-0.362854	
-0.361877	
-0.361633	
-0.361267	
-0.359436	
-0.360107	
-0.359741	
-0.359314	
-0.358765	
-0.358337	
-0.358154	
-0.35675	
-0.355835	
-0.35498	
-0.353455	
-0.352722	
-0.352417	
-0.350952	
-0.35144	
-0.350525	
-0.34967	
-0.350647	
-0.351318	
-0.350708	
-0.350952	
-0.35199	
-0.351868	
-0.352234	
-0.352478	
-0.353027	
-0.353088	
-0.352539	
-0.353271	
-0.353699	
-0.35376	
-0.353699	
-0.355408	
-0.355713	
-0.356628	
-0.356934	
-0.3573	
-0.357361	
-0.357483	
-0.3573	
-0.358276	
-0.358276	
-0.358765	
-0.358154	
-0.357361	
-0.357361	
-0.35675	
-0.355896	
-0.357056	
-0.35675	
-0.35553	
-0.356689	
-0.356445	
-0.356567	
-0.356445	
-0.356201	
-0.356384	
-0.354126	
-0.35614	
-0.35614	
-0.356628	
-0.354736	
-0.356018	
-0.356262	
-0.355042	
-0.356323	
-0.355347	
-0.353394	
-0.352722	
-0.353088	
-0.351501	
-0.351563	
-0.350464	
-0.349915	
-0.349609	
-0.349243	
-0.349243	
-0.349121	
-0.347229	
-0.347961	
-0.348145	
-0.349976	
-0.349976	
-0.350525	
-0.349243	
-0.351563	
-0.352295	
-0.353638	
-0.354492	
-0.353333	
-0.354492	
-0.354553	
-0.35675	
-0.357605	
-0.357422	
-0.356873	
-0.359314	
-0.359802	
-0.360107	
-0.361877	
-0.361023	
-0.361267	
-0.360474	
-0.362122	
-0.362061	
-0.362366	
-0.36145	
-0.362549	
-0.362366	
-0.361938	
-0.363892	
-0.362671	
-0.360962	
-0.361572	
-0.362244	
-0.36145	
-0.362244	
-0.361938	
-0.362	
-0.361755	
-0.362183	
-0.361206	
-0.362183	
-0.360901	
-0.361328	
-0.361084	
-0.360779	
-0.362244	
-0.36261	
-0.362366	
-0.36322	
-0.363647	
-0.363831	
-0.365356	
-0.364136	
-0.364319	
-0.364624	
-0.365173	
-0.36554	
-0.365967	
-0.366577	
-0.366638	
-0.367981	
-0.369446	
-0.370361	
-0.371216	
-0.370789	
-0.371582	
-0.371399	
-0.371338	
-0.373047	
-0.373413	
-0.373169	
-0.374512	
-0.375305	
-0.375732	
-0.376648	
-0.376709	
-0.375671	
-0.376343	
-0.37677	
-0.378967	
-0.380371	
-0.379822	
-0.378479	
-0.380005	
-0.380737	
-0.38092	
-0.382446	
-0.38031	
-0.381226	
-0.381042	
-0.382324	
-0.381958	
-0.382751	
-0.382568	
-0.382874	
-0.383972	
-0.383911	
-0.385315	
-0.384827	
-0.384705	
-0.382813	
-0.381836	
-0.382935	
-0.38385	
-0.383728	
-0.383301	
-0.383728	
-0.384155	
-0.384644	
-0.383972	
-0.383301	
-0.382751	
-0.382935	
-0.382751	
-0.383057	
-0.383484	
-0.382996	
-0.383301	
-0.383667	
-0.384521	
-0.383911	
-0.383301	
-0.382813	
-0.382568	
-0.382202	
-0.383057	
-0.382935	
-0.382935	
-0.383606	
-0.384399	
-0.383606	
-0.384705	
-0.383911	
-0.384033	
-0.382935	
-0.384033	
-0.38446	
-0.384094	
-0.384216	
-0.384766	
-0.385498	
-0.385803	
-0.386292	
-0.385742	
-0.384949	
-0.385193	
-0.384155	
-0.385742	
-0.385071	
-0.385193	
-0.384949	
-0.385681	
-0.385315	
-0.385986	
-0.385803	
-0.384521	
-0.385132	
-0.385254	
-0.385376	
-0.386353	
-0.385376	
-0.38623	
-0.385559	
-0.38562	
-0.386169	
-0.385254	
-0.384888	
-0.382874	
-0.383057	
-0.382813	
-0.382935	
-0.382385	
-0.380859	
-0.382141	
-0.382019	
-0.382568	
-0.381836	
-0.381226	
-0.378662	
-0.37915	
-0.380432	
-0.379761	
-0.379883	
-0.378723	
-0.379395	
-0.379272	
-0.381042	
-0.380615	
-0.380066	
-0.379089	
-0.38092	
-0.38092	
-0.381042	
-0.382141	
-0.382385	
-0.38208	
-0.383911	
-0.384949	
-0.38446	
-0.384766	
-0.38562	
-0.384399	
-0.385681	
-0.386292	
-0.385986	
-0.386597	
-0.386047	
-0.38678	
-0.386963	
-0.387878	
-0.387451	
-0.387146	
-0.385437	
-0.38623	
-0.386841	
-0.385742	
-0.38623	
-0.385986	
-0.384888	
-0.386108	
-0.386841	
-0.386108	
-0.385925	
-0.38562	
-0.385681	
-0.386414	
-0.385864	
-0.386108	
-0.386597	
-0.386169	
-0.386475	
-0.387329	
-0.387634	
-0.386963	
-0.386658	
-0.385681	
-0.385498	
-0.385925	
-0.385193	
-0.385376	
-0.384949	
-0.384949	
-0.384705	
-0.384827	
-0.383911	
-0.383789	
-0.382813	
-0.382629	
-0.382996	
-0.38269	
-0.382202	
-0.381287	
-0.380859	
-0.383911	
-0.384949	
-0.384766	
-0.383911	
-0.383789	
-0.382996	
-0.383606	
-0.384644	
-0.384094	
-0.383911	
-0.383911	
-0.38385	
-0.383911	
-0.384644	
-0.384399	
-0.383728	
-0.382813	
-0.384033	
-0.383911	
-0.384827	
-0.384216	
-0.383301	
-0.383179	
-0.383789	
-0.384094	
-0.38385	
-0.384277	
-0.38324	
-0.383362	
-0.383301	
-0.383057	
-0.381409	
-0.382141	
-0.382202	
-0.382813	
-0.383667	
-0.383972	
-0.383789	
-0.383667	
-0.383179	
-0.383606	
-0.384399	
-0.383118	
-0.384033	
-0.38446	
-0.383301	
-0.384583	
-0.384644	
-0.384521	
-0.384277	
-0.383667	
-0.384155	
-0.383728	
-0.384216	
-0.38385	
-0.383911	
-0.383606	
-0.382751	
-0.384521	
-0.384277	
-0.383789	
-0.383606	
-0.382263	
-0.382385	
-0.382874	
-0.382935	
-0.383423	
-0.382935	
-0.382324	
-0.383423	
-0.384155	
-0.384094	
-0.383545	
-0.38385	
-0.383484	
-0.383301	
-0.384399	
-0.384155	
-0.384094	
-0.383423	
-0.384155	
-0.385315	
-0.384766	
-0.385559	
-0.385071	
-0.384705	
-0.385254	
-0.385803	
-0.385376	
-0.385437	
-0.385132	
-0.384033	
-0.384216	
-0.386475	
-0.385132	
-0.384338	
-0.384094	
-0.384521	
-0.383911	
-0.383911	
-0.384033	
-0.383667	
-0.383789	
-0.383728	
-0.384827	
-0.383789	
-0.384338	
-0.383057	
-0.382324	
-0.382996	
-0.383179	
-0.382141	
-0.383118	
-0.382996	
-0.382202	
-0.383484	
-0.384216	
-0.383362	
-0.384583	
-0.383972	
-0.384155	
-0.383728	
-0.385681	
-0.385376	
-0.38562	
-0.385803	
-0.386169	
-0.386841	
-0.38678	
-0.387573	
-0.386902	
-0.38501	
-0.387146	
-0.387329	
-0.387268	
-0.387207	
-0.387207	
-0.386536	
-0.387573	
-0.38855	
-0.386658	
-0.387146	
-0.386353	
-0.386658	
-0.385986	
-0.385803	
-0.385803	
-0.38562	
-0.385559	
-0.385742	
-0.386169	
-0.385376	
-0.385071	
-0.383911	
-0.382568	
-0.383667	
-0.384155	
-0.382446	
-0.381287	
-0.380188	
-0.380615	
-0.379822	
-0.381592	
-0.381165	
-0.381653	
-0.380737	
-0.380676	
-0.379822	
-0.379761	
-0.380676	
-0.380127	
-0.380066	
-0.380432	
-0.380676	
-0.380859	
-0.381104	
-0.380737	
-0.378235	
-0.379883	
-0.379883	
-0.3797	
-0.380981	
-0.381531	
-0.381287	
-0.381592	
-0.38147	
-0.380981	
-0.382813	
-0.381409	
-0.379028	
-0.381348	
-0.381165	
-0.381592	
-0.381531	
-0.381226	
-0.381775	
-0.382141	
-0.383728	
-0.382874	
-0.383179	
-0.382019	
-0.382446	
-0.382324	
-0.383301	
-0.382751	
-0.383057	
-0.382385	
-0.383728	
-0.383972	
-0.38385	
-0.384705	
-0.384094	
-0.381653	
-0.384033	
-0.383728	
-0.384155	
-0.38385	
-0.384521	
-0.384216	
-0.383667	
-0.38501	
-0.384033	
-0.38501	
-0.383789	
-0.382385	
-0.383789	
-0.384338	
-0.384338	
-0.384338	
-0.384338	
-0.384766	
-0.385193	
-0.386047	
-0.38623	
-0.385559	
-0.384338	
-0.385254	
-0.384888	
-0.385071	
-0.385193	
-0.38501	
-0.384705	
-0.385254	
-0.386841	
-0.385559	
-0.387512	
-0.385559	
-0.386414	
-0.386414	
-0.387634	
-0.387268	
-0.387756	
-0.38739	
-0.388245	
-0.388794	
-0.390015	
-0.389893	
-0.389587	
-0.388733	
-0.389771	
-0.389343	
-0.389404	
-0.389404	
-0.389404	
-0.389465	
-0.388611	
-0.389099	
-0.388733	
-0.389465	
-0.387268	
-0.385193	
-0.386536	
-0.386475	
-0.385437	
-0.385071	
-0.383545	
-0.384521	
-0.384399	
-0.384827	
-0.383484	
-0.383423	
-0.382385	
-0.382507	
-0.381348	
-0.38208	
-0.381958	
-0.382141	
-0.38147	
-0.382263	
-0.382141	
-0.381958	
-0.382935	
-0.38269	
-0.380859	
-0.382263	
-0.382874	
-0.382751	
-0.382446	
-0.381958	
-0.383179	
-0.382935	
-0.384155	
-0.383667	
-0.384705	
-0.38385	
-0.383301	
-0.384583	
-0.383423	
-0.384033	
-0.383911	
-0.384216	
-0.384338	
-0.385315	
-0.386169	
-0.386353	
-0.38623	
-0.384644	
-0.386108	
-0.386841	
-0.386414	
-0.387024	
-0.387085	
-0.387573	
-0.387939	
-0.38855	
-0.388306	
-0.388123	
-0.388367	
-0.387817	
-0.388794	
-0.387878	
-0.387878	
-0.388184	
-0.388367	
-0.388611	
-0.388672	
-0.389282	
-0.388306	
-0.388733	
-0.387573	
-0.387634	
-0.387024	
-0.386597	
-0.387329	
-0.386414	
-0.387451	
-0.387024	
-0.387695	
-0.386963	
-0.387512	
-0.387451	
-0.385376	
-0.386902	
-0.386841	
-0.387573	
-0.387939	
-0.386963	
-0.38739	
-0.387573	
-0.388428	
-0.387756	
-0.387939	
-0.386902	
-0.386414	
-0.388489	
-0.388611	
-0.389954	
-0.389771	
-0.389282	
-0.388428	
-0.388611	
-0.390137	
-0.388489	
-0.388062	
-0.386536	
-0.388184	
-0.386902	
-0.38678	
-0.387817	
-0.387085	
-0.387634	
-0.388123	
-0.389587	
-0.387939	
-0.388977	
-0.388	
-0.387695	
-0.388062	
-0.388428	
-0.388672	
-0.388794	
-0.387756	
-0.389343	
-0.389648	
-0.390564	
-0.389526	
-0.390198	
-0.388855	
-0.389526	
-0.389709	
-0.388977	
-0.389587	
-0.389404	
-0.389343	
-0.389038	
-0.389526	
-0.389587	
-0.389404	
-0.389526	
-0.387878	
-0.389709	
-0.388062	
-0.387573	
-0.38855	
-0.388977	
-0.388428	
-0.388611	
-0.389771	
-0.388367	
-0.388733	
-0.388489	
-0.388367	
-0.389343	
-0.388367	
-0.388611	
-0.389221	
-0.389282	
-0.389404	
-0.390076	
-0.390564	
-0.389954	
-0.390015	
-0.389709	
-0.390137	
-0.389893	
-0.389526	
-0.390198	
-0.389771	
-0.390137	
-0.390564	
-0.390747	
-0.390747	
-0.390625	
-0.390076	
-0.389282	
-0.390259	
-0.390198	
-0.390137	
-0.390137	
-0.389893	
-0.390259	
-0.39032	
-0.390808	
-0.389404	
-0.389282	
-0.388733	
-0.388	
-0.388	
-0.387756	
-0.388306	
-0.388367	
-0.388	
-0.388428	
-0.388428	
-0.388062	
-0.387756	
-0.387024	
-0.385864	
-0.38678	
-0.387268	
-0.385803	
-0.387024	
-0.386963	
-0.38739	
-0.387573	
-0.388794	
-0.388245	
-0.389771	
-0.388733	
-0.388794	
-0.38916	
-0.389343	
-0.388611	
-0.389587	
-0.389709	
-0.39032	
-0.390808	
-0.390564	
-0.390869	
-0.391357	
-0.390076	
-0.391052	
-0.392334	
-0.39386	
-0.393494	
-0.393311	
-0.393188	
-0.393066	
-0.39447	
-0.393311	
-0.393555	
-0.39325	
-0.393616	
-0.392761	
-0.394104	
-0.393311	
-0.392944	
-0.392517	
-0.393677	
-0.393677	
-0.394897	
-0.393616	
-0.394104	
-0.392151	
-0.391418	
-0.390991	
-0.391846	
-0.390991	
-0.392456	
-0.390747	
-0.39209	
-0.393555	
-0.39209	
-0.391724	
-0.391052	
-0.392273	
-0.391357	
-0.390259	
-0.391235	
-0.390991	
-0.390869	
-0.390991	
-0.391296	
-0.39209	
-0.391113	
-0.392578	
-0.39032	
-0.391846	
-0.391663	
-0.391052	
-0.391174	
-0.391357	
-0.39093	
-0.391907	
-0.392761	
-0.392822	
-0.392029	
-0.393066	
-0.391541	
-0.392456	
-0.392395	
-0.39209	
-0.392151	
-0.3927	
-0.392029	
-0.393005	
-0.394104	
-0.392883	
-0.393188	
-0.392334	
-0.393555	
-0.391968	
-0.39209	
-0.39209	
-0.39209	
-0.391968	
-0.391663	
-0.392456	
-0.392334	
-0.391968	
-0.392212	
-0.391663	
-0.392639	
-0.391663	
-0.392578	
-0.391541	
-0.390808	
-0.390991	
-0.390381	
-0.391724	
-0.390137	
-0.390198	
-0.389832	
-0.388733	
-0.388611	
-0.388306	
-0.388916	
-0.388306	
-0.387939	
-0.387451	
-0.387878	
-0.387878	
-0.386719	
-0.386841	
-0.385437	
-0.385864	
-0.385742	
-0.38678	
-0.38562	
-0.386536	
-0.386719	
-0.387268	
-0.38855	
-0.388977	
-0.388428	
-0.389221	
-0.389038	
-0.389954	
-0.389709	
-0.390381	
-0.390381	
-0.391357	
-0.390625	
-0.391968	
-0.39325	
-0.393127	
-0.392761	
-0.392944	
-0.392395	
-0.393005	
-0.392151	
-0.392822	
-0.392456	
-0.39325	
-0.391846	
-0.39325	
-0.393555	
-0.393372	
-0.393433	
-0.392151	
-0.393311	
-0.392456	
-0.393311	
-0.392273	
-0.392212	
-0.39209	
-0.3927	
-0.392883	
-0.39325	
-0.392273	
-0.393188	
-0.391907	
-0.392761	
-0.391907	
-0.391663	
-0.391296	
-0.390991	
-0.390503	
-0.391479	
-0.390869	
-0.390503	
-0.389404	
-0.389038	
-0.388672	
-0.389709	
-0.388489	
-0.388733	
-0.387817	
-0.38855	
-0.387207	
-0.38855	
-0.388794	
-0.388428	
-0.388916	
-0.387268	
-0.385498	
-0.388123	
-0.389526	
-0.388611	
-0.388062	
-0.388367	
-0.388672	
-0.389526	
-0.389709	
-0.389648	
-0.389954	
-0.390015	
-0.389526	
-0.389404	
-0.389648	
-0.389038	
-0.389465	
-0.389282	
-0.389709	
-0.389954	
-0.38916	
-0.389526	
-0.388245	
-0.38855	
-0.388855	
-0.388855	
-0.389099	
-0.388489	
-0.38855	
-0.388184	
-0.390015	
-0.388306	
-0.387146	
-0.387634	
-0.387024	
-0.386841	
-0.387695	
-0.38855	
-0.388	
-0.388	
-0.388184	
-0.388611	
-0.388428	
-0.389343	
-0.388794	
-0.388306	
-0.388794	
-0.388855	
-0.388916	
-0.388672	
-0.387756	
-0.388245	
-0.388	
-0.388794	
-0.388916	
-0.388245	
-0.388184	
-0.386658	
-0.388489	
-0.387268	
-0.387085	
-0.387878	
-0.387024	
-0.38678	
-0.386414	
-0.387939	
-0.387024	
-0.387451	
-0.387573	
-0.387024	
-0.387207	
-0.387451	
-0.388611	
-0.387268	
-0.387878	
-0.387329	
-0.387939	
-0.388489	
-0.388306	
-0.387878	
-0.388489	
-0.388062	
-0.387878	
-0.387939	
-0.389221	
-0.387329	
-0.388733	
-0.388977	
-0.389038	
-0.389221	
-0.388855	
-0.389771	
-0.387085	
-0.387878	
-0.388062	
-0.388367	
-0.387634	
-0.387634	
-0.387573	
-0.387695	
-0.388489	
-0.387756	
-0.386963	
-0.387085	
-0.387024	
-0.386841	
-0.386658	
-0.387695	
-0.386536	
-0.387085	
-0.386597	
-0.387451	
-0.38739	
-0.387451	
-0.386536	
-0.386169	
-0.386292	
-0.387573	
-0.386719	
-0.387939	
-0.386841	
-0.388062	
-0.387756	
-0.388672	
-0.388794	
-0.388611	
-0.389893	
-0.388123	
-0.388489	
-0.389526	
-0.390015	
-0.389954	
-0.38916	
-0.390015	
-0.390198	
-0.391479	
-0.391052	
-0.390686	
-0.390198	
-0.390259	
-0.389648	
-0.388916	
-0.390686	
-0.389709	
-0.389465	
-0.389465	
-0.389343	
-0.390503	
-0.390198	
-0.389771	
-0.38855	
-0.388062	
-0.388306	
-0.388123	
-0.388672	
-0.387146	
-0.387573	
-0.386963	
-0.386963	
-0.386169	
-0.384888	
-0.384888	
-0.383423	
-0.384338	
-0.384033	
-0.384949	
-0.385132	
-0.383972	
-0.384827	
-0.384583	
-0.385376	
-0.385437	
-0.385498	
-0.384705	
-0.382996	
-0.385071	
-0.384888	
-0.385681	
-0.384705	
-0.384521	
-0.384949	
-0.385254	
-0.386536	
-0.387268	
-0.388123	
-0.387207	
-0.386353	
-0.386536	
-0.386841	
-0.38678	
-0.385864	
-0.38678	
-0.386047	
-0.387268	
-0.387756	
-0.387878	
-0.387024	
-0.386719	
-0.387451	
-0.387268	
-0.388367	
-0.386841	
-0.386047	
-0.386475	
-0.386902	
-0.38739	
-0.387268	
-0.387817	
-0.386902	
-0.385803	
-0.386597	
-0.386353	
-0.387268	
-0.38623	
-0.385925	
-0.386169	
-0.386414	
-0.386719	
-0.38678	
-0.386597	
-0.385315	
-0.386169	
-0.386414	
-0.385986	
-0.385742	
-0.385498	
-0.385498	
-0.384949	
-0.386047	
-0.386475	
-0.387451	
-0.386475	
-0.385742	
-0.385925	
-0.387329	
-0.387451	
-0.386658	
-0.385803	
-0.386475	
-0.387024	
-0.387329	
-0.388245	
-0.387146	
-0.387024	
-0.386292	
-0.387817	
-0.388672	
-0.388611	
-0.388611	
-0.38916	
-0.389282	
-0.389648	
-0.390747	
-0.390076	
-0.390442	
-0.390747	
-0.39032	
-0.390991	
-0.392029	
-0.392273	
-0.392212	
-0.392334	
-0.392029	
-0.392883	
-0.393311	
-0.393494	
-0.392761	
-0.391235	
-0.390625	
-0.391968	
-0.392029	
-0.390869	
-0.389771	
-0.390503	
-0.390625	
-0.389954	
-0.390625	
-0.38916	
-0.388489	
-0.387085	
-0.388245	
-0.387329	
-0.387634	
-0.386658	
-0.386108	
-0.385559	
-0.38623	
-0.387512	
-0.386536	
-0.385803	
-0.385498	
-0.384949	
-0.385925	
-0.386169	
-0.386475	
-0.38562	
-0.385559	
-0.386108	
-0.386719	
-0.386963	
-0.386902	
-0.386658	
-0.385254	
-0.385925	
-0.38739	
-0.387756	
-0.386963	
-0.38623	
-0.387268	
-0.387573	
-0.388367	
-0.388428	
-0.389099	
-0.387695	
-0.38739	
-0.388916	
-0.389404	
-0.390015	
-0.389526	
-0.388611	
-0.390076	
-0.390381	
-0.391235	
-0.390503	
-0.390625	
-0.390869	
-0.390747	
-0.390686	
-0.391907	
-0.391174	
-0.391541	
-0.391663	
-0.391602	
-0.39093	
-0.391541	
-0.392761	
-0.391113	
-0.390747	
-0.391479	
-0.392395	
-0.391968	
-0.390198	
-0.390198	
-0.39032	
-0.390625	
-0.391113	
-0.390747	
-0.39093	
-0.389771	
-0.389221	
-0.389465	
-0.390564	
-0.390503	
-0.390076	
-0.390259	
-0.390625	
-0.390564	
-0.391113	
-0.391174	
-0.390381	
-0.389648	
-0.389709	
-0.390747	
-0.391418	
-0.390381	
-0.391357	
-0.391357	
-0.392273	
-0.392456	
-0.392883	
-0.392883	
-0.391663	
-0.390076	
-0.391296	
-0.391968	
-0.391479	
-0.391113	
-0.391663	
-0.389832	
-0.390259	
-0.391785	
-0.392029	
-0.391785	
-0.39093	
-0.390259	
-0.391113	
-0.391846	
-0.39209	
-0.391785	
-0.391541	
-0.390747	
-0.391907	
-0.393372	
-0.392212	
-0.392517	
-0.392273	
-0.391479	
-0.391541	
-0.394531	
-0.392761	
-0.392517	
-0.392578	
-0.391602	
-0.392944	
-0.393494	
-0.393066	
-0.392761	
-0.391785	
-0.392334	
-0.392273	
-0.393555	
-0.392212	
-0.391968	
-0.391968	
-0.391296	
-0.392456	
-0.393066	
-0.392273	
-0.390686	
-0.390869	
-0.391174	
-0.390869	
-0.391846	
-0.391785	
-0.391357	
-0.390137	
-0.393127	
-0.393127	
-0.392761	
-0.393188	
-0.392517	
-0.392212	
-0.391968	
-0.394043	
-0.393616	
-0.392883	
-0.392944	
-0.392944	
-0.393982	
-0.39386	
-0.393738	
-0.393372	
-0.393066	
-0.393188	
-0.392334	
-0.39447	
-0.39386	
-0.393799	
-0.393372	
-0.392944	
-0.39386	
-0.394043	
-0.393311	
-0.392517	
-0.392151	
-0.391846	
-0.391968	
-0.391846	
-0.390991	
-0.391235	
-0.390625	
-0.390747	
-0.392273	
-0.392212	
-0.39093	
-0.390869	
-0.390137	
-0.389343	
-0.390991	
-0.390625	
-0.390076	
-0.389648	
-0.389465	
-0.390442	
-0.391846	
-0.391052	
-0.390991	
-0.390137	
-0.390686	
-0.390747	
-0.3927	
-0.392273	
-0.392212	
-0.391968	
-0.392029	
-0.393677	
-0.394287	
-0.394043	
-0.392944	
-0.39325	
-0.393127	
-0.394104	
-0.39447	
-0.39502	
-0.396545	
-0.396423	
-0.396545	
-0.39679	
-0.396667	
-0.395874	
-0.395203	
-0.395813	
-0.395752	
-0.396545	
-0.396362	
-0.396423	
-0.396057	
-0.394836	
-0.395447	
-0.396973	
-0.396729	
-0.396423	
-0.395081	
-0.394958	
-0.394958	
-0.39563	
-0.394958	
-0.394104	
-0.393677	
-0.394775	
-0.395691	
-0.394958	
-0.395325	
-0.394409	
-0.394226	
-0.393311	
-0.39447	
-0.395081	
-0.395508	
-0.393921	
-0.393799	
-0.393982	
-0.394409	
-0.394348	
-0.394043	
-0.392883	
-0.393799	
-0.394104	
-0.394409	
-0.39447	
-0.394104	
-0.394043	
-0.39325	
-0.394043	
-0.394714	
-0.395264	
-0.394836	
-0.393921	
-0.393555	
-0.393982	
-0.395874	
-0.395569	
-0.39502	
-0.39502	
	
