E:\DOCUMENTS AND SETTINGS\JPOTAS\MEUS DOCUMENTOS\UFRJ\RSCI-BM 12 WK SERIES\070803-RSCI-BM-11\RSCI-BM-11-REMG\070803-RSCI-BM-11-REMG-0012.ACQ
0.025000 msec/sample
1 channel
Analog input
Volts
CH1	
2000	
-0.393433	
-0.393799	
-0.3927	
-0.393555	
-0.3927	
-0.393005	
-0.393311	
-0.393616	
-0.393372	
-0.39325	
-0.393494	
-0.393799	
-0.393494	
-0.39386	
-0.393188	
-0.394165	
-0.394165	
-0.393616	
-0.39386	
-0.393921	
-0.393738	
-0.39386	
-0.39386	
-0.393555	
-0.393921	
-0.393555	
-0.392395	
-0.392212	
-0.391907	
-0.39209	
-0.391113	
-0.391357	
-0.391296	
-0.39093	
-0.391235	
-0.390076	
-0.389954	
-0.388977	
-0.388489	
-0.387634	
-0.38739	
-0.387329	
-0.38678	
-0.387695	
-0.386963	
-0.388367	
-0.387695	
-0.388062	
-0.388428	
-0.387634	
-0.388977	
-0.387878	
-0.388062	
-0.388794	
-0.389709	
-0.390625	
-0.390137	
-0.392029	
-0.392029	
-0.3927	
-0.393372	
-0.393433	
-0.392761	
-0.393372	
-0.393616	
-0.394226	
-0.394348	
-0.39447	
-0.394531	
-0.394531	
-0.394348	
-0.395325	
-0.395081	
-0.395874	
-0.394775	
-0.394897	
-0.395813	
-0.395691	
-0.395996	
-0.395203	
-0.396362	
-0.395691	
-0.395935	
-0.395874	
-0.396851	
-0.39679	
-0.396301	
-0.395508	
-0.39563	
-0.396912	
-0.39679	
-0.396179	
-0.396912	
-0.396118	
-0.396667	
-0.39679	
-0.396667	
-0.394775	
-0.394897	
-0.394287	
-0.394531	
-0.394714	
-0.394775	
-0.394714	
-0.393982	
-0.393616	
-0.392639	
-0.3927	
-0.392456	
-0.391724	
-0.392578	
-0.392273	
-0.3927	
-0.392517	
-0.391846	
-0.3927	
-0.39209	
-0.3927	
-0.392029	
-0.393677	
-0.391663	
-0.392334	
-0.392395	
-0.392578	
-0.393433	
-0.393616	
-0.393494	
-0.393188	
-0.392822	
-0.391724	
-0.393127	
-0.393738	
-0.392395	
-0.393066	
-0.392029	
-0.392334	
-0.392944	
-0.393555	
-0.392822	
-0.391907	
-0.392639	
-0.392334	
-0.392029	
-0.392334	
-0.391541	
-0.392395	
-0.391541	
-0.392151	
-0.392395	
-0.393188	
-0.392944	
-0.392212	
-0.392761	
-0.392273	
-0.393921	
-0.392395	
-0.39325	
-0.392639	
-0.392334	
-0.392639	
-0.393311	
-0.393921	
-0.394043	
-0.392761	
-0.393433	
-0.392822	
-0.393188	
-0.392029	
-0.392639	
-0.391785	
-0.390808	
-0.39209	
-0.392517	
-0.391846	
-0.391418	
-0.391113	
-0.391113	
-0.390076	
-0.390808	
-0.390503	
-0.389771	
-0.388672	
-0.390503	
-0.390381	
-0.390503	
-0.390869	
-0.389954	
-0.390564	
-0.389404	
-0.390686	
-0.390747	
-0.389893	
-0.390869	
-0.390442	
-0.391174	
-0.391357	
-0.391785	
-0.389465	
-0.383728	
-0.384033	
-0.383423	
-0.384766	
-0.384277	
-0.386169	
-0.391174	
-0.391052	
-0.391968	
-0.391907	
-0.392822	
-0.391541	
-0.391724	
-0.391907	
-0.390381	
-0.392639	
-0.391174	
-0.391907	
-0.39093	
-0.391541	
-0.391785	
-0.392273	
-0.392273	
-0.391968	
-0.392151	
-0.390442	
-0.391174	
-0.392334	
-0.390259	
-0.391479	
-0.390686	
-0.391785	
-0.391235	
-0.392212	
-0.391724	
-0.392029	
-0.390991	
-0.390991	
-0.391479	
-0.391907	
-0.390747	
-0.39093	
-0.391724	
-0.391785	
-0.391418	
-0.392212	
-0.391602	
-0.391541	
-0.391418	
-0.391602	
-0.391663	
-0.39093	
-0.391479	
-0.391174	
-0.390442	
-0.390991	
-0.391174	
-0.391418	
-0.391724	
-0.391113	
-0.391418	
-0.391357	
-0.391663	
-0.391235	
-0.391235	
-0.390564	
-0.389709	
-0.391174	
-0.391724	
-0.391724	
-0.391235	
-0.39093	
-0.390808	
-0.389893	
-0.391479	
-0.387756	
-0.38855	
-0.387329	
-0.388916	
-0.389282	
-0.389709	
-0.389282	
-0.389343	
-0.388733	
-0.387695	
-0.388245	
-0.389954	
-0.389587	
-0.390564	
-0.391052	
-0.392395	
-0.393066	
-0.394348	
-0.396362	
-0.397766	
-0.398987	
-0.398621	
-0.399536	
-0.398376	
-0.400024	
-0.400391	
-0.400452	
-0.402039	
-0.403442	
-0.40448	
-0.404419	
-0.40509	
-0.40387	
-0.406189	
-0.405396	
-0.406128	
-0.40686	
-0.405762	
-0.408264	
-0.408447	
-0.40918	
-0.410156	
-0.411499	
-0.411499	
-0.41217	
-0.413513	
-0.413696	
-0.41394	
-0.414429	
-0.415588	
-0.416321	
-0.416809	
-0.417664	
-0.418152	
-0.418335	
-0.418945	
-0.420105	
-0.419189	
-0.419678	
-0.418457	
-0.419861	
-0.420532	
-0.420044	
-0.421631	
-0.421082	
-0.421021	
-0.421875	
-0.423767	
-0.422363	
-0.422363	
-0.421997	
-0.421082	
-0.422668	
-0.421753	
-0.422607	
-0.421509	
-0.420837	
-0.421509	
-0.422058	
-0.422058	
-0.420044	
-0.420898	
-0.419373	
-0.41925	
-0.420532	
-0.419739	
-0.419189	
-0.419006	
-0.419067	
-0.41803	
-0.419495	
-0.41748	
-0.41748	
-0.415649	
-0.417419	
-0.416931	
-0.416809	
-0.415833	
-0.414368	
-0.414673	
-0.413086	
-0.413025	
-0.411499	
-0.410522	
-0.409546	
-0.407288	
-0.407593	
-0.406982	
-0.404724	
-0.403503	
-0.401428	
-0.39917	
-0.396362	
-0.396362	
-0.393127	
-0.391296	
-0.389465	
-0.387695	
-0.385254	
-0.383362	
-0.382385	
-0.379944	
-0.378113	
-0.376099	
-0.374207	
-0.37384	
-0.3703	
-0.370178	
-0.367432	
-0.368469	
-0.367493	
-0.36676	
-0.366516	
-0.365906	
-0.366028	
-0.365723	
-0.365967	
-0.36438	
-0.364075	
-0.363037	
-0.361084	
-0.361206	
-0.360901	
-0.358704	
-0.357117	
-0.35553	
-0.355469	
-0.352722	
-0.353149	
-0.349976	
-0.349548	
-0.348694	
-0.348206	
-0.347351	
-0.346802	
-0.347534	
-0.346313	
-0.345947	
-0.34552	
-0.346619	
-0.345215	
-0.345459	
-0.345337	
-0.346375	
-0.346375	
-0.347778	
-0.347412	
-0.347412	
-0.34845	
-0.348389	
-0.348145	
-0.34906	
-0.349915	
-0.349915	
-0.349487	
-0.349792	
-0.350342	
-0.350708	
-0.351501	
-0.351135	
-0.349304	
-0.349182	
-0.350281	
-0.35144	
-0.351624	
-0.349792	
-0.351746	
-0.351929	
-0.351929	
-0.352844	
-0.352661	
-0.352539	
-0.352722	
-0.354553	
-0.352356	
-0.35376	
-0.353638	
-0.354431	
-0.355286	
-0.355103	
-0.356628	
-0.355713	
-0.35614	
-0.356873	
-0.357178	
-0.350464	
-0.350647	
-0.351196	
-0.352173	
-0.353027	
-0.357239	
-0.362854	
-0.362976	
-0.36377	
-0.363953	
-0.365356	
-0.365051	
-0.365295	
-0.365601	
-0.366333	
-0.366821	
-0.36731	
-0.368469	
-0.36792	
-0.368408	
-0.367737	
-0.370117	
-0.368408	
-0.368958	
-0.369202	
-0.369751	
-0.369629	
-0.370239	
-0.370789	
-0.370911	
-0.371643	
-0.370544	
-0.371826	
-0.37207	
-0.373169	
-0.37146	
-0.372681	
-0.373291	
-0.373291	
-0.37323	
-0.373413	
-0.374329	
-0.372314	
-0.373474	
-0.373413	
-0.37323	
-0.373352	
-0.371399	
-0.373596	
-0.373413	
-0.373901	
-0.374023	
-0.373718	
-0.373657	
-0.372925	
-0.374939	
-0.374695	
-0.374634	
-0.374451	
-0.374939	
-0.37561	
-0.375977	
-0.377136	
-0.376526	
-0.376892	
-0.376526	
-0.377014	
-0.376831	
-0.376709	
-0.376526	
-0.374512	
-0.376648	
-0.377197	
-0.377258	
-0.377686	
-0.377075	
-0.376831	
-0.376648	
-0.377686	
-0.375244	
-0.375916	
-0.375122	
-0.376099	
-0.375793	
-0.376343	
-0.376709	
-0.376587	
-0.377869	
-0.376953	
-0.379028	
-0.379395	
-0.378967	
-0.379883	
-0.380615	
-0.382324	
-0.383423	
-0.384277	
-0.384949	
-0.387085	
-0.387268	
-0.38739	
-0.389587	
-0.389099	
-0.390564	
-0.389832	
-0.392151	
-0.392273	
-0.393616	
-0.392761	
-0.393738	
-0.394592	
-0.393982	
-0.3974	
-0.396118	
-0.398376	
-0.397827	
-0.400269	
-0.401978	
-0.40332	
-0.403931	
-0.405151	
-0.406433	
-0.406921	
-0.408691	
-0.408081	
-0.410461	
-0.40863	
-0.411621	
-0.412292	
-0.414978	
-0.416687	
-0.41626	
-0.416321	
-0.41626	
-0.416687	
-0.416626	
-0.417664	
-0.418701	
-0.421082	
-0.421753	
-0.422119	
-0.421509	
-0.420898	
-0.420593	
-0.420776	
-0.419434	
-0.41864	
-0.417725	
-0.416565	
-0.417114	
-0.417603	
-0.417053	
-0.415527	
-0.415527	
-0.413086	
-0.414063	
-0.413391	
-0.411865	
-0.410645	
-0.410339	
-0.409058	
-0.40863	
-0.407532	
-0.406921	
-0.405701	
-0.404236	
-0.404175	
-0.402893	
-0.402344	
-0.400879	
-0.399414	
-0.398804	
-0.399048	
-0.398987	
-0.399048	
-0.398438	
-0.398193	
-0.397278	
-0.39801	
-0.394653	
-0.394348	
-0.393616	
-0.391541	
-0.391174	
-0.389709	
-0.390076	
-0.387512	
-0.384888	
-0.383972	
-0.38269	
-0.380554	
-0.378601	
-0.377319	
-0.373169	
-0.373413	
-0.372131	
-0.36969	
-0.368286	
-0.36676	
-0.365601	
-0.365051	
-0.364929	
-0.363464	
-0.364441	
-0.364197	
-0.363159	
-0.363953	
-0.364685	
-0.36377	
-0.362732	
-0.361938	
-0.361145	
-0.36084	
-0.360046	
-0.35675	
-0.355774	
-0.354309	
-0.353516	
-0.352661	
-0.351318	
-0.350403	
-0.349548	
-0.349304	
-0.347595	
-0.34906	
-0.346863	
-0.346863	
-0.345825	
-0.345886	
-0.346497	
-0.345947	
-0.34613	
-0.346619	
-0.34668	
-0.346863	
-0.349243	
-0.348816	
-0.349487	
-0.34967	
-0.35144	
-0.351501	
-0.352905	
-0.35376	
-0.353638	
-0.354553	
-0.354675	
-0.356628	
-0.356201	
-0.356506	
-0.356506	
-0.356018	
-0.357178	
-0.358459	
-0.358337	
-0.357788	
-0.358398	
-0.358154	
-0.358643	
-0.359192	
-0.358765	
-0.358765	
-0.359558	
-0.360413	
-0.361145	
-0.361145	
-0.361511	
-0.362183	
-0.362305	
-0.362061	
-0.363159	
-0.362488	
-0.363647	
-0.364258	
-0.365234	
-0.366333	
-0.365906	
-0.367004	
-0.367493	
-0.369141	
-0.368286	
-0.369934	
-0.369507	
-0.369995	
-0.370422	
-0.370911	
-0.372742	
-0.37262	
-0.372986	
-0.371948	
-0.371704	
-0.372009	
-0.373596	
-0.372803	
-0.372437	
-0.372498	
-0.371399	
-0.372864	
-0.373901	
-0.373779	
-0.372375	
-0.373047	
-0.372253	
-0.373352	
-0.374023	
-0.373291	
-0.372986	
-0.373291	
-0.373718	
-0.374512	
-0.373901	
-0.374084	
-0.374451	
-0.374878	
-0.375305	
-0.375488	
-0.375793	
-0.375427	
-0.375488	
-0.374268	
-0.376343	
-0.376587	
-0.377136	
-0.376587	
-0.376526	
-0.376953	
-0.377502	
-0.37793	
-0.377014	
-0.376343	
-0.377075	
-0.378479	
-0.378967	
-0.378418	
-0.377991	
-0.378662	
-0.378296	
-0.379211	
-0.378845	
-0.378662	
-0.379089	
-0.37915	
-0.378845	
-0.380432	
-0.380493	
-0.380188	
-0.380249	
-0.379883	
-0.381287	
-0.380371	
-0.38147	
-0.380554	
-0.38092	
-0.380249	
-0.380981	
-0.381714	
-0.380493	
-0.380493	
-0.379333	
-0.379761	
-0.379822	
-0.380737	
-0.380066	
-0.379639	
-0.379272	
-0.379578	
-0.380737	
-0.3797	
-0.379578	
-0.379333	
-0.380371	
-0.379028	
-0.380188	
-0.379456	
-0.379822	
-0.380066	
-0.379883	
-0.381165	
-0.381348	
-0.380981	
-0.380127	
-0.380981	
-0.38147	
-0.381348	
-0.381165	
-0.381653	
-0.381775	
-0.381836	
-0.382324	
-0.382507	
-0.382019	
-0.38208	
-0.380859	
-0.381775	
-0.381958	
-0.382202	
-0.381165	
-0.381409	
-0.381653	
-0.381592	
-0.383484	
-0.38208	
-0.382629	
-0.381409	
-0.383362	
-0.382324	
-0.382813	
-0.382935	
-0.383606	
-0.383118	
-0.383301	
-0.384583	
-0.383728	
-0.383972	
-0.383118	
-0.382324	
-0.38324	
-0.383667	
-0.383362	
-0.38324	
-0.383972	
-0.383423	
-0.384155	
-0.385132	
-0.384338	
-0.38385	
-0.383484	
-0.383606	
-0.384216	
-0.383179	
-0.383911	
-0.384094	
-0.383362	
-0.384094	
-0.385376	
-0.384521	
-0.384094	
-0.384155	
-0.383972	
-0.384033	
-0.384155	
-0.383179	
-0.384766	
-0.383972	
-0.385071	
-0.384766	
-0.384705	
-0.384399	
-0.384766	
-0.384033	
-0.383545	
-0.385132	
-0.384888	
-0.385193	
-0.384338	
-0.384521	
-0.384827	
-0.386108	
-0.385437	
-0.384583	
-0.38385	
-0.38446	
-0.384155	
-0.38269	
-0.381348	
-0.382507	
-0.382385	
-0.383972	
-0.383972	
-0.384094	
-0.38324	
-0.380981	
-0.382019	
-0.382935	
-0.383667	
-0.382263	
-0.383545	
-0.382568	
-0.383789	
-0.384949	
-0.384155	
-0.38501	
-0.386108	
-0.386658	
-0.386169	
-0.385498	
-0.384521	
-0.384644	
-0.38324	
-0.384888	
-0.384705	
-0.385437	
-0.384644	
-0.384705	
-0.383972	
-0.384155	
-0.384583	
-0.384216	
-0.38385	
-0.383179	
-0.384399	
-0.384094	
-0.384766	
-0.384644	
-0.383606	
-0.382324	
-0.384216	
-0.384277	
-0.383423	
-0.383362	
-0.383179	
-0.38324	
-0.383667	
-0.384094	
-0.383362	
-0.382507	
-0.381226	
-0.383362	
-0.381714	
-0.382446	
-0.381714	
-0.382507	
-0.380859	
-0.382141	
-0.383606	
-0.381409	
-0.382324	
-0.381287	
-0.381897	
-0.380859	
-0.382751	
-0.381165	
-0.381775	
-0.38147	
-0.381714	
-0.382385	
-0.382202	
-0.382629	
-0.38147	
-0.380676	
-0.382141	
-0.382751	
-0.381958	
-0.381958	
-0.382324	
-0.382996	
-0.382019	
-0.384399	
-0.383362	
-0.382935	
-0.383484	
-0.383972	
-0.38446	
-0.385193	
-0.384583	
-0.384277	
-0.384949	
-0.386169	
-0.386841	
-0.387207	
-0.388428	
-0.387268	
-0.388794	
-0.389038	
-0.389465	
-0.389648	
-0.388306	
-0.389465	
-0.388672	
-0.389954	
-0.390808	
-0.389648	
-0.388367	
-0.388245	
-0.389404	
-0.38855	
-0.388306	
-0.387329	
-0.387512	
-0.385681	
-0.386047	
-0.386047	
-0.385498	
-0.384338	
-0.383911	
-0.382507	
-0.38324	
-0.384521	
-0.383179	
-0.381897	
-0.382629	
-0.383301	
-0.383484	
-0.38324	
-0.382751	
-0.381958	
-0.380371	
-0.382507	
-0.382202	
-0.381836	
-0.381653	
-0.38208	
-0.380432	
-0.381653	
-0.383484	
-0.381897	
-0.381165	
-0.380249	
-0.38147	
-0.380737	
-0.382446	
-0.381531	
-0.381287	
-0.38092	
-0.381775	
-0.382751	
-0.382141	
-0.38147	
-0.381226	
-0.381531	
-0.381409	
-0.382874	
-0.382813	
-0.382202	
-0.382202	
-0.382874	
-0.38324	
-0.384521	
-0.38446	
-0.38446	
-0.384155	
-0.385132	
-0.384888	
-0.384521	
-0.384644	
-0.384094	
-0.38385	
-0.384644	
-0.385864	
-0.386108	
-0.384583	
-0.38385	
-0.383728	
-0.382813	
-0.383789	
-0.384033	
-0.383728	
-0.384827	
-0.384521	
-0.384949	
-0.384827	
-0.385254	
-0.384155	
-0.383972	
-0.383362	
-0.384155	
-0.384521	
-0.384155	
-0.384277	
-0.382874	
-0.385132	
-0.38562	
-0.385925	
-0.384338	
-0.38385	
-0.384766	
-0.385071	
-0.38562	
-0.384949	
-0.384216	
-0.384338	
-0.38501	
-0.385132	
-0.385742	
-0.385071	
-0.384644	
-0.383606	
-0.384216	
-0.385193	
-0.384399	
-0.38385	
-0.384644	
-0.384155	
-0.384888	
-0.385376	
-0.385864	
-0.384399	
-0.383423	
-0.384827	
-0.38501	
-0.385559	
-0.384705	
-0.384583	
-0.385254	
-0.385132	
-0.386597	
-0.386047	
-0.386597	
-0.385437	
-0.386963	
-0.385376	
-0.387573	
-0.387085	
-0.386597	
-0.386902	
-0.386597	
-0.387756	
-0.387207	
-0.388306	
-0.38678	
-0.385681	
-0.386536	
-0.387146	
-0.386597	
-0.385864	
-0.385803	
-0.385315	
-0.385803	
-0.386292	
-0.386292	
-0.386475	
-0.385437	
-0.385986	
-0.385254	
-0.386169	
-0.385864	
-0.385254	
-0.385742	
-0.385742	
-0.385803	
-0.385986	
-0.386597	
-0.385742	
-0.384583	
-0.385376	
-0.385071	
-0.38623	
-0.385132	
-0.384827	
-0.384705	
-0.385559	
-0.386169	
-0.386292	
-0.385864	
-0.384644	
-0.385559	
-0.384155	
-0.386108	
-0.384888	
-0.385498	
-0.384766	
-0.384338	
-0.385193	
-0.38562	
-0.386536	
-0.384766	
-0.384277	
-0.384644	
-0.385559	
-0.384705	
-0.384949	
-0.384399	
-0.385254	
-0.385193	
-0.385803	
-0.386047	
-0.387634	
-0.385681	
-0.385742	
-0.385376	
-0.38678	
-0.385681	
-0.385315	
-0.385315	
-0.38562	
-0.386108	
-0.385803	
-0.386658	
-0.386047	
-0.386047	
-0.385498	
-0.384888	
-0.386292	
-0.385498	
-0.384644	
-0.385925	
-0.386414	
-0.386902	
-0.386719	
-0.38739	
-0.385986	
-0.386841	
-0.386353	
-0.387878	
-0.387268	
-0.386719	
-0.385498	
-0.388123	
-0.389526	
-0.389404	
-0.388916	
-0.389099	
-0.387085	
-0.387878	
-0.387878	
-0.389282	
-0.389893	
-0.388611	
-0.388428	
-0.388855	
-0.388855	
-0.388611	
-0.388245	
-0.385925	
-0.385742	
-0.385071	
-0.386292	
-0.385986	
-0.385559	
-0.385437	
-0.386169	
-0.38623	
-0.386353	
-0.387024	
-0.386902	
-0.384949	
-0.386475	
-0.387024	
-0.386047	
-0.386169	
-0.38501	
-0.38678	
-0.386658	
-0.387146	
-0.386719	
-0.387756	
-0.386536	
-0.386414	
-0.387451	
-0.385803	
-0.387146	
-0.386658	
-0.385864	
-0.387207	
-0.387512	
-0.387085	
-0.387451	
-0.388306	
-0.38678	
-0.388245	
-0.388428	
-0.387512	
-0.388123	
-0.387817	
-0.388672	
-0.388611	
-0.389221	
-0.389465	
-0.389832	
-0.388733	
-0.389221	
-0.388855	
-0.389526	
-0.388794	
-0.388855	
-0.388245	
-0.389221	
-0.390137	
-0.390381	
-0.389893	
-0.39093	
-0.389648	
-0.390869	
-0.38916	
-0.390076	
-0.389954	
-0.389587	
-0.389709	
-0.389709	
-0.39032	
-0.389771	
-0.390564	
-0.389282	
-0.38916	
-0.388611	
-0.388062	
-0.38855	
-0.386841	
-0.386414	
-0.387207	
-0.387024	
-0.386292	
-0.38678	
-0.38623	
-0.384338	
-0.38501	
-0.384827	
-0.383789	
-0.382935	
-0.382874	
-0.383423	
-0.38385	
-0.384216	
-0.384399	
-0.38446	
-0.384766	
-0.38324	
-0.38446	
-0.384705	
-0.385864	
-0.385376	
-0.38501	
-0.386963	
-0.388	
-0.388916	
-0.388916	
-0.388794	
-0.388733	
-0.390076	
-0.389099	
-0.389832	
-0.390076	
-0.390747	
-0.391174	
-0.390625	
-0.391724	
-0.391663	
-0.392395	
-0.392029	
-0.391785	
-0.391174	
-0.391724	
-0.391663	
-0.39032	
-0.392273	
-0.392822	
-0.392761	
-0.393616	
-0.392944	
-0.393005	
-0.392517	
-0.393311	
-0.392334	
-0.391846	
-0.3927	
-0.392273	
-0.393127	
-0.393005	
-0.393555	
-0.39325	
-0.393799	
-0.393127	
-0.391602	
-0.393127	
-0.392944	
-0.392029	
-0.390808	
-0.391235	
-0.391052	
-0.390991	
-0.390991	
-0.390137	
-0.390198	
-0.389954	
-0.389587	
-0.388855	
-0.389282	
-0.38916	
-0.388672	
-0.388428	
-0.388489	
-0.388977	
-0.389709	
-0.389587	
-0.390137	
-0.389038	
-0.389282	
-0.389038	
-0.389465	
-0.389404	
-0.389038	
-0.389648	
-0.389221	
-0.39032	
-0.390625	
-0.389893	
-0.389954	
-0.388672	
-0.389954	
-0.389282	
-0.389404	
-0.388611	
-0.389099	
-0.389404	
-0.389221	
-0.389954	
-0.389771	
-0.389648	
-0.389099	
-0.389465	
-0.388977	
-0.38916	
-0.388306	
-0.388855	
-0.387634	
-0.388733	
-0.389526	
-0.389771	
-0.389648	
-0.388977	
-0.388367	
-0.389404	
-0.390198	
-0.389099	
-0.389282	
-0.389404	
-0.389893	
-0.389465	
-0.390442	
-0.390076	
-0.389771	
-0.388916	
-0.389587	
-0.389221	
-0.38916	
-0.388977	
-0.388245	
-0.388	
-0.388733	
-0.388733	
-0.388794	
-0.388184	
-0.387573	
-0.385803	
-0.388123	
-0.386536	
-0.38678	
-0.38678	
-0.386536	
-0.38623	
-0.387268	
-0.387634	
-0.387268	
-0.387207	
-0.387207	
-0.384888	
-0.387207	
-0.388428	
-0.387451	
-0.387146	
-0.387451	
-0.388306	
-0.388245	
-0.389954	
-0.388489	
-0.388245	
-0.387329	
-0.388062	
-0.387634	
-0.388489	
-0.387634	
-0.387085	
-0.387207	
-0.388062	
-0.388794	
-0.388794	
-0.388916	
-0.388123	
-0.387573	
-0.389038	
-0.388855	
-0.388367	
-0.388062	
-0.388123	
-0.388428	
-0.388733	
-0.389648	
-0.388062	
-0.387695	
-0.388184	
-0.388611	
-0.387878	
-0.387878	
-0.388611	
-0.388184	
-0.387573	
-0.388	
-0.389282	
-0.388611	
-0.38855	
-0.387939	
-0.386108	
-0.389221	
-0.389038	
-0.387817	
-0.388245	
-0.388123	
-0.388489	
-0.388184	
-0.389648	
-0.388428	
-0.389282	
-0.387756	
-0.38855	
-0.388123	
-0.388367	
-0.388184	
-0.387451	
-0.387634	
-0.388184	
-0.388611	
-0.389038	
-0.389099	
-0.388245	
-0.387268	
-0.388489	
-0.38855	
-0.388	
-0.387512	
-0.387329	
-0.387939	
-0.388306	
-0.389282	
-0.388489	
-0.387939	
-0.387085	
-0.387451	
-0.387939	
-0.387939	
-0.386902	
-0.385437	
-0.385254	
-0.385803	
-0.386169	
-0.387146	
-0.387085	
-0.386414	
-0.38324	
-0.384705	
-0.385559	
-0.385071	
-0.385071	
-0.385315	
-0.385986	
-0.386414	
-0.387207	
-0.386108	
-0.386841	
-0.388062	
-0.387512	
-0.387695	
-0.388245	
-0.387634	
-0.388123	
-0.385742	
-0.387268	
-0.387451	
-0.388977	
-0.388428	
-0.387024	
-0.385986	
-0.387573	
-0.388977	
-0.38739	
-0.387207	
-0.386902	
-0.387451	
-0.387634	
-0.387695	
-0.387146	
-0.387085	
-0.387085	
-0.385742	
-0.386597	
-0.38739	
-0.387146	
-0.386902	
-0.38562	
-0.386658	
-0.387329	
-0.388123	
-0.38678	
-0.385925	
-0.386169	
-0.385986	
-0.386719	
-0.386414	
-0.385498	
-0.385803	
-0.384888	
-0.38501	
-0.385376	
-0.386108	
-0.385132	
-0.384644	
-0.384277	
-0.38385	
-0.386292	
-0.384216	
-0.384644	
-0.38324	
-0.384827	
-0.384705	
-0.385376	
-0.384644	
-0.384155	
-0.383118	
-0.383972	
-0.384521	
-0.38501	
-0.384521	
-0.384827	
-0.383789	
-0.384399	
-0.385742	
-0.385376	
-0.385864	
-0.385498	
-0.385254	
-0.386414	
-0.387573	
-0.386902	
-0.38739	
-0.387634	
-0.387146	
-0.388916	
-0.390137	
-0.39032	
-0.390076	
-0.390625	
-0.390015	
-0.391541	
-0.391785	
-0.391174	
-0.390869	
-0.389893	
-0.390808	
-0.391357	
-0.391052	
-0.390808	
-0.389954	
-0.388733	
-0.389099	
-0.389832	
-0.389526	
-0.388306	
-0.387634	
-0.387024	
-0.386475	
-0.387207	
-0.385864	
-0.385864	
-0.384277	
-0.383606	
-0.383423	
-0.384949	
-0.383728	
-0.383545	
-0.382996	
-0.382629	
-0.383728	
-0.384644	
-0.383484	
-0.382874	
-0.382019	
-0.382507	
-0.383423	
-0.384033	
-0.383118	
-0.382446	
-0.382507	
-0.382751	
-0.383301	
-0.382751	
-0.383301	
-0.382324	
-0.38147	
-0.382446	
-0.382751	
-0.382996	
-0.383057	
-0.382202	
-0.382568	
-0.38324	
-0.385315	
-0.383118	
-0.383179	
-0.382874	
-0.383911	
-0.383179	
-0.384888	
-0.384399	
-0.385193	
-0.383667	
-0.385254	
-0.385986	
-0.387207	
-0.387146	
-0.386841	
-0.385681	
-0.38678	
-0.387268	
-0.38739	
-0.386292	
-0.38623	
-0.385986	
-0.386719	
-0.387329	
-0.38623	
-0.384888	
-0.383606	
-0.38501	
-0.386169	
-0.386475	
-0.386597	
-0.385498	
-0.385071	
-0.385742	
-0.386536	
-0.38678	
-0.385986	
-0.385071	
-0.384277	
-0.385559	
-0.38623	
-0.385803	
-0.385437	
-0.38562	
-0.385742	
-0.386292	
-0.386597	
-0.386169	
-0.386169	
-0.385742	
-0.385498	
-0.38501	
-0.386658	
-0.387024	
-0.386047	
-0.384766	
-0.386169	
-0.386841	
-0.387146	
-0.386597	
-0.38562	
-0.385498	
-0.385315	
-0.386169	
-0.385559	
-0.385925	
-0.385132	
-0.385132	
-0.384766	
-0.386597	
-0.386597	
-0.386963	
-0.385925	
-0.385864	
-0.38562	
-0.387512	
-0.38739	
-0.386719	
-0.386597	
-0.387024	
-0.387512	
-0.388062	
-0.388672	
-0.388489	
-0.387451	
-0.38739	
-0.388916	
-0.388672	
-0.389221	
-0.388733	
-0.388611	
-0.388916	
-0.388367	
-0.389648	
-0.389404	
-0.388062	
-0.387146	
-0.387329	
-0.388245	
-0.388123	
-0.387512	
-0.386597	
-0.387329	
-0.386292	
-0.387756	
-0.388916	
-0.387817	
-0.386841	
-0.387146	
-0.387085	
-0.387207	
-0.388062	
-0.38739	
-0.38623	
-0.387451	
-0.387634	
-0.387939	
-0.388428	
-0.387634	
-0.385925	
-0.386169	
-0.388611	
-0.387817	
-0.387451	
-0.387146	
-0.387512	
-0.387024	
-0.387817	
-0.388611	
-0.387512	
-0.387146	
-0.386108	
-0.386841	
-0.387207	
-0.387329	
-0.386841	
-0.387024	
-0.386902	
-0.386475	
-0.387329	
-0.388123	
-0.38739	
-0.385864	
-0.386292	
-0.388245	
-0.387512	
-0.387817	
-0.386536	
-0.38739	
-0.38678	
-0.388611	
-0.38855	
-0.387573	
-0.387146	
-0.386169	
-0.387024	
-0.387634	
-0.38739	
-0.387329	
-0.386536	
-0.388	
-0.387024	
-0.389587	
-0.388062	
-0.387756	
-0.386719	
-0.387085	
-0.387695	
-0.387329	
-0.388794	
-0.388	
-0.388916	
-0.38855	
-0.389343	
-0.388916	
-0.389709	
-0.388733	
-0.388977	
-0.388794	
-0.39032	
-0.390808	
-0.390625	
-0.390991	
-0.390625	
-0.390625	
-0.390991	
-0.390442	
-0.391113	
-0.39093	
-0.391418	
-0.390686	
-0.390991	
-0.391174	
-0.389893	
-0.389221	
-0.389465	
-0.38855	
-0.388123	
-0.387329	
-0.388062	
-0.387634	
-0.387695	
-0.388062	
-0.388733	
-0.389343	
-0.38855	
-0.388367	
-0.388184	
-0.388916	
-0.388611	
-0.389282	
-0.388794	
-0.38855	
-0.38855	
-0.388977	
-0.388977	
-0.388489	
-0.388306	
-0.388489	
-0.389221	
-0.38916	
-0.389648	
-0.388733	
-0.388062	
-0.388184	
-0.388489	
-0.389282	
-0.390015	
-0.389221	
-0.389221	
-0.389709	
-0.389893	
-0.390015	
-0.390625	
-0.390442	
-0.38916	
-0.390015	
-0.389465	
-0.390808	
	
