E:\DOCUMENTS AND SETTINGS\JPOTAS\MEUS DOCUMENTOS\UFRJ\RSCI-BM 12 WK SERIES\070803-RSCI-BM-11\RSCI-BM-11-REMG\070803-RSCI-BM-11-REMG-0006.ACQ
0.025000 msec/sample
1 channel
Analog input
Volts
CH1	
2000	
-0.393921	
-0.393494	
-0.392822	
-0.394348	
-0.39325	
-0.394348	
-0.394653	
-0.394958	
-0.394653	
-0.394226	
-0.394287	
-0.394043	
-0.394958	
-0.393494	
-0.392273	
-0.393555	
-0.393066	
-0.39325	
-0.3927	
-0.392639	
-0.391785	
-0.390808	
-0.389771	
-0.388916	
-0.390625	
-0.390259	
-0.389221	
-0.389099	
-0.390198	
-0.390137	
-0.390137	
-0.390259	
-0.390076	
-0.389954	
-0.390198	
-0.390869	
-0.390991	
-0.390198	
-0.389893	
-0.389648	
-0.389709	
-0.389343	
-0.389587	
-0.389404	
-0.389282	
-0.38916	
-0.388916	
-0.390869	
-0.390259	
-0.389099	
-0.38916	
-0.389282	
-0.388855	
-0.388062	
-0.388611	
-0.387695	
-0.387512	
-0.386658	
-0.387573	
-0.387634	
-0.387573	
-0.385925	
-0.385986	
-0.38562	
-0.385986	
-0.385559	
-0.38446	
-0.38501	
-0.38501	
-0.385193	
-0.385681	
-0.386169	
-0.385254	
-0.384155	
-0.385071	
-0.384277	
-0.385681	
-0.38623	
-0.384766	
-0.386353	
-0.386536	
-0.386292	
-0.38678	
-0.387268	
-0.386536	
-0.385864	
-0.386414	
-0.386292	
-0.387512	
-0.388	
-0.387634	
-0.387634	
-0.387817	
-0.388062	
-0.38855	
-0.389221	
-0.388428	
-0.38916	
-0.388611	
-0.389648	
-0.389343	
-0.390503	
-0.391907	
-0.392883	
-0.393188	
-0.392517	
-0.392944	
-0.392883	
-0.392517	
-0.393311	
-0.393433	
-0.393066	
-0.393677	
-0.394714	
-0.393677	
-0.394043	
-0.393799	
-0.39447	
-0.394958	
-0.39502	
-0.393738	
-0.394043	
-0.393738	
-0.394226	
-0.394104	
-0.393677	
-0.393677	
-0.393799	
-0.393616	
-0.39325	
-0.393982	
-0.39325	
-0.392517	
-0.392822	
-0.391602	
-0.3927	
-0.392822	
-0.392151	
-0.392151	
-0.392456	
-0.392578	
-0.392273	
-0.392334	
-0.391846	
-0.390869	
-0.391113	
-0.390015	
-0.390869	
-0.390747	
-0.391052	
-0.391418	
-0.390808	
-0.390564	
-0.390442	
-0.391541	
-0.389587	
-0.389954	
-0.390198	
-0.389893	
-0.388428	
-0.38739	
-0.387756	
-0.387756	
-0.38739	
-0.387512	
-0.388855	
-0.388672	
-0.38855	
-0.387512	
-0.388489	
-0.388672	
-0.389221	
-0.390015	
-0.38916	
-0.389282	
-0.389282	
-0.390869	
-0.390259	
-0.390991	
-0.390198	
-0.390991	
-0.389221	
-0.390991	
-0.390503	
-0.390808	
-0.39093	
-0.391479	
-0.39093	
-0.391357	
-0.391113	
-0.389465	
-0.388733	
-0.388977	
-0.388611	
-0.38855	
-0.388062	
-0.387756	
-0.385132	
-0.380188	
-0.378906	
-0.379578	
-0.380127	
-0.378784	
-0.381592	
-0.386597	
-0.385559	
-0.385986	
-0.386414	
-0.386353	
-0.386108	
-0.386047	
-0.385925	
-0.386963	
-0.387146	
-0.386353	
-0.387146	
-0.387756	
-0.386353	
-0.387512	
-0.388306	
-0.387756	
-0.385376	
-0.38031	
-0.379822	
-0.38147	
-0.381714	
-0.380981	
-0.383972	
-0.389771	
-0.388245	
-0.389343	
-0.39093	
-0.389954	
-0.389832	
-0.389587	
-0.391052	
-0.391724	
-0.393921	
-0.392212	
-0.391357	
-0.391174	
-0.391846	
-0.391724	
-0.392822	
-0.392212	
-0.392151	
-0.392456	
-0.393921	
-0.394226	
-0.39502	
-0.394409	
-0.393982	
-0.394287	
-0.394958	
-0.395203	
-0.394592	
-0.395264	
-0.395386	
-0.395081	
-0.39679	
-0.396912	
-0.397095	
-0.396423	
-0.396057	
-0.394958	
-0.395569	
-0.395508	
-0.394775	
-0.39447	
-0.394531	
-0.394165	
-0.394958	
-0.394714	
-0.393494	
-0.393799	
-0.393921	
-0.392761	
-0.393005	
-0.393311	
-0.392151	
-0.392334	
-0.392517	
-0.392029	
-0.392822	
-0.392883	
-0.393372	
-0.392639	
-0.393555	
-0.393677	
-0.394531	
-0.395264	
-0.395203	
-0.396545	
-0.396484	
-0.397217	
-0.398193	
-0.399658	
-0.398499	
-0.397522	
-0.396423	
-0.398376	
-0.399292	
-0.399048	
-0.400635	
-0.402039	
-0.401062	
-0.402405	
-0.402893	
-0.404114	
-0.403015	
-0.404236	
-0.404358	
-0.404663	
-0.406067	
-0.406311	
-0.407471	
-0.40863	
-0.409607	
-0.410522	
-0.409973	
-0.410095	
-0.410034	
-0.410889	
-0.411194	
-0.411011	
-0.409973	
-0.411194	
-0.410645	
-0.410706	
-0.411011	
-0.410889	
-0.410828	
-0.409607	
-0.410278	
-0.409363	
-0.410339	
-0.408325	
-0.409363	
-0.40918	
-0.408203	
-0.40979	
-0.410156	
-0.4104	
-0.409119	
-0.408936	
-0.408508	
-0.408691	
-0.408813	
-0.408325	
-0.408447	
-0.407532	
-0.407959	
-0.40863	
-0.408386	
-0.407166	
-0.408142	
-0.408936	
-0.408386	
-0.409119	
-0.407898	
-0.407288	
-0.407349	
-0.405579	
-0.407288	
-0.406433	
-0.406128	
-0.403992	
-0.404053	
-0.402893	
-0.402527	
-0.401489	
-0.400757	
-0.399597	
-0.397766	
-0.398071	
-0.396362	
-0.396729	
-0.395081	
-0.393311	
-0.392395	
-0.391907	
-0.391724	
-0.389526	
-0.390564	
-0.389221	
-0.387634	
-0.387939	
-0.386719	
-0.387146	
-0.384644	
-0.383606	
-0.382935	
-0.381714	
-0.381042	
-0.379517	
-0.379578	
-0.378296	
-0.377747	
-0.37854	
-0.376709	
-0.376892	
-0.374817	
-0.375244	
-0.373657	
-0.374084	
-0.374268	
-0.373413	
-0.373291	
-0.37323	
-0.373657	
-0.373291	
-0.373169	
-0.371643	
-0.370972	
-0.370605	
-0.368774	
-0.368347	
-0.36676	
-0.366394	
-0.363953	
-0.362488	
-0.362427	
-0.360596	
-0.359863	
-0.357605	
-0.356384	
-0.354431	
-0.353638	
-0.352966	
-0.350159	
-0.349731	
-0.348206	
-0.347351	
-0.346191	
-0.344238	
-0.342346	
-0.342529	
-0.342529	
-0.340698	
-0.342346	
-0.340637	
-0.34137	
-0.341125	
-0.341125	
-0.340881	
-0.340881	
-0.34082	
-0.338745	
-0.340271	
-0.338501	
-0.339172	
-0.339233	
-0.338806	
-0.338623	
-0.33728	
-0.339294	
-0.338379	
-0.339355	
-0.337585	
-0.338745	
-0.33783	
-0.337646	
-0.33905	
-0.33905	
-0.339783	
-0.340393	
-0.340027	
-0.341064	
-0.341858	
-0.342773	
-0.341675	
-0.343323	
-0.343872	
-0.345581	
-0.345642	
-0.34729	
-0.348022	
-0.348633	
-0.350342	
-0.352356	
-0.353577	
-0.352783	
-0.355164	
-0.355225	
-0.356873	
-0.357849	
-0.358765	
-0.360596	
-0.360596	
-0.362549	
-0.363342	
-0.364136	
-0.364014	
-0.366699	
-0.367249	
-0.369324	
-0.369263	
-0.370056	
-0.369751	
-0.369629	
-0.371338	
-0.371399	
-0.37262	
-0.371399	
-0.372681	
-0.37262	
-0.371826	
-0.373657	
-0.372498	
-0.373413	
-0.373352	
-0.373962	
-0.373657	
-0.374023	
-0.374207	
-0.372681	
-0.373535	
-0.372742	
-0.37262	
-0.373169	
-0.373474	
-0.373779	
-0.373352	
-0.375366	
-0.374695	
-0.375244	
-0.375366	
-0.375671	
-0.375854	
-0.376282	
-0.378296	
-0.377014	
-0.378235	
-0.37915	
-0.379822	
-0.380066	
-0.381287	
-0.381775	
-0.381104	
-0.382507	
-0.381348	
-0.382019	
-0.38208	
-0.382202	
-0.382507	
-0.381592	
-0.383301	
-0.382202	
-0.382996	
-0.382385	
-0.382263	
-0.380432	
-0.379883	
-0.380371	
-0.379028	
-0.379822	
-0.37915	
-0.378052	
-0.378601	
-0.378723	
-0.377747	
-0.375977	
-0.377075	
-0.375793	
-0.375916	
-0.375549	
-0.375061	
-0.375366	
-0.372864	
-0.373657	
-0.372681	
-0.373535	
-0.372925	
-0.374146	
-0.372925	
-0.372681	
-0.373718	
-0.372864	
-0.372742	
-0.372437	
-0.373352	
-0.372131	
-0.371826	
-0.371765	
-0.370972	
-0.371094	
-0.370056	
-0.370483	
-0.36908	
-0.369629	
-0.369385	
-0.368896	
-0.370239	
-0.369812	
-0.369873	
-0.369507	
-0.370056	
-0.369812	
-0.369385	
-0.371887	
-0.370483	
-0.371826	
-0.371765	
-0.372742	
-0.372925	
-0.373047	
-0.37384	
-0.373962	
-0.374023	
-0.373352	
-0.374939	
-0.374023	
-0.375183	
-0.375671	
-0.376282	
-0.376343	
-0.376343	
-0.377441	
-0.375122	
-0.377625	
-0.376099	
-0.377441	
-0.377319	
-0.377136	
-0.377686	
-0.377014	
-0.377991	
-0.37793	
-0.379456	
-0.378784	
-0.378479	
-0.379089	
-0.379883	
-0.381897	
-0.382629	
-0.382568	
-0.38269	
-0.38208	
-0.384705	
-0.384583	
-0.384888	
-0.384399	
-0.385254	
-0.385376	
-0.384827	
-0.386597	
-0.385071	
-0.386658	
-0.385925	
-0.387024	
-0.38678	
-0.386719	
-0.386841	
-0.386719	
-0.386292	
-0.38623	
-0.387756	
-0.386536	
-0.387756	
-0.387817	
-0.387939	
-0.387207	
-0.388489	
-0.388	
-0.387329	
-0.388123	
-0.387817	
-0.387756	
-0.388672	
-0.388123	
-0.389465	
-0.388	
-0.390015	
-0.389221	
-0.388916	
-0.389465	
-0.389038	
-0.38855	
-0.388428	
-0.389282	
-0.388184	
-0.388	
-0.388245	
-0.388245	
-0.387451	
-0.387695	
-0.387878	
-0.384583	
-0.384827	
-0.384521	
-0.384644	
-0.383728	
-0.385071	
-0.384216	
-0.384094	
-0.385132	
-0.384705	
-0.384338	
-0.382385	
-0.38324	
-0.381958	
-0.382751	
-0.382996	
-0.381226	
-0.382324	
-0.38147	
-0.38324	
-0.381775	
-0.382996	
-0.382629	
-0.381958	
-0.38208	
-0.381409	
-0.382446	
-0.381348	
-0.380981	
-0.381409	
-0.381775	
-0.38208	
-0.382141	
-0.381042	
-0.380188	
-0.380005	
-0.381104	
-0.378479	
-0.379333	
-0.378296	
-0.378723	
-0.377686	
-0.378479	
-0.377747	
-0.377869	
-0.378052	
-0.376709	
-0.376221	
-0.37616	
-0.377258	
-0.376221	
-0.376709	
-0.377014	
-0.377747	
-0.377747	
-0.378174	
-0.378479	
-0.377014	
-0.378723	
-0.379028	
-0.377991	
-0.379456	
-0.379272	
-0.3797	
-0.379456	
-0.380432	
-0.380798	
-0.38092	
-0.381226	
-0.380188	
-0.380676	
-0.382141	
-0.382446	
-0.381775	
-0.381897	
-0.382813	
-0.383545	
-0.384644	
-0.385437	
-0.384827	
-0.384827	
-0.385498	
-0.387939	
-0.387207	
-0.387695	
-0.38678	
-0.387207	
-0.386719	
-0.388367	
-0.388306	
-0.389038	
-0.389099	
-0.389099	
-0.389221	
-0.389648	
-0.389709	
-0.389709	
-0.389099	
-0.389038	
-0.389893	
-0.390808	
-0.390442	
-0.389832	
-0.389526	
-0.390015	
-0.390442	
-0.389465	
-0.389343	
-0.388611	
-0.389038	
-0.388245	
-0.388794	
-0.388977	
-0.38916	
-0.388916	
-0.387573	
-0.387634	
-0.388916	
-0.388184	
-0.388367	
-0.387512	
-0.388611	
-0.388062	
-0.38855	
-0.388794	
-0.388184	
-0.387451	
-0.387451	
-0.388428	
-0.387756	
-0.386597	
-0.386963	
-0.38678	
-0.385559	
-0.387146	
-0.387146	
-0.387695	
-0.38678	
-0.385742	
-0.38446	
-0.384583	
-0.38501	
-0.38501	
-0.385071	
-0.384216	
-0.385193	
-0.38562	
-0.385803	
-0.385681	
-0.385437	
-0.385986	
-0.386353	
-0.386536	
-0.385498	
-0.386047	
-0.386292	
-0.385803	
-0.387146	
-0.387939	
-0.387512	
-0.387634	
-0.387268	
-0.386963	
-0.388	
-0.388672	
-0.386597	
-0.387207	
-0.387451	
-0.387695	
-0.387512	
-0.386963	
-0.386658	
-0.38623	
-0.386536	
-0.385315	
-0.385864	
-0.384766	
-0.384766	
-0.383606	
-0.384338	
-0.384155	
-0.38446	
-0.383911	
-0.383118	
-0.38324	
-0.382629	
-0.384033	
-0.383179	
-0.382935	
-0.382568	
-0.382996	
-0.383606	
-0.383545	
-0.38446	
-0.384033	
-0.383667	
-0.384827	
-0.384827	
-0.385254	
-0.384644	
-0.38562	
-0.385742	
-0.384277	
-0.385498	
-0.386475	
-0.386658	
-0.38623	
-0.385498	
-0.386719	
-0.387329	
-0.387329	
-0.385742	
-0.38678	
-0.38678	
-0.386841	
-0.387573	
-0.389832	
-0.389893	
-0.389465	
-0.389343	
-0.388672	
-0.389832	
-0.388855	
-0.389587	
-0.388306	
-0.389221	
-0.390259	
-0.391968	
-0.39209	
-0.391174	
-0.391785	
-0.392822	
-0.393433	
-0.393433	
-0.392029	
-0.392395	
-0.392334	
-0.393127	
-0.392822	
-0.394165	
-0.393494	
-0.39386	
-0.393311	
-0.393005	
-0.393982	
-0.392517	
-0.391785	
-0.392273	
-0.391113	
-0.391968	
-0.391541	
-0.392334	
-0.391724	
-0.391235	
-0.390686	
-0.391602	
-0.391541	
-0.390503	
-0.390442	
-0.389587	
-0.390198	
-0.390137	
-0.390991	
-0.389709	
-0.38916	
-0.389465	
-0.38916	
-0.389709	
-0.389587	
-0.388611	
-0.388733	
-0.388733	
-0.38855	
-0.388672	
-0.389099	
-0.388062	
-0.387878	
-0.387146	
-0.385193	
-0.385742	
-0.385193	
-0.386047	
-0.385498	
-0.386292	
-0.38623	
-0.387024	
-0.387878	
-0.387146	
-0.387451	
-0.387146	
-0.388	
-0.387329	
-0.387207	
-0.388184	
-0.387451	
-0.387878	
-0.38855	
-0.389099	
-0.388794	
-0.389099	
-0.388672	
-0.388428	
-0.389038	
-0.388489	
-0.387085	
-0.386475	
-0.386841	
-0.387756	
-0.387634	
-0.387878	
-0.386841	
-0.386597	
-0.386597	
-0.385193	
-0.38623	
-0.384888	
-0.385132	
-0.38324	
-0.384705	
-0.384827	
-0.385071	
-0.384949	
-0.38446	
-0.384644	
-0.38385	
-0.385925	
-0.385071	
-0.384033	
-0.38501	
-0.384644	
-0.385742	
-0.385498	
-0.387329	
-0.385864	
-0.386353	
-0.388245	
-0.389343	
-0.389832	
-0.389038	
-0.387146	
-0.387512	
-0.387451	
-0.388733	
-0.388794	
-0.389526	
-0.38855	
-0.388672	
-0.388306	
-0.388733	
-0.389832	
-0.388672	
-0.388855	
-0.387695	
-0.389404	
-0.389282	
-0.390015	
-0.389832	
-0.389099	
-0.390076	
-0.389282	
-0.39032	
-0.389099	
-0.389221	
-0.389465	
-0.389221	
-0.390808	
-0.391357	
-0.391418	
-0.391663	
-0.392029	
-0.392517	
-0.391785	
-0.393005	
-0.39209	
-0.392151	
-0.391663	
-0.392883	
-0.393921	
-0.394592	
-0.394531	
-0.394104	
-0.39386	
-0.394287	
-0.393616	
-0.393799	
-0.393555	
-0.39325	
-0.391602	
-0.393188	
-0.393494	
-0.393616	
-0.393555	
-0.392761	
-0.392334	
-0.392395	
-0.393372	
-0.392761	
-0.392029	
-0.390869	
-0.391968	
-0.391602	
-0.392517	
-0.391663	
-0.391357	
-0.390869	
-0.391357	
-0.391174	
-0.391235	
-0.39032	
-0.389282	
-0.389404	
-0.389893	
-0.389282	
-0.389221	
-0.387451	
-0.387268	
-0.38678	
-0.387573	
-0.388367	
-0.388123	
-0.387085	
-0.386658	
-0.385864	
-0.386169	
-0.386841	
-0.386658	
-0.38678	
-0.386047	
-0.385681	
-0.385315	
-0.386108	
-0.38623	
-0.38446	
-0.383911	
-0.384583	
-0.385193	
-0.385681	
-0.385437	
-0.386597	
-0.384949	
-0.385864	
-0.38623	
-0.386597	
-0.385559	
-0.38562	
-0.385681	
-0.385742	
-0.386658	
-0.387512	
-0.386719	
-0.387268	
-0.386169	
-0.386536	
-0.386963	
-0.387085	
-0.385986	
-0.386414	
-0.386353	
-0.387634	
-0.387634	
-0.38855	
-0.388245	
-0.388123	
-0.387634	
-0.387634	
-0.388733	
-0.388855	
-0.387146	
-0.387695	
-0.388245	
-0.389526	
-0.390076	
-0.390198	
-0.390503	
-0.392151	
-0.393188	
-0.391418	
-0.392822	
-0.390625	
-0.391479	
-0.390564	
-0.391113	
-0.391357	
-0.391846	
-0.391846	
-0.390564	
-0.390503	
-0.39032	
-0.391418	
-0.390381	
-0.388489	
-0.389404	
-0.38855	
-0.389343	
-0.389221	
-0.388794	
-0.388306	
-0.388428	
-0.387695	
-0.388	
-0.388306	
-0.389099	
-0.388672	
-0.388916	
-0.388916	
-0.39032	
-0.391296	
-0.390991	
-0.390564	
-0.390991	
-0.391968	
-0.391846	
-0.392761	
-0.3927	
-0.393494	
-0.392517	
-0.393494	
-0.393799	
-0.394836	
-0.395142	
-0.393738	
-0.39386	
-0.393555	
-0.394775	
-0.394165	
-0.392578	
-0.392883	
-0.393066	
-0.392883	
-0.393127	
-0.392456	
-0.392761	
-0.391663	
-0.391846	
-0.391418	
-0.391479	
-0.391785	
-0.39032	
-0.39032	
-0.389648	
-0.391113	
-0.391968	
-0.39032	
-0.390503	
-0.390564	
-0.391235	
-0.389526	
-0.390259	
-0.387878	
-0.387024	
-0.386292	
-0.387817	
-0.388367	
-0.388	
-0.388489	
-0.387695	
-0.387146	
-0.387817	
-0.38855	
-0.388	
-0.386841	
-0.385437	
-0.385803	
-0.385681	
-0.386597	
-0.385315	
-0.385437	
-0.384338	
-0.384888	
-0.384827	
-0.385254	
-0.384521	
-0.383179	
-0.383179	
-0.382629	
-0.38385	
-0.38385	
-0.384399	
-0.384827	
-0.382874	
-0.385254	
-0.384155	
-0.38623	
-0.384766	
-0.385315	
-0.38446	
-0.386108	
-0.386353	
-0.386108	
-0.387329	
-0.38678	
-0.386169	
-0.387451	
-0.388	
-0.388428	
-0.386902	
-0.387756	
-0.387878	
-0.388794	
-0.388977	
-0.388	
-0.388672	
-0.388428	
-0.388672	
-0.388245	
-0.390625	
-0.390198	
-0.387939	
-0.389404	
-0.389221	
-0.390442	
-0.389587	
-0.390991	
-0.392517	
-0.390869	
-0.392456	
-0.390564	
-0.392334	
-0.391052	
-0.391663	
-0.389893	
-0.391113	
-0.391174	
-0.391296	
-0.391174	
-0.390381	
-0.389954	
-0.390686	
-0.389893	
-0.390503	
-0.389282	
-0.389709	
-0.388489	
-0.389404	
-0.389648	
-0.389832	
-0.390625	
-0.389648	
-0.390381	
-0.39032	
-0.390991	
-0.390686	
-0.389587	
-0.390747	
-0.39093	
-0.392029	
-0.392151	
-0.392639	
-0.392944	
-0.392822	
-0.394104	
-0.393005	
-0.394348	
-0.393311	
-0.393433	
-0.393188	
-0.393555	
-0.394043	
-0.39325	
-0.393433	
-0.392883	
-0.391968	
-0.392639	
-0.391785	
-0.392883	
-0.391907	
-0.391541	
-0.389771	
-0.389221	
-0.389954	
-0.38916	
-0.390259	
-0.389954	
-0.390076	
-0.389648	
-0.390381	
-0.390137	
-0.388916	
-0.389404	
-0.388672	
-0.389648	
-0.390076	
-0.389282	
-0.38916	
-0.388794	
-0.389465	
-0.388306	
-0.390808	
-0.388672	
-0.388245	
-0.388428	
-0.387634	
-0.38916	
-0.388611	
-0.38916	
-0.388123	
-0.388367	
-0.38855	
-0.386658	
-0.388916	
-0.387329	
-0.387085	
-0.386414	
-0.38678	
-0.387207	
-0.386169	
-0.387146	
-0.385742	
-0.38623	
-0.385559	
-0.385864	
-0.385437	
-0.384399	
-0.383972	
-0.382568	
-0.384583	
-0.384888	
-0.384949	
-0.384827	
-0.384155	
-0.38501	
-0.384033	
-0.385437	
-0.384766	
-0.385376	
-0.384766	
-0.38446	
-0.386292	
-0.385681	
-0.386292	
-0.38623	
-0.386047	
-0.386414	
-0.385437	
-0.387878	
-0.386597	
-0.386169	
-0.386536	
-0.387512	
-0.388123	
-0.388245	
-0.388794	
-0.387756	
-0.388306	
-0.389465	
-0.389954	
-0.38916	
-0.389099	
-0.389587	
-0.39093	
-0.392212	
-0.392944	
-0.391724	
-0.392151	
-0.392151	
-0.392578	
-0.392761	
-0.394104	
-0.393127	
-0.393188	
-0.392883	
-0.392456	
-0.393555	
-0.393921	
-0.393982	
-0.394043	
-0.392517	
-0.394287	
-0.393066	
-0.395081	
-0.393188	
-0.392761	
-0.39209	
-0.393433	
-0.393738	
-0.393494	
-0.393494	
-0.393005	
-0.391846	
-0.392212	
-0.393372	
-0.391907	
-0.391663	
-0.391174	
-0.390564	
-0.392639	
-0.392395	
-0.391418	
-0.391785	
-0.390991	
-0.390808	
-0.391052	
-0.391541	
-0.390808	
-0.390259	
-0.389954	
-0.389099	
-0.390503	
-0.390137	
-0.390137	
-0.389893	
-0.38855	
-0.389954	
-0.38916	
-0.390686	
-0.388	
-0.387024	
-0.385864	
-0.386841	
-0.388062	
-0.387939	
-0.38855	
-0.387207	
-0.387329	
-0.388245	
-0.389404	
-0.388672	
-0.387695	
-0.388	
-0.387085	
-0.389099	
-0.389221	
-0.389832	
-0.390442	
-0.389038	
-0.390015	
-0.391052	
-0.39093	
-0.390503	
-0.390259	
-0.390259	
-0.389343	
-0.391235	
-0.390442	
-0.390625	
-0.390076	
-0.388977	
-0.389343	
-0.388855	
-0.389282	
-0.387573	
-0.387634	
-0.38623	
-0.387207	
-0.387756	
-0.387329	
-0.38739	
-0.386047	
-0.385559	
-0.38562	
-0.386108	
-0.385437	
-0.384949	
-0.383789	
-0.384216	
-0.38562	
-0.38623	
-0.385376	
-0.386353	
-0.385315	
-0.385437	
-0.386353	
-0.387085	
-0.386475	
-0.386719	
-0.386963	
-0.386536	
-0.387756	
-0.387207	
-0.387756	
-0.387573	
-0.387573	
-0.387817	
-0.387939	
-0.38916	
-0.38855	
-0.388062	
-0.387695	
-0.388428	
-0.389465	
-0.389526	
-0.389771	
-0.389709	
-0.390015	
-0.391907	
-0.391907	
-0.391846	
-0.391174	
-0.389832	
-0.390625	
-0.391357	
-0.393005	
-0.392395	
-0.393372	
-0.392883	
-0.393738	
-0.394897	
-0.394836	
-0.39386	
-0.393555	
-0.393616	
-0.393494	
-0.395203	
-0.395264	
-0.395203	
-0.394958	
-0.39502	
-0.395508	
-0.395203	
-0.396484	
-0.395203	
-0.394592	
-0.394104	
-0.394287	
-0.394836	
-0.39386	
-0.393799	
-0.393372	
-0.3927	
-0.393372	
-0.392273	
-0.394226	
-0.392761	
-0.391296	
-0.391174	
-0.392151	
-0.392212	
-0.39093	
-0.392578	
-0.391235	
-0.390381	
-0.391296	
-0.391174	
-0.390869	
-0.390442	
-0.389404	
-0.389404	
-0.390198	
-0.390442	
-0.390198	
-0.390137	
-0.389465	
-0.389648	
-0.389771	
-0.390015	
-0.387146	
-0.387329	
-0.385925	
-0.387451	
-0.388	
-0.388489	
-0.387878	
-0.38855	
-0.38855	
-0.388611	
-0.389038	
-0.390198	
-0.389038	
-0.389404	
-0.388611	
-0.38916	
-0.389343	
-0.39032	
-0.390381	
-0.389954	
-0.390381	
-0.390503	
-0.391846	
-0.390381	
-0.390015	
-0.389099	
-0.388489	
-0.389832	
-0.389343	
-0.389038	
-0.389465	
-0.388184	
-0.387146	
-0.388123	
-0.388489	
-0.387329	
-0.386658	
-0.385803	
-0.385315	
-0.386047	
-0.386841	
-0.385986	
-0.387024	
-0.385254	
-0.38562	
-0.386963	
-0.387756	
-0.386475	
-0.386292	
-0.385986	
-0.386719	
-0.386963	
-0.388123	
-0.387634	
-0.387756	
-0.38739	
-0.388611	
-0.390869	
-0.390747	
-0.390686	
-0.389832	
-0.388123	
-0.390442	
-0.39032	
-0.390259	
-0.390259	
-0.390259	
-0.390198	
-0.39032	
-0.390686	
-0.390015	
-0.390137	
-0.390076	
-0.388794	
-0.390747	
-0.391235	
-0.390747	
-0.390869	
-0.39032	
-0.390808	
-0.391846	
-0.392273	
-0.39093	
-0.390747	
-0.390808	
-0.391724	
-0.392029	
-0.392822	
-0.393555	
-0.393372	
-0.392822	
-0.393372	
-0.394531	
-0.393738	
-0.393738	
-0.393677	
-0.392822	
-0.394287	
-0.394653	
-0.394653	
-0.39502	
-0.395142	
-0.394775	
-0.395874	
-0.394958	
-0.394714	
-0.394958	
-0.393982	
-0.392883	
-0.394348	
-0.395081	
-0.394531	
-0.394958	
-0.394653	
-0.393738	
-0.394592	
-0.394531	
-0.393982	
-0.393799	
-0.391846	
-0.393188	
-0.393433	
-0.394043	
-0.393005	
-0.393433	
-0.392334	
-0.392395	
-0.393127	
-0.392578	
-0.391907	
-0.391602	
-0.391174	
-0.391052	
-0.391602	
-0.391052	
-0.389893	
-0.389221	
-0.387573	
-0.388306	
-0.388672	
-0.388916	
-0.388733	
-0.387573	
-0.386963	
-0.387939	
-0.388794	
-0.388184	
-0.387695	
-0.387817	
-0.386902	
-0.38739	
-0.387085	
-0.386658	
-0.386414	
-0.385742	
-0.38501	
-0.38623	
-0.387512	
-0.386475	
-0.386658	
-0.38623	
-0.386108	
-0.387085	
-0.386536	
-0.38678	
-0.386353	
-0.387085	
-0.387024	
-0.387634	
-0.388245	
-0.387268	
-0.388	
-0.387146	
-0.387512	
-0.387817	
-0.388428	
-0.388123	
-0.387146	
-0.387695	
-0.388428	
-0.388733	
-0.389771	
-0.389648	
-0.389526	
-0.389526	
-0.390076	
-0.390442	
-0.390442	
-0.389893	
-0.389343	
-0.388733	
-0.390564	
-0.390686	
-0.390503	
-0.390869	
-0.392517	
-0.393127	
-0.393738	
-0.393372	
-0.391968	
-0.391785	
-0.392212	
-0.391418	
-0.392151	
-0.392639	
-0.392029	
-0.392395	
-0.391418	
-0.390869	
-0.392273	
-0.392334	
-0.390564	
-0.390015	
-0.390076	
-0.389648	
-0.389648	
-0.390991	
-0.389709	
-0.39032	
-0.38916	
-0.389648	
-0.389587	
-0.391052	
-0.390259	
-0.389648	
-0.390259	
-0.390808	
-0.391296	
-0.392395	
-0.391724	
-0.392944	
-0.392517	
-0.393433	
-0.393494	
-0.394165	
-0.393982	
-0.393799	
-0.392761	
-0.394531	
-0.394836	
-0.394958	
-0.394897	
-0.395325	
-0.393738	
-0.395142	
-0.395569	
-0.394836	
-0.394104	
-0.393799	
-0.392456	
-0.393799	
-0.394836	
-0.393799	
-0.393433	
-0.392639	
-0.39325	
-0.392822	
-0.393005	
-0.392334	
-0.391479	
-0.391663	
-0.391663	
-0.392151	
-0.392822	
-0.391785	
-0.391907	
-0.391052	
-0.391724	
-0.391296	
-0.391113	
-0.388855	
-0.387695	
-0.387878	
-0.389099	
-0.389771	
-0.389099	
-0.388794	
-0.389893	
-0.38855	
-0.389709	
-0.388916	
-0.389587	
-0.387939	
-0.387756	
-0.386902	
-0.387024	
-0.387573	
-0.386719	
-0.38623	
-0.385803	
-0.386047	
-0.386353	
-0.386414	
-0.38562	
-0.385254	
-0.384644	
-0.384399	
-0.385376	
-0.385864	
-0.385193	
-0.384949	
-0.385437	
-0.38623	
-0.38678	
-0.386902	
-0.386475	
-0.387024	
-0.386536	
-0.386597	
-0.387024	
-0.387939	
-0.387451	
-0.387878	
-0.38855	
-0.388428	
-0.388184	
-0.390076	
-0.388855	
-0.388306	
-0.38855	
-0.389893	
-0.390076	
-0.389343	
-0.389404	
-0.390564	
-0.389893	
-0.390503	
-0.389893	
-0.390442	
-0.390564	
-0.390686	
-0.388611	
-0.390808	
-0.391846	
-0.392456	
-0.39386	
-0.394043	
-0.392822	
-0.39325	
-0.392212	
-0.392822	
-0.392029	
-0.392273	
-0.390381	
-0.392517	
-0.392334	
-0.391724	
-0.391968	
-0.391052	
-0.391418	
-0.390808	
-0.390686	
-0.390686	
-0.389587	
-0.389832	
-0.39032	
-0.391846	
-0.390747	
-0.390686	
-0.391052	
-0.390564	
-0.391602	
-0.392212	
-0.3927	
-0.391846	
-0.391052	
-0.391968	
-0.392944	
	
