E:\DOCUMENTS AND SETTINGS\JPOTAS\MEUS DOCUMENTOS\UFRJ\RSCI-BM 12 WK SERIES\070803-RSCI-BM-11\RSCI-BM-11-REMG\070803-RSCI-BM-11-REMG-0014.ACQ
0.025000 msec/sample
1 channel
Analog input
Volts
CH1	
2000	
-0.381165	
-0.380371	
-0.380188	
-0.381653	
-0.382813	
-0.383789	
-0.384827	
-0.384644	
-0.385864	
-0.385559	
-0.387451	
-0.386658	
-0.388	
-0.387146	
-0.387756	
-0.388062	
-0.388733	
-0.389648	
-0.389771	
-0.390137	
-0.389771	
-0.389526	
-0.390991	
-0.390259	
-0.390808	
-0.389954	
-0.389587	
-0.389465	
-0.390442	
-0.390869	
-0.390198	
-0.390808	
-0.390442	
-0.390686	
-0.391052	
-0.39032	
-0.389648	
-0.388794	
-0.390076	
-0.39032	
-0.391541	
-0.392822	
-0.391785	
-0.391357	
-0.390503	
-0.391296	
-0.390869	
-0.389954	
-0.389038	
-0.387695	
-0.388794	
-0.388489	
-0.389099	
-0.388062	
-0.38739	
-0.386963	
-0.386658	
-0.38739	
-0.386108	
-0.38678	
-0.385742	
-0.384888	
-0.385315	
-0.385925	
-0.386841	
-0.385681	
-0.386658	
-0.385498	
-0.385498	
-0.386047	
-0.38678	
-0.385803	
-0.384583	
-0.384155	
-0.38446	
-0.384766	
-0.385864	
-0.386169	
-0.386963	
-0.386597	
-0.387329	
-0.387146	
-0.388306	
-0.387939	
-0.387878	
-0.388916	
-0.388367	
-0.389221	
-0.388733	
-0.389771	
-0.388611	
-0.388733	
-0.389771	
-0.389404	
-0.389282	
-0.389587	
-0.389282	
-0.388489	
-0.389465	
-0.390869	
-0.389709	
-0.391052	
-0.390503	
-0.390503	
-0.391541	
-0.391113	
-0.390625	
-0.390442	
-0.389954	
-0.389587	
-0.39093	
-0.391968	
-0.391052	
-0.391418	
-0.390198	
-0.39093	
-0.391296	
-0.391296	
-0.390381	
-0.389709	
-0.390137	
-0.390381	
-0.390198	
-0.389771	
-0.389465	
-0.389038	
-0.388123	
-0.387756	
-0.388062	
-0.387329	
-0.386169	
-0.385071	
-0.38501	
-0.385376	
-0.385986	
-0.385437	
-0.385254	
-0.384583	
-0.383972	
-0.384766	
-0.384888	
-0.384705	
-0.384338	
-0.382385	
-0.384033	
-0.384827	
-0.385803	
-0.385315	
-0.385559	
-0.385376	
-0.385986	
-0.387146	
-0.386414	
-0.386841	
-0.386719	
-0.387085	
-0.387207	
-0.389099	
-0.388916	
-0.389648	
-0.39032	
-0.389771	
-0.39093	
-0.392029	
-0.392578	
-0.392029	
-0.391968	
-0.3927	
-0.393005	
-0.393311	
-0.393616	
-0.394714	
-0.394653	
-0.39386	
-0.39563	
-0.396423	
-0.397095	
-0.395508	
-0.394043	
-0.395813	
-0.395264	
-0.3974	
-0.397583	
-0.398193	
-0.396851	
-0.396545	
-0.397217	
-0.397217	
-0.39679	
-0.395874	
-0.39325	
-0.394043	
-0.395325	
-0.39502	
-0.394043	
-0.394287	
-0.393372	
-0.390381	
-0.385376	
-0.384766	
-0.384766	
-0.384888	
-0.383423	
-0.386414	
-0.391846	
-0.391724	
-0.392273	
-0.390808	
-0.390076	
-0.390686	
-0.391663	
-0.391113	
-0.389954	
-0.388916	
-0.389709	
-0.389832	
-0.390137	
-0.390137	
-0.389709	
-0.38916	
-0.389282	
-0.390015	
-0.390015	
-0.390198	
-0.38855	
-0.385864	
-0.387451	
-0.388123	
-0.388672	
-0.389587	
-0.389587	
-0.389771	
-0.390381	
-0.391052	
-0.391113	
-0.391357	
-0.39032	
-0.390686	
-0.390869	
-0.391907	
-0.391724	
-0.392273	
-0.391724	
-0.391174	
-0.392578	
-0.39386	
-0.39325	
-0.393127	
-0.392334	
-0.393127	
-0.393005	
-0.393799	
-0.394653	
-0.395874	
-0.395325	
-0.394897	
-0.395386	
-0.395569	
-0.395264	
-0.394897	
-0.393677	
-0.394287	
-0.39386	
-0.394958	
-0.394348	
-0.394226	
-0.393005	
-0.393433	
-0.392456	
-0.392456	
-0.39325	
-0.391663	
-0.389893	
-0.390564	
-0.390808	
-0.390869	
-0.390442	
-0.389465	
-0.388977	
-0.388855	
-0.389648	
-0.388489	
-0.388916	
-0.388123	
-0.387878	
-0.388611	
-0.390259	
-0.39093	
-0.391052	
-0.391235	
-0.391357	
-0.392517	
-0.395264	
-0.395081	
-0.395813	
-0.39624	
-0.397644	
-0.398315	
-0.400757	
-0.401245	
-0.402222	
-0.403076	
-0.403687	
-0.40625	
-0.406677	
-0.406738	
-0.407349	
-0.408203	
-0.408386	
-0.410461	
-0.412292	
-0.413757	
-0.414612	
-0.415039	
-0.418518	
-0.419373	
-0.420654	
-0.421753	
-0.422119	
-0.422363	
-0.425232	
-0.42688	
-0.426697	
-0.427917	
-0.428467	
-0.430725	
-0.431946	
-0.432312	
-0.431885	
-0.4328	
-0.432739	
-0.433594	
-0.433411	
-0.433716	
-0.434143	
-0.434082	
-0.432861	
-0.433716	
-0.434326	
-0.433167	
-0.433228	
-0.432495	
-0.431641	
-0.432495	
-0.432251	
-0.430725	
-0.430359	
-0.428833	
-0.429688	
-0.428833	
-0.429199	
-0.427368	
-0.425842	
-0.426636	
-0.426086	
-0.426147	
-0.424988	
-0.424255	
-0.423157	
-0.422607	
-0.423523	
-0.422852	
-0.421753	
-0.421143	
-0.420593	
-0.420471	
-0.420715	
-0.419617	
-0.41864	
-0.417236	
-0.416565	
-0.415771	
-0.41333	
-0.411316	
-0.410339	
-0.409119	
-0.408875	
-0.409241	
-0.408997	
-0.406982	
-0.405457	
-0.40448	
-0.403931	
-0.403503	
-0.401306	
-0.398254	
-0.397522	
-0.396851	
-0.394104	
-0.394287	
-0.393677	
-0.391724	
-0.390442	
-0.387695	
-0.387451	
-0.38678	
-0.385803	
-0.38269	
-0.381104	
-0.381592	
-0.38092	
-0.38031	
-0.379456	
-0.377869	
-0.377441	
-0.377014	
-0.377014	
-0.377258	
-0.377197	
-0.376953	
-0.374451	
-0.373413	
-0.373291	
-0.373535	
-0.370728	
-0.368591	
-0.367249	
-0.365417	
-0.364258	
-0.362305	
-0.360901	
-0.359436	
-0.358154	
-0.357788	
-0.357422	
-0.355957	
-0.354736	
-0.353577	
-0.353088	
-0.353088	
-0.351868	
-0.351196	
-0.350464	
-0.350342	
-0.350098	
-0.350342	
-0.350525	
-0.349915	
-0.349426	
-0.35022	
-0.351135	
-0.349915	
-0.34967	
-0.350281	
-0.350586	
-0.350647	
-0.35199	
-0.352356	
-0.352417	
-0.351318	
-0.351624	
-0.352905	
-0.352722	
-0.352844	
-0.35321	
-0.3526	
-0.353149	
-0.354736	
-0.356873	
-0.355896	
-0.356689	
-0.35675	
-0.358093	
-0.359131	
-0.359436	
-0.360107	
-0.360229	
-0.360474	
-0.362	
-0.363586	
-0.362488	
-0.363464	
-0.363281	
-0.364807	
-0.364929	
-0.364807	
-0.364624	
-0.365295	
-0.366272	
-0.365356	
-0.367737	
-0.366821	
-0.367371	
-0.367249	
-0.367249	
-0.368652	
-0.368164	
-0.368713	
-0.368713	
-0.369141	
-0.36908	
-0.370728	
-0.370056	
-0.36969	
-0.369568	
-0.369385	
-0.36969	
-0.369141	
-0.368225	
-0.368286	
-0.368408	
-0.367981	
-0.368469	
-0.368347	
-0.367554	
-0.36731	
-0.366943	
-0.367981	
-0.367065	
-0.366577	
-0.36554	
-0.365967	
-0.365723	
-0.366211	
-0.36554	
-0.363953	
-0.364807	
-0.365295	
-0.366272	
-0.367126	
-0.368103	
-0.367676	
-0.366333	
-0.367798	
-0.368958	
-0.370605	
-0.369629	
-0.369202	
-0.369995	
-0.371338	
-0.372375	
-0.37146	
-0.372253	
-0.372925	
-0.373535	
-0.372986	
-0.374573	
-0.374756	
-0.375122	
-0.375793	
-0.375244	
-0.376343	
-0.377014	
-0.378357	
-0.376587	
-0.377747	
-0.377991	
-0.378601	
-0.379272	
-0.378845	
-0.378601	
-0.378784	
-0.379883	
-0.378784	
-0.380066	
-0.379028	
-0.377686	
-0.37793	
-0.379456	
-0.380676	
-0.380188	
-0.379028	
-0.378662	
-0.37738	
-0.377991	
-0.376892	
-0.376099	
-0.375732	
-0.374695	
-0.374634	
-0.375366	
-0.375916	
-0.375183	
-0.375183	
-0.374268	
-0.373474	
-0.375183	
-0.375	
-0.373474	
-0.373413	
-0.373535	
-0.373962	
-0.375061	
-0.374451	
-0.37262	
-0.371948	
-0.372131	
-0.372925	
-0.372192	
-0.372559	
-0.372925	
-0.372925	
-0.372253	
-0.374512	
-0.374573	
-0.374084	
-0.374146	
-0.375183	
-0.375366	
-0.375427	
-0.376648	
-0.375854	
-0.375793	
-0.37738	
-0.378906	
-0.379761	
-0.380127	
-0.38031	
-0.380615	
-0.380676	
-0.382019	
-0.382019	
-0.382385	
-0.381836	
-0.382263	
-0.382874	
-0.382996	
-0.383057	
-0.382751	
-0.382874	
-0.382629	
-0.381836	
-0.382019	
-0.382813	
-0.380554	
-0.380798	
-0.381592	
-0.381531	
-0.381897	
-0.381287	
-0.380493	
-0.380249	
-0.380859	
-0.380798	
-0.380249	
-0.380127	
-0.37915	
-0.380066	
-0.378601	
-0.380127	
-0.380066	
-0.379944	
-0.379639	
-0.378479	
-0.3797	
-0.37854	
-0.379395	
-0.378235	
-0.377502	
-0.377808	
-0.378113	
-0.378662	
-0.378296	
-0.377808	
-0.377991	
-0.377991	
-0.378784	
-0.37793	
-0.376282	
-0.377197	
-0.377808	
-0.377625	
-0.378784	
-0.378174	
-0.378113	
-0.378479	
-0.379639	
-0.379395	
-0.379639	
-0.3797	
-0.380127	
-0.380859	
-0.381287	
-0.383179	
-0.382507	
-0.38208	
-0.383484	
-0.383423	
-0.38446	
-0.384033	
-0.38385	
-0.383911	
-0.384583	
-0.384033	
-0.385132	
-0.385742	
-0.385437	
-0.384888	
-0.385071	
-0.38501	
-0.385193	
-0.384949	
-0.384216	
-0.383484	
-0.383972	
-0.384338	
-0.384827	
-0.383484	
-0.383545	
-0.382446	
-0.382751	
-0.383606	
-0.382996	
-0.381409	
-0.381958	
-0.382141	
-0.381897	
-0.384766	
-0.38446	
-0.383789	
-0.382507	
-0.382019	
-0.382507	
-0.38269	
-0.381653	
-0.381226	
-0.379578	
-0.380066	
-0.380188	
-0.380371	
-0.379517	
-0.379028	
-0.377869	
-0.378113	
-0.379211	
-0.378723	
-0.376526	
-0.377319	
-0.376953	
-0.377869	
-0.378418	
-0.377563	
-0.377319	
-0.377075	
-0.377319	
-0.377625	
-0.378479	
-0.377319	
-0.377747	
-0.377258	
-0.376282	
-0.37738	
-0.37854	
-0.378174	
-0.379211	
-0.378723	
-0.379456	
-0.380127	
-0.380981	
-0.381042	
-0.380676	
-0.380615	
-0.382141	
-0.38269	
-0.383179	
-0.382324	
-0.382935	
-0.382996	
-0.382935	
-0.384521	
-0.382507	
-0.383789	
-0.383728	
-0.382935	
-0.384033	
-0.384949	
-0.385132	
-0.384033	
-0.384949	
-0.38501	
-0.385559	
-0.386597	
-0.385132	
-0.385742	
-0.385559	
-0.385681	
-0.386963	
-0.387024	
-0.386108	
-0.385803	
-0.385986	
-0.385986	
-0.386292	
-0.385559	
-0.386047	
-0.385742	
-0.384277	
-0.38562	
-0.386169	
-0.385193	
-0.384705	
-0.384399	
-0.38324	
-0.383728	
-0.38446	
-0.382507	
-0.382568	
-0.381165	
-0.381897	
-0.382202	
-0.382263	
-0.381226	
-0.381287	
-0.381409	
-0.380981	
-0.381165	
-0.380188	
-0.379944	
-0.380249	
-0.379272	
-0.38092	
-0.380676	
-0.380676	
-0.380798	
-0.380188	
-0.381409	
-0.381714	
-0.382813	
-0.382629	
-0.382202	
-0.38269	
-0.383362	
-0.38446	
-0.384827	
-0.38446	
-0.385071	
-0.385376	
-0.386292	
-0.386536	
-0.38562	
-0.387451	
-0.38739	
-0.386902	
-0.388428	
-0.389282	
-0.389526	
-0.389404	
-0.390076	
-0.390564	
-0.391235	
-0.392883	
-0.39032	
-0.390991	
-0.390991	
-0.391968	
-0.391968	
-0.391907	
-0.391724	
-0.392517	
-0.394287	
-0.394287	
-0.394348	
-0.393066	
-0.392883	
-0.392334	
-0.391846	
-0.392761	
-0.392822	
-0.391296	
-0.391113	
-0.389893	
-0.390564	
-0.39032	
-0.390808	
-0.388245	
-0.388855	
-0.388306	
-0.388916	
-0.389526	
-0.388855	
-0.388245	
-0.387573	
-0.38739	
-0.387573	
-0.38739	
-0.386353	
-0.38623	
-0.387085	
-0.385437	
-0.387573	
-0.387573	
-0.386658	
-0.385864	
-0.386108	
-0.387634	
-0.38678	
-0.387451	
-0.386169	
-0.386475	
-0.385803	
-0.386536	
-0.386169	
-0.384766	
-0.384766	
-0.384094	
-0.386841	
-0.38739	
-0.388184	
-0.387329	
-0.388	
-0.38739	
-0.386963	
-0.388794	
-0.388794	
-0.388916	
-0.388672	
-0.387695	
-0.390137	
-0.389221	
-0.39093	
-0.389343	
-0.389771	
-0.389709	
-0.390747	
-0.392334	
-0.390686	
-0.390503	
-0.389954	
-0.391724	
-0.392578	
-0.393616	
-0.393799	
-0.391663	
-0.392334	
-0.391418	
-0.393433	
-0.392639	
-0.39209	
-0.39209	
-0.389771	
-0.392822	
-0.392273	
-0.392822	
-0.39032	
-0.391113	
-0.390076	
-0.39032	
-0.390808	
-0.389099	
-0.388611	
-0.387817	
-0.388123	
-0.387512	
-0.387085	
-0.387024	
-0.385315	
-0.385498	
-0.383606	
-0.386414	
-0.385193	
-0.384338	
-0.384766	
-0.38324	
-0.385315	
-0.384705	
-0.385742	
-0.384705	
-0.385437	
-0.384338	
-0.385376	
-0.387634	
-0.38501	
-0.386047	
-0.385559	
-0.387146	
-0.38678	
-0.387939	
-0.387634	
-0.387329	
-0.388428	
-0.387573	
-0.389771	
-0.390015	
-0.389893	
-0.390015	
-0.389343	
-0.39209	
-0.392029	
-0.393921	
-0.392822	
-0.393921	
-0.39325	
-0.394836	
-0.396423	
-0.395386	
-0.395752	
-0.395386	
-0.396362	
-0.396729	
-0.397644	
-0.39801	
-0.397278	
-0.397827	
-0.397034	
-0.398621	
-0.399292	
-0.398621	
-0.397766	
-0.390137	
-0.390747	
-0.390015	
-0.390808	
-0.389282	
-0.388672	
-0.394653	
-0.394714	
-0.395874	
-0.394348	
-0.393494	
-0.39325	
-0.391357	
-0.391663	
-0.390625	
-0.392517	
-0.390503	
-0.390015	
-0.389404	
-0.390198	
-0.390625	
-0.388977	
-0.388672	
-0.387573	
-0.388245	
-0.388977	
-0.38855	
-0.388916	
-0.387024	
-0.387939	
-0.387085	
-0.388367	
-0.388	
-0.388184	
-0.388916	
-0.387451	
-0.388977	
-0.389099	
-0.389832	
-0.388184	
-0.388489	
-0.386841	
-0.387512	
-0.388672	
-0.387939	
-0.388733	
-0.388062	
-0.38855	
-0.389099	
-0.389343	
-0.390015	
-0.389648	
-0.390137	
-0.389526	
-0.391357	
-0.392029	
-0.39093	
-0.391174	
-0.391846	
-0.392944	
-0.39209	
-0.392761	
-0.392639	
-0.3927	
-0.393494	
-0.391968	
-0.394714	
-0.39325	
-0.393005	
-0.393188	
-0.392517	
-0.393127	
-0.393433	
-0.393738	
-0.391296	
-0.391907	
-0.393005	
-0.394043	
-0.394104	
-0.392883	
-0.392151	
-0.390503	
-0.39209	
-0.391052	
-0.391724	
-0.391052	
-0.391174	
-0.391052	
-0.390076	
-0.393066	
-0.392517	
-0.3927	
-0.393311	
-0.392883	
-0.396362	
-0.395874	
-0.398499	
-0.39679	
-0.398071	
-0.398071	
-0.400146	
-0.401184	
-0.400818	
-0.401855	
-0.40094	
-0.404114	
-0.404175	
-0.405518	
-0.404846	
-0.404419	
-0.404724	
-0.405762	
-0.407959	
-0.407349	
-0.407593	
-0.40863	
-0.410583	
-0.41156	
-0.413513	
-0.413513	
-0.414978	
-0.415344	
-0.416748	
-0.419312	
-0.419189	
-0.419983	
-0.420288	
-0.421387	
-0.422791	
-0.424927	
-0.424133	
-0.425415	
-0.425598	
-0.427429	
-0.428406	
-0.428101	
-0.428345	
-0.428833	
-0.42981	
-0.431091	
-0.432312	
-0.432068	
-0.432922	
-0.432312	
-0.432617	
-0.434082	
-0.433044	
-0.432861	
-0.431091	
-0.431641	
-0.431702	
-0.431274	
-0.430542	
-0.428711	
-0.427307	
-0.427307	
-0.427185	
-0.425354	
-0.423767	
-0.422363	
-0.420166	
-0.420227	
-0.419861	
-0.418457	
-0.415588	
-0.4151	
-0.413818	
-0.412964	
-0.411865	
-0.411011	
-0.409119	
-0.407166	
-0.408875	
-0.407288	
-0.407227	
-0.404297	
-0.403931	
-0.402649	
-0.402344	
-0.402161	
-0.399353	
-0.397888	
-0.394836	
-0.393433	
-0.391113	
-0.390869	
-0.388062	
-0.387024	
-0.38501	
-0.383545	
-0.383484	
-0.381531	
-0.37915	
-0.377747	
-0.376404	
-0.375061	
-0.373535	
-0.372986	
-0.369507	
-0.369446	
-0.367859	
-0.368225	
-0.368835	
-0.36676	
-0.367188	
-0.366455	
-0.368713	
-0.367126	
-0.368225	
-0.367126	
-0.367004	
-0.366455	
-0.366089	
-0.365967	
-0.364563	
-0.363342	
-0.362549	
-0.359314	
-0.360107	
-0.359375	
-0.357422	
-0.355347	
-0.356018	
-0.353821	
-0.355225	
-0.354431	
-0.353516	
-0.353943	
-0.353149	
-0.353455	
-0.353271	
-0.352417	
-0.350403	
-0.351196	
-0.349609	
-0.350891	
-0.350525	
-0.350769	
-0.350586	
-0.349792	
-0.350891	
-0.350708	
-0.35083	
-0.349792	
-0.35022	
-0.35022	
-0.350891	
-0.351257	
-0.350586	
-0.350098	
-0.349243	
-0.350464	
-0.349854	
-0.347961	
-0.346619	
-0.346924	
-0.347473	
-0.347595	
-0.348389	
-0.348389	
-0.348511	
-0.348511	
-0.349426	
-0.349976	
-0.350525	
-0.350464	
-0.349304	
-0.35083	
-0.351318	
-0.352722	
-0.352539	
-0.352783	
-0.353149	
-0.354492	
-0.355469	
-0.356384	
-0.356262	
-0.356445	
-0.356995	
-0.359985	
-0.361938	
-0.362061	
-0.362427	
-0.363098	
-0.364502	
-0.365417	
-0.367188	
-0.366638	
-0.366821	
-0.36731	
-0.36853	
-0.369812	
-0.368896	
-0.369568	
-0.36969	
-0.369629	
-0.369507	
-0.370911	
-0.369507	
-0.369873	
-0.368652	
-0.368774	
-0.369141	
-0.369019	
-0.367981	
-0.367676	
-0.368103	
-0.367615	
-0.368347	
-0.36676	
-0.366028	
-0.365173	
-0.365479	
-0.366394	
-0.365417	
-0.364136	
-0.363953	
-0.363953	
-0.364136	
-0.364502	
-0.363586	
-0.363525	
-0.363464	
-0.36261	
-0.364441	
-0.364258	
-0.363159	
-0.363037	
-0.36377	
-0.363831	
-0.36377	
-0.364807	
-0.363403	
-0.364197	
-0.364075	
-0.365051	
-0.36554	
-0.365295	
-0.36615	
-0.366394	
-0.368591	
-0.368958	
-0.37085	
-0.369751	
-0.370361	
-0.371094	
-0.371765	
-0.372681	
-0.373596	
-0.373596	
-0.373657	
-0.374512	
-0.375488	
-0.375916	
-0.375427	
-0.375671	
-0.375732	
-0.375488	
-0.377563	
-0.377136	
-0.377075	
-0.376831	
-0.376892	
-0.376892	
-0.377625	
-0.377502	
-0.377502	
-0.376953	
-0.376404	
-0.377747	
-0.377258	
-0.376892	
-0.377258	
-0.37738	
-0.376953	
-0.378845	
-0.380615	
-0.379211	
-0.37915	
-0.378601	
-0.378906	
-0.378784	
-0.378723	
-0.377258	
-0.378113	
-0.37793	
-0.37793	
-0.377319	
-0.377625	
-0.377258	
-0.376282	
-0.37677	
-0.376099	
-0.376709	
-0.375977	
-0.376099	
-0.375793	
-0.375854	
-0.37616	
-0.375793	
-0.374817	
-0.375427	
-0.375671	
-0.376282	
-0.376038	
-0.375977	
-0.375916	
-0.376648	
-0.37439	
-0.375366	
-0.375305	
-0.374817	
-0.37616	
-0.376038	
-0.376892	
-0.377563	
-0.379089	
-0.378235	
-0.379028	
-0.379578	
-0.379639	
-0.380981	
-0.379517	
-0.380127	
-0.380127	
-0.380249	
-0.380249	
-0.38147	
-0.380554	
-0.381165	
-0.382507	
-0.381226	
-0.381531	
-0.381958	
-0.38208	
-0.382202	
-0.381287	
-0.381592	
-0.383118	
-0.382751	
-0.382446	
-0.38324	
-0.38208	
-0.38385	
-0.383484	
-0.382874	
-0.383972	
-0.383118	
-0.382874	
-0.384094	
-0.384766	
-0.382568	
-0.383911	
-0.38446	
-0.383301	
-0.384644	
-0.383789	
-0.383057	
-0.382568	
-0.382446	
-0.382263	
-0.382019	
-0.381348	
-0.380554	
-0.381042	
-0.380371	
-0.379822	
-0.380066	
-0.3797	
-0.378845	
-0.378235	
-0.379333	
-0.379089	
-0.378601	
-0.378235	
-0.378784	
-0.378296	
-0.377869	
-0.378784	
-0.378052	
-0.378967	
-0.378479	
-0.378052	
-0.379272	
-0.378967	
-0.379944	
-0.380371	
-0.3797	
-0.38092	
-0.382385	
-0.381653	
-0.381958	
-0.381775	
-0.38208	
-0.383179	
-0.384277	
-0.384827	
-0.385071	
-0.386169	
-0.386292	
-0.387024	
-0.387207	
-0.387268	
-0.388245	
-0.387695	
-0.388	
-0.389221	
-0.389526	
-0.389771	
-0.390137	
-0.389404	
-0.391113	
-0.391479	
-0.390503	
-0.391602	
-0.390747	
-0.390869	
-0.392395	
-0.39325	
-0.392944	
-0.392456	
-0.391846	
-0.391846	
-0.392273	
-0.390869	
-0.391296	
-0.390381	
-0.389221	
-0.389526	
-0.389832	
-0.38916	
-0.388794	
-0.388367	
-0.388245	
-0.388367	
-0.388428	
-0.386719	
-0.387817	
-0.386902	
-0.386536	
-0.38623	
-0.386475	
-0.386108	
-0.386108	
-0.385986	
-0.385742	
-0.386169	
-0.38501	
-0.385315	
-0.384521	
-0.385132	
-0.385315	
-0.385681	
-0.384949	
-0.384583	
-0.385681	
-0.385315	
-0.385315	
-0.385193	
-0.384644	
-0.382507	
-0.382446	
-0.383057	
-0.384644	
-0.38501	
-0.385498	
-0.385376	
-0.386536	
-0.386414	
-0.38678	
-0.385742	
-0.386841	
-0.385254	
-0.387268	
-0.38678	
-0.387451	
-0.387329	
-0.387573	
-0.388123	
-0.388489	
-0.389221	
-0.388489	
-0.389648	
-0.388672	
-0.388367	
-0.389099	
-0.389648	
-0.390442	
-0.391235	
-0.391785	
-0.392151	
-0.39209	
-0.391602	
-0.390259	
-0.390991	
-0.389709	
-0.390686	
-0.389648	
-0.390503	
-0.390442	
-0.389954	
-0.390015	
-0.390564	
-0.390015	
-0.388794	
-0.389099	
-0.387512	
-0.388123	
-0.38678	
-0.387512	
-0.38678	
-0.386353	
-0.385071	
-0.38623	
-0.386353	
-0.385193	
-0.38446	
-0.384216	
-0.384094	
-0.383789	
-0.384949	
-0.384155	
-0.384216	
-0.383728	
-0.385803	
-0.384521	
-0.385071	
-0.384949	
-0.384766	
-0.384399	
-0.385315	
-0.385864	
-0.385681	
-0.386169	
-0.386658	
-0.386597	
-0.387756	
-0.388428	
-0.387695	
-0.388794	
-0.387756	
-0.388733	
-0.388672	
-0.390747	
-0.390137	
-0.390259	
-0.392212	
-0.393188	
-0.394592	
-0.393738	
-0.394043	
-0.393799	
-0.394531	
-0.394714	
-0.395325	
-0.395447	
-0.395935	
-0.395996	
-0.396545	
-0.397522	
-0.39801	
-0.397949	
-0.396606	
-0.397339	
-0.39801	
-0.398254	
-0.398254	
-0.397339	
-0.397827	
-0.396973	
-0.397217	
-0.397888	
-0.395264	
-0.394409	
-0.393982	
-0.393188	
-0.392456	
-0.392212	
-0.392151	
-0.390686	
-0.390625	
-0.391174	
-0.390686	
-0.389709	
-0.38916	
-0.388977	
-0.387146	
-0.387695	
-0.386475	
-0.388733	
-0.388062	
-0.387268	
-0.387024	
-0.388	
-0.387878	
-0.386902	
-0.386597	
-0.385864	
-0.386658	
-0.38623	
-0.387329	
-0.387756	
-0.38739	
-0.387024	
-0.387329	
-0.388062	
-0.388062	
-0.387817	
-0.38501	
-0.385071	
-0.386353	
-0.387207	
-0.387756	
-0.388123	
-0.387451	
-0.388306	
-0.388245	
-0.390015	
-0.389404	
-0.388062	
-0.389282	
-0.389954	
-0.389587	
-0.389954	
-0.391602	
-0.391113	
-0.391235	
-0.392151	
-0.392273	
-0.392395	
-0.392395	
-0.391541	
-0.391235	
-0.392029	
-0.392456	
-0.393127	
-0.392944	
-0.392517	
-0.3927	
-0.393311	
-0.392456	
-0.391968	
-0.391235	
-0.392944	
-0.393005	
-0.392395	
-0.391968	
-0.392639	
-0.390747	
-0.390747	
-0.391785	
-0.390381	
-0.390076	
-0.389709	
-0.389648	
-0.388062	
-0.388855	
-0.388977	
-0.389404	
-0.388916	
-0.388306	
-0.389221	
-0.388367	
-0.389771	
-0.388123	
-0.387268	
-0.388245	
-0.388	
-0.387146	
-0.387634	
-0.388672	
-0.387451	
-0.388	
-0.387817	
-0.387024	
-0.387939	
-0.387329	
-0.38678	
-0.386719	
-0.387146	
-0.387024	
-0.387573	
-0.386719	
-0.386902	
-0.387268	
-0.385986	
-0.387878	
-0.387512	
-0.386902	
-0.387085	
-0.388245	
-0.387878	
-0.388428	
-0.389709	
-0.389404	
-0.389771	
-0.391052	
-0.391357	
-0.390991	
-0.390503	
-0.392212	
-0.39093	
-0.392029	
-0.392456	
-0.393188	
-0.392639	
-0.392883	
-0.394226	
-0.393677	
-0.394165	
-0.393677	
-0.392639	
-0.393738	
-0.392761	
-0.391907	
-0.393372	
-0.393555	
-0.392578	
-0.393005	
-0.393005	
-0.392273	
-0.392456	
-0.391907	
-0.390686	
-0.39032	
-0.390503	
-0.389587	
-0.389404	
-0.389038	
-0.388672	
-0.388794	
-0.387268	
-0.387756	
-0.386353	
-0.386597	
-0.385498	
-0.38501	
-0.384277	
-0.384827	
-0.38446	
-0.383423	
-0.383667	
-0.383545	
-0.383118	
-0.382813	
-0.381653	
-0.382202	
-0.381897	
-0.381531	
-0.380371	
-0.380859	
-0.380798	
-0.380554	
-0.38147	
-0.382141	
-0.382385	
-0.382751	
-0.380615	
-0.382874	
-0.382507	
-0.382935	
-0.383362	
-0.384094	
-0.383911	
-0.384827	
-0.385559	
-0.385742	
-0.386475	
-0.385315	
-0.385437	
-0.384888	
-0.385315	
-0.386414	
-0.387573	
-0.387207	
-0.38739	
-0.389343	
-0.387878	
-0.388672	
-0.387695	
-0.388428	
-0.388184	
-0.387817	
-0.38855	
-0.38916	
-0.388977	
-0.388977	
-0.388916	
-0.388672	
-0.389282	
-0.390442	
-0.389099	
-0.389099	
-0.388855	
-0.389587	
-0.391541	
-0.391968	
-0.389709	
-0.389771	
-0.389465	
-0.388489	
-0.388489	
-0.388367	
-0.387817	
-0.387146	
-0.386963	
-0.387329	
-0.387817	
-0.387573	
-0.386475	
-0.386536	
-0.386353	
-0.387207	
-0.385986	
-0.383545	
-0.38562	
-0.385315	
-0.384033	
-0.384827	
-0.385071	
-0.383118	
-0.382813	
-0.38385	
-0.382874	
-0.383545	
-0.383484	
-0.383484	
-0.383423	
-0.382751	
-0.383911	
-0.384155	
-0.384155	
-0.384277	
-0.384705	
-0.384827	
-0.384644	
-0.385803	
-0.385437	
-0.386292	
-0.385986	
-0.385437	
-0.387573	
-0.388245	
-0.388062	
-0.38855	
-0.389893	
-0.388489	
-0.390198	
-0.389954	
-0.390015	
-0.390686	
-0.389343	
-0.390686	
-0.391052	
-0.391724	
-0.391113	
-0.391663	
-0.390686	
-0.39032	
-0.391174	
-0.39032	
-0.390259	
-0.389832	
-0.388672	
-0.389771	
-0.389404	
-0.389221	
-0.388672	
-0.388489	
-0.387512	
-0.387512	
-0.386902	
-0.385803	
-0.386658	
-0.384583	
-0.385864	
-0.385437	
-0.385803	
-0.38501	
-0.383789	
-0.384155	
-0.382813	
-0.383545	
-0.381104	
-0.38147	
-0.380676	
-0.380859	
-0.380554	
-0.380615	
-0.380127	
-0.379578	
-0.380188	
-0.378906	
-0.378418	
-0.377991	
-0.378174	
-0.377747	
-0.375916	
-0.378052	
-0.378601	
-0.379028	
-0.378418	
	
