E:\DOCUMENTS AND SETTINGS\JPOTAS\MEUS DOCUMENTOS\UFRJ\RSCI-BM 12 WK SERIES\070803-RSCI-BM-11\RSCI-BM-11-REMG\070803-RSCI-BM-11-REMG-0009.ACQ
0.025000 msec/sample
1 channel
Analog input
Volts
CH1	
2000	
-0.395752	
-0.395447	
-0.395874	
-0.394287	
-0.393188	
-0.393921	
-0.394775	
-0.394409	
-0.394226	
-0.394165	
-0.393799	
-0.393372	
-0.394653	
-0.394043	
-0.392883	
-0.391357	
-0.390503	
-0.391113	
-0.391418	
-0.39032	
-0.389954	
-0.390198	
-0.390869	
-0.390137	
-0.391357	
-0.390991	
-0.390076	
-0.38855	
-0.389282	
-0.389343	
-0.389526	
-0.389221	
-0.388733	
-0.389648	
-0.388916	
-0.389038	
-0.389038	
-0.389587	
-0.388672	
-0.386353	
-0.388794	
-0.388245	
-0.389282	
-0.389526	
-0.388	
-0.389282	
-0.389282	
-0.390259	
-0.389648	
-0.390381	
-0.389282	
-0.38739	
-0.389709	
-0.390076	
-0.389771	
-0.389709	
-0.388855	
-0.389771	
-0.390198	
-0.391418	
-0.390442	
-0.391418	
-0.389954	
-0.389954	
-0.388611	
-0.387817	
-0.387695	
-0.387573	
-0.387573	
-0.387817	
-0.387817	
-0.388794	
-0.388306	
-0.387756	
-0.386841	
-0.387207	
-0.386719	
-0.386719	
-0.386963	
-0.386414	
-0.385254	
-0.385864	
-0.386292	
-0.38678	
-0.387329	
-0.385559	
-0.38446	
-0.385864	
-0.386353	
-0.385437	
-0.385864	
-0.385986	
-0.386414	
-0.386414	
-0.387634	
-0.386963	
-0.387695	
-0.386597	
-0.386169	
-0.387024	
-0.387573	
-0.388123	
-0.388306	
-0.387756	
-0.389587	
-0.39093	
-0.391541	
-0.391174	
-0.390259	
-0.389587	
-0.388733	
-0.388855	
-0.389954	
-0.390076	
-0.389893	
-0.38855	
-0.390381	
-0.390869	
-0.391357	
-0.391663	
-0.390747	
-0.389343	
-0.390869	
-0.391296	
-0.390686	
-0.391174	
-0.391235	
-0.391785	
-0.391479	
-0.391846	
-0.393127	
-0.391907	
-0.39093	
-0.39032	
-0.390015	
-0.391785	
-0.390625	
-0.390198	
-0.390503	
-0.390259	
-0.390076	
-0.390625	
-0.39093	
-0.390625	
-0.389587	
-0.388672	
-0.388489	
-0.389709	
-0.389893	
-0.389648	
-0.389404	
-0.390869	
-0.391235	
-0.3927	
-0.392395	
-0.392517	
-0.391846	
-0.391296	
-0.392578	
-0.392822	
-0.393066	
-0.392822	
-0.393188	
-0.393616	
-0.394104	
-0.395142	
-0.395752	
-0.394592	
-0.393921	
-0.393433	
-0.393921	
-0.394287	
-0.394226	
-0.392761	
-0.393799	
-0.393127	
-0.393188	
-0.394409	
-0.393799	
-0.392944	
-0.391663	
-0.392395	
-0.391785	
-0.39209	
-0.391479	
-0.391235	
-0.391479	
-0.391296	
-0.392212	
-0.391113	
-0.38916	
-0.388062	
-0.388062	
-0.387024	
-0.387207	
-0.387573	
-0.387207	
-0.383911	
-0.378906	
-0.37915	
-0.380005	
-0.379333	
-0.37915	
-0.381226	
-0.384766	
-0.384277	
-0.383606	
-0.385132	
-0.384827	
-0.384583	
-0.384521	
-0.384888	
-0.385559	
-0.385742	
-0.385437	
-0.38446	
-0.38446	
-0.38501	
-0.385315	
-0.385071	
-0.385986	
-0.386719	
-0.386963	
-0.387634	
-0.388306	
-0.388245	
-0.388672	
-0.388672	
-0.39032	
-0.391174	
-0.391174	
-0.390686	
-0.391052	
-0.391113	
-0.390991	
-0.391235	
-0.392151	
-0.390869	
-0.391663	
-0.389832	
-0.390564	
-0.391296	
-0.391052	
-0.391296	
-0.391052	
-0.391418	
-0.391357	
-0.393127	
-0.393127	
-0.392273	
-0.391541	
-0.390991	
-0.391602	
-0.390808	
-0.391602	
-0.390564	
-0.390808	
-0.391174	
-0.391113	
-0.392273	
-0.390869	
-0.391235	
-0.390869	
-0.389282	
-0.390137	
-0.389221	
-0.389893	
-0.388977	
-0.389709	
-0.389954	
-0.390381	
-0.390747	
-0.389771	
-0.390991	
-0.38916	
-0.389343	
-0.390381	
-0.391052	
-0.391724	
-0.391968	
-0.392578	
-0.3927	
-0.394287	
-0.394409	
-0.394531	
-0.394714	
-0.394714	
-0.396301	
-0.396423	
-0.398743	
-0.398499	
-0.400574	
-0.401733	
-0.402832	
-0.404907	
-0.404785	
-0.405273	
-0.405273	
-0.40564	
-0.40686	
-0.406921	
-0.407654	
-0.408447	
-0.408752	
-0.409302	
-0.409729	
-0.409973	
-0.409668	
-0.409973	
-0.408508	
-0.409546	
-0.40918	
-0.409607	
-0.407776	
-0.409302	
-0.409485	
-0.41095	
-0.409729	
-0.404419	
-0.405151	
-0.403992	
-0.405151	
-0.405334	
-0.409119	
-0.413269	
-0.414429	
-0.41449	
-0.414673	
-0.415649	
-0.415405	
-0.415527	
-0.415283	
-0.413818	
-0.415283	
-0.416016	
-0.41626	
-0.416626	
-0.416992	
-0.417297	
-0.418274	
-0.42041	
-0.418701	
-0.419312	
-0.418701	
-0.419189	
-0.418884	
-0.419861	
-0.418762	
-0.42041	
-0.420288	
-0.420715	
-0.422302	
-0.420593	
-0.421143	
-0.41925	
-0.41925	
-0.419434	
-0.419373	
-0.418823	
-0.418701	
-0.418335	
-0.417908	
-0.418396	
-0.417969	
-0.416931	
-0.415771	
-0.414917	
-0.414978	
-0.414001	
-0.413818	
-0.412903	
-0.411194	
-0.409973	
-0.409912	
-0.410095	
-0.407104	
-0.406128	
-0.405029	
-0.404053	
-0.402222	
-0.401672	
-0.400696	
-0.399353	
-0.397766	
-0.39624	
-0.39563	
-0.394165	
-0.392822	
-0.390869	
-0.388062	
-0.387207	
-0.385071	
-0.385071	
-0.38385	
-0.38269	
-0.381042	
-0.379883	
-0.379578	
-0.378723	
-0.379272	
-0.37677	
-0.374451	
-0.374451	
-0.373901	
-0.373535	
-0.373596	
-0.373596	
-0.372681	
-0.373108	
-0.375427	
-0.373474	
-0.372986	
-0.373047	
-0.371704	
-0.371765	
-0.372131	
-0.372131	
-0.371216	
-0.370544	
-0.370117	
-0.370056	
-0.369812	
-0.368591	
-0.367065	
-0.366516	
-0.366699	
-0.367188	
-0.365906	
-0.366882	
-0.366028	
-0.365356	
-0.366028	
-0.365906	
-0.365784	
-0.36499	
-0.36438	
-0.365967	
-0.364502	
-0.364624	
-0.365967	
-0.367188	
-0.367554	
-0.36853	
-0.371094	
-0.370544	
-0.371216	
-0.372559	
-0.373596	
-0.374207	
-0.375488	
-0.375977	
-0.376404	
-0.376282	
-0.376404	
-0.376587	
-0.37616	
-0.376099	
-0.375366	
-0.373291	
-0.374878	
-0.375122	
-0.375488	
-0.376038	
-0.376221	
-0.376953	
-0.377991	
-0.37854	
-0.378296	
-0.378296	
-0.377258	
-0.378479	
-0.378357	
-0.380005	
-0.379822	
-0.379578	
-0.379089	
-0.379272	
-0.380554	
-0.378418	
-0.378479	
-0.376953	
-0.376038	
-0.37616	
-0.375854	
-0.37616	
-0.376404	
-0.37561	
-0.375244	
-0.375549	
-0.375977	
-0.374756	
-0.374573	
-0.371948	
-0.372314	
-0.372437	
-0.372742	
-0.372498	
-0.37262	
-0.372192	
-0.372253	
-0.374939	
-0.374023	
-0.373352	
-0.372986	
-0.373657	
-0.375366	
-0.375732	
-0.37677	
-0.376343	
-0.376526	
-0.376221	
-0.377014	
-0.377197	
-0.375549	
-0.374329	
-0.37146	
-0.372437	
-0.371033	
-0.371338	
-0.370361	
-0.369019	
-0.367432	
-0.36615	
-0.366028	
-0.365845	
-0.365601	
-0.363953	
-0.363831	
-0.363403	
-0.363525	
-0.364136	
-0.364929	
-0.364319	
-0.364685	
-0.365784	
-0.365662	
-0.364929	
-0.36438	
-0.361938	
-0.362305	
-0.360657	
-0.361206	
-0.359558	
-0.359009	
-0.358215	
-0.357361	
-0.358154	
-0.355042	
-0.354492	
-0.351807	
-0.351929	
-0.350891	
-0.350708	
-0.349854	
-0.349548	
-0.348206	
-0.348572	
-0.350769	
-0.350769	
-0.348389	
-0.346375	
-0.347107	
-0.348755	
-0.350708	
-0.351685	
-0.352539	
-0.35321	
-0.353943	
-0.356323	
-0.356018	
-0.356201	
-0.355042	
-0.354736	
-0.354919	
-0.35614	
-0.356384	
-0.356567	
-0.356445	
-0.355835	
-0.356995	
-0.358032	
-0.3573	
-0.355896	
-0.355042	
-0.35498	
-0.355957	
-0.355957	
-0.355408	
-0.355591	
-0.356262	
-0.356384	
-0.357117	
-0.357178	
-0.356079	
-0.355286	
-0.354919	
-0.355835	
-0.357117	
-0.3573	
-0.358215	
-0.358093	
-0.358582	
-0.359741	
-0.360046	
-0.360657	
-0.360291	
-0.36084	
-0.359924	
-0.361755	
-0.361816	
-0.360962	
-0.362122	
-0.361572	
-0.362854	
-0.363098	
-0.364136	
-0.362244	
-0.363037	
-0.363525	
-0.363953	
-0.364075	
-0.364136	
-0.364197	
-0.364258	
-0.364685	
-0.365417	
-0.36554	
-0.364502	
-0.363892	
-0.364807	
-0.364624	
-0.365601	
-0.365479	
-0.365479	
-0.366089	
-0.366455	
-0.367126	
-0.368286	
-0.368225	
-0.367493	
-0.366943	
-0.368164	
-0.369019	
-0.370483	
-0.370178	
-0.370728	
-0.371155	
-0.373413	
-0.375427	
-0.375671	
-0.37561	
-0.374756	
-0.373962	
-0.37561	
-0.376465	
-0.376892	
-0.377197	
-0.377747	
-0.37854	
-0.379089	
-0.380188	
-0.380127	
-0.380005	
-0.37854	
-0.379333	
-0.381348	
-0.381592	
-0.381531	
-0.382263	
-0.382446	
-0.382751	
-0.383789	
-0.383728	
-0.381775	
-0.380615	
-0.381042	
-0.381958	
-0.381958	
-0.382141	
-0.38147	
-0.381836	
-0.380798	
-0.382568	
-0.381775	
-0.380737	
-0.378906	
-0.379211	
-0.379822	
-0.379578	
-0.379822	
-0.379944	
-0.380127	
-0.380676	
-0.381714	
-0.381104	
-0.379333	
-0.379822	
-0.380737	
-0.37915	
-0.379944	
-0.380127	
-0.380554	
-0.380432	
-0.38147	
-0.382385	
-0.381226	
-0.380981	
-0.381104	
-0.381165	
-0.379028	
-0.381897	
-0.381042	
-0.381714	
-0.382202	
-0.382996	
-0.383423	
-0.382935	
-0.383606	
-0.382141	
-0.382141	
-0.382202	
-0.38385	
-0.383667	
-0.384155	
-0.383911	
-0.384705	
-0.385071	
-0.385437	
-0.385864	
-0.384644	
-0.382935	
-0.382751	
-0.382813	
-0.38324	
-0.382507	
-0.383179	
-0.382996	
-0.382813	
-0.382996	
-0.383057	
-0.381775	
-0.381165	
-0.381226	
-0.380371	
-0.38147	
-0.381409	
-0.380737	
-0.380188	
-0.379822	
-0.379883	
-0.379578	
-0.379578	
-0.377319	
-0.379272	
-0.378906	
-0.379456	
-0.379028	
-0.379395	
-0.380493	
-0.380432	
-0.380859	
-0.379822	
-0.379944	
-0.380066	
-0.379639	
-0.379211	
-0.380981	
-0.380615	
-0.38092	
-0.38147	
-0.382141	
-0.382751	
-0.384277	
-0.384888	
-0.382935	
-0.38147	
-0.381958	
-0.382751	
-0.382568	
-0.382324	
-0.38269	
-0.382568	
-0.382629	
-0.382629	
-0.383484	
-0.381592	
-0.381592	
-0.381714	
-0.383362	
-0.382629	
-0.383057	
-0.38324	
-0.383728	
-0.383606	
-0.383667	
-0.384583	
-0.382629	
-0.382507	
-0.382813	
-0.382324	
-0.383057	
-0.383179	
-0.382935	
-0.382507	
-0.383423	
-0.382202	
-0.382996	
-0.383301	
-0.380615	
-0.381714	
-0.379883	
-0.381042	
-0.381409	
-0.381165	
-0.381897	
-0.381897	
-0.382996	
-0.382324	
-0.383911	
-0.38269	
-0.383728	
-0.383423	
-0.383911	
-0.384583	
-0.385315	
-0.38501	
-0.385803	
-0.386597	
-0.386108	
-0.386719	
-0.386963	
-0.386475	
-0.387207	
-0.384705	
-0.387817	
-0.388306	
-0.388306	
-0.388062	
-0.388794	
-0.388794	
-0.388123	
-0.389954	
-0.387085	
-0.387207	
-0.386414	
-0.387085	
-0.38678	
-0.387085	
-0.387085	
-0.386902	
-0.387939	
-0.387024	
-0.387024	
-0.387024	
-0.386292	
-0.38562	
-0.382324	
-0.383362	
-0.382874	
-0.382202	
-0.382568	
-0.383362	
-0.383423	
-0.38269	
-0.383179	
-0.380737	
-0.381226	
-0.380676	
-0.381104	
-0.380371	
-0.380188	
-0.380249	
-0.379761	
-0.38031	
-0.379211	
-0.381348	
-0.379456	
-0.378357	
-0.378662	
-0.379761	
-0.379517	
-0.379456	
-0.378784	
-0.379578	
-0.380005	
-0.380371	
-0.380188	
-0.380005	
-0.37915	
-0.38031	
-0.379089	
-0.380432	
-0.382019	
-0.38208	
-0.38324	
-0.384644	
-0.385071	
-0.384583	
-0.384338	
-0.383545	
-0.384094	
-0.384277	
-0.382568	
-0.383667	
-0.383789	
-0.383728	
-0.383667	
-0.38446	
-0.38385	
-0.38446	
-0.384888	
-0.382324	
-0.383789	
-0.383484	
-0.383423	
-0.383362	
-0.383728	
-0.384521	
-0.384521	
-0.385681	
-0.383911	
-0.384521	
-0.384094	
-0.383362	
-0.383484	
-0.382507	
-0.383667	
-0.383789	
-0.383362	
-0.383301	
-0.383911	
-0.383789	
-0.382996	
-0.382874	
-0.382385	
-0.382813	
-0.381714	
-0.380981	
-0.382446	
-0.382324	
-0.382751	
-0.383911	
-0.384094	
-0.384094	
-0.385193	
-0.384277	
-0.38501	
-0.384338	
-0.384583	
-0.385803	
-0.385986	
-0.38623	
-0.387451	
-0.388916	
-0.388428	
-0.389465	
-0.390137	
-0.388428	
-0.389404	
-0.389893	
-0.389343	
-0.391052	
-0.391418	
-0.390808	
-0.391052	
-0.393127	
-0.391296	
-0.391113	
-0.392273	
-0.390503	
-0.390198	
-0.390442	
-0.390259	
-0.390015	
-0.390137	
-0.389771	
-0.389709	
-0.389954	
-0.389587	
-0.388123	
-0.385681	
-0.385986	
-0.384766	
-0.385193	
-0.385986	
-0.384888	
-0.384766	
-0.38501	
-0.38623	
-0.384155	
-0.384277	
-0.384705	
-0.383545	
-0.381775	
-0.381897	
-0.382202	
-0.381897	
-0.38147	
-0.381165	
-0.381592	
-0.381653	
-0.382141	
-0.381348	
-0.380981	
-0.381409	
-0.381409	
-0.379883	
-0.382263	
-0.38208	
-0.382935	
-0.382874	
-0.383606	
-0.383484	
-0.384155	
-0.384888	
-0.383789	
-0.384766	
-0.385071	
-0.385437	
-0.386414	
-0.386292	
-0.386597	
-0.386902	
-0.388123	
-0.387451	
-0.387573	
-0.386719	
-0.38739	
-0.38739	
-0.385986	
-0.387939	
-0.387878	
-0.388123	
-0.387756	
-0.389526	
-0.388611	
-0.388794	
-0.389587	
-0.386963	
-0.38739	
-0.388123	
-0.388	
-0.388306	
-0.387695	
-0.388733	
-0.38855	
-0.388794	
-0.388794	
-0.388306	
-0.388123	
-0.38739	
-0.387329	
-0.385437	
-0.387146	
-0.386841	
-0.386963	
-0.387451	
-0.387573	
-0.387207	
-0.387146	
-0.387207	
-0.385193	
-0.385315	
-0.386169	
-0.386292	
-0.38739	
-0.388306	
-0.388489	
-0.388977	
-0.389343	
-0.389282	
-0.389099	
-0.387878	
-0.387451	
-0.388306	
-0.387146	
-0.38855	
-0.388794	
-0.388855	
-0.389526	
-0.390503	
-0.391113	
-0.389587	
-0.389832	
-0.389221	
-0.389099	
-0.388672	
-0.388977	
-0.389587	
-0.389282	
-0.388916	
-0.389832	
-0.38916	
-0.389526	
-0.388794	
-0.389832	
-0.388855	
-0.388367	
-0.387512	
-0.387939	
-0.388123	
-0.388245	
-0.387817	
-0.387573	
-0.386597	
-0.385437	
-0.385376	
-0.385925	
-0.386475	
-0.38623	
-0.385254	
-0.386841	
-0.386475	
-0.386658	
-0.387146	
-0.387329	
-0.38678	
-0.386475	
-0.387268	
-0.384399	
-0.386169	
-0.385437	
-0.38562	
-0.385437	
-0.385925	
-0.386475	
-0.386414	
-0.386719	
-0.385559	
-0.385559	
-0.38501	
-0.384338	
-0.385864	
-0.383301	
-0.38562	
-0.385864	
-0.38562	
-0.386414	
-0.386719	
-0.387207	
-0.38678	
-0.387451	
-0.385559	
-0.38678	
-0.387146	
-0.385437	
-0.387268	
-0.386902	
-0.387329	
-0.387329	
-0.386841	
-0.38623	
-0.385681	
-0.386963	
-0.382996	
-0.384521	
-0.38501	
-0.385132	
-0.384766	
-0.384521	
-0.384399	
-0.384155	
-0.384888	
-0.383606	
-0.383606	
-0.381836	
-0.38269	
-0.382507	
-0.38208	
-0.382446	
-0.382507	
-0.382874	
-0.384094	
-0.383789	
-0.383911	
-0.383484	
-0.384888	
-0.381531	
-0.38385	
-0.383423	
-0.384888	
-0.384766	
-0.384949	
-0.385132	
-0.385925	
-0.387268	
-0.385864	
-0.385864	
-0.385742	
-0.386475	
-0.386475	
-0.385803	
-0.389954	
-0.390198	
-0.390259	
-0.39093	
-0.390259	
-0.390503	
-0.390442	
-0.392151	
-0.38916	
-0.39093	
-0.390381	
-0.391724	
-0.392334	
-0.392944	
-0.392883	
-0.39386	
-0.394348	
-0.393311	
-0.39386	
-0.393188	
-0.391968	
-0.39325	
-0.392761	
-0.393005	
-0.392029	
-0.3927	
-0.392334	
-0.392517	
-0.392639	
-0.390991	
-0.390564	
-0.389221	
-0.389404	
-0.388489	
-0.387756	
-0.386658	
-0.386353	
-0.386292	
-0.38678	
-0.387085	
-0.386292	
-0.386353	
-0.386475	
-0.385376	
-0.386292	
-0.38501	
-0.386169	
-0.386292	
-0.386475	
-0.386353	
-0.38739	
-0.387207	
-0.386353	
-0.386597	
-0.385559	
-0.385559	
-0.385498	
-0.384888	
-0.386047	
-0.386414	
-0.386047	
-0.386536	
-0.387695	
-0.387085	
-0.387146	
-0.387085	
-0.385193	
-0.386108	
-0.385315	
-0.386963	
-0.387146	
-0.386963	
-0.387451	
-0.387939	
-0.388794	
-0.388123	
-0.389038	
-0.387695	
-0.388123	
-0.387085	
-0.386841	
-0.388062	
-0.387878	
-0.387329	
-0.387756	
-0.387817	
-0.388306	
-0.387146	
-0.385986	
-0.384705	
-0.384644	
-0.384338	
-0.384094	
-0.38501	
-0.384521	
-0.383667	
-0.383606	
-0.383423	
-0.383667	
-0.381897	
-0.381104	
-0.380371	
-0.380066	
-0.381287	
-0.381042	
-0.381409	
-0.381104	
-0.381348	
-0.382263	
-0.382751	
-0.382324	
-0.38208	
-0.381348	
-0.381897	
-0.381348	
-0.382507	
-0.382568	
-0.38269	
-0.383118	
-0.383789	
-0.384338	
-0.384766	
-0.38562	
-0.387451	
-0.385986	
-0.386841	
-0.387268	
-0.38739	
-0.387939	
-0.387634	
-0.388062	
-0.389282	
-0.389587	
-0.390137	
-0.389648	
-0.390198	
-0.389099	
-0.390686	
-0.389893	
-0.39093	
-0.390869	
-0.391357	
-0.391479	
-0.391235	
-0.392517	
-0.391296	
-0.391174	
-0.390808	
-0.390015	
-0.390564	
-0.390686	
-0.39032	
-0.390076	
-0.390259	
-0.390137	
-0.389221	
-0.38916	
-0.388062	
-0.388733	
-0.386841	
-0.387146	
-0.387024	
-0.387024	
-0.386658	
-0.386475	
-0.386658	
-0.386963	
-0.387024	
-0.385925	
-0.385437	
-0.38562	
-0.384521	
-0.386169	
-0.384949	
-0.385681	
-0.385498	
-0.385559	
-0.385315	
-0.385925	
-0.386292	
-0.385742	
-0.386414	
-0.383606	
-0.384094	
-0.386047	
-0.385803	
-0.38562	
-0.385986	
-0.385315	
-0.387207	
-0.38739	
-0.386597	
-0.386536	
-0.386108	
-0.38562	
-0.385925	
-0.385193	
-0.386597	
-0.386353	
-0.386536	
-0.387146	
-0.38739	
-0.388184	
-0.386475	
-0.386108	
-0.384888	
-0.38446	
-0.383606	
-0.38446	
-0.384705	
-0.384888	
-0.384521	
-0.385193	
-0.384888	
-0.384766	
-0.384094	
-0.384094	
-0.382019	
-0.383667	
-0.382935	
-0.38385	
-0.383118	
-0.383118	
-0.382751	
-0.38324	
-0.383362	
-0.382996	
-0.381836	
-0.381287	
-0.381592	
-0.382263	
-0.38147	
-0.382751	
-0.382935	
-0.382813	
-0.383484	
-0.383545	
-0.384033	
-0.383423	
-0.384216	
-0.381836	
-0.383911	
-0.384399	
-0.384705	
-0.385071	
-0.385498	
-0.387085	
-0.388	
-0.388916	
-0.388184	
-0.385986	
-0.386169	
-0.386658	
-0.386719	
-0.385681	
-0.38623	
-0.386719	
-0.387451	
-0.388	
-0.387329	
-0.387939	
-0.387817	
-0.388367	
-0.387268	
-0.387024	
-0.387695	
-0.386536	
-0.388123	
-0.387817	
-0.388123	
-0.389465	
-0.389954	
-0.389099	
-0.387939	
-0.388367	
-0.388062	
-0.388428	
-0.387756	
-0.386963	
-0.387329	
-0.387024	
-0.387268	
-0.387329	
-0.387695	
-0.387146	
-0.386475	
-0.384338	
-0.386292	
-0.386047	
-0.385254	
-0.386047	
-0.387512	
-0.387451	
-0.388184	
-0.388977	
-0.38855	
-0.388306	
-0.388916	
-0.38916	
-0.388245	
-0.389404	
-0.388855	
-0.389893	
-0.39032	
-0.390442	
-0.391724	
-0.392273	
-0.3927	
-0.390747	
-0.390747	
-0.391296	
-0.391174	
-0.390503	
-0.391235	
-0.391418	
-0.391174	
-0.391357	
-0.391357	
-0.390381	
-0.390564	
-0.389771	
-0.389221	
-0.389343	
-0.388977	
-0.388672	
-0.388489	
-0.388489	
-0.388794	
-0.389038	
-0.389771	
-0.388123	
-0.386536	
-0.385254	
-0.38446	
-0.383118	
-0.384277	
-0.383972	
-0.384705	
-0.384583	
-0.383972	
-0.384705	
-0.384155	
-0.384705	
-0.381775	
-0.382385	
-0.382263	
-0.381653	
-0.381531	
-0.381775	
-0.381714	
-0.381348	
-0.381958	
-0.383118	
-0.381653	
-0.381897	
-0.381592	
-0.381897	
-0.381531	
-0.381775	
-0.382141	
-0.382446	
-0.383179	
-0.383667	
-0.383972	
-0.38446	
-0.384338	
-0.383606	
-0.384949	
-0.385681	
-0.386414	
-0.388306	
-0.388062	
-0.387573	
-0.388062	
-0.388306	
-0.389038	
-0.387817	
-0.388184	
-0.387634	
-0.388672	
-0.388	
-0.38678	
-0.38739	
-0.388733	
-0.388184	
-0.388428	
-0.389404	
-0.389648	
-0.388184	
-0.388855	
-0.387512	
-0.389038	
-0.388367	
-0.389221	
-0.38739	
-0.389038	
-0.389099	
-0.389099	
-0.388977	
-0.388611	
-0.388489	
-0.387329	
-0.387573	
-0.387939	
-0.386597	
-0.38739	
-0.387207	
-0.387207	
-0.387634	
-0.388794	
-0.389038	
-0.386963	
-0.386963	
-0.386658	
-0.387146	
-0.386658	
-0.385498	
-0.386047	
-0.388184	
-0.388672	
-0.389526	
-0.389893	
-0.389893	
-0.389526	
-0.389343	
-0.390198	
-0.390198	
-0.390015	
-0.391174	
-0.390747	
-0.392578	
-0.392883	
-0.394775	
-0.394348	
-0.393188	
-0.393677	
-0.394165	
-0.394287	
-0.393433	
-0.393188	
-0.39325	
-0.393677	
-0.392883	
-0.392944	
-0.394958	
-0.394104	
-0.393066	
-0.392761	
-0.392944	
-0.392212	
-0.391907	
-0.390625	
-0.391724	
-0.390991	
-0.389832	
-0.38855	
-0.388733	
-0.387756	
-0.388	
-0.386963	
-0.387207	
-0.386963	
-0.38678	
-0.386414	
-0.386902	
-0.38623	
-0.386414	
-0.386353	
-0.386108	
-0.38501	
-0.385132	
-0.384033	
-0.384399	
-0.384094	
-0.384338	
-0.383789	
-0.384216	
-0.383728	
-0.384033	
-0.385559	
-0.385437	
-0.384216	
-0.384155	
-0.384888	
-0.384949	
-0.384949	
-0.384033	
-0.38562	
-0.386353	
-0.386597	
-0.386597	
-0.387573	
-0.387512	
-0.38739	
-0.387024	
-0.388306	
-0.38916	
-0.388672	
-0.388672	
-0.388916	
-0.388977	
-0.389038	
-0.390076	
-0.390442	
-0.389343	
-0.389526	
-0.388733	
-0.389832	
-0.389954	
-0.390198	
-0.389587	
-0.389954	
-0.390198	
-0.391052	
-0.392029	
-0.391174	
-0.390625	
-0.390015	
-0.390869	
-0.390808	
-0.389771	
-0.389221	
-0.390015	
-0.390442	
-0.389709	
-0.390198	
-0.390503	
-0.389709	
-0.389587	
-0.388062	
-0.389648	
-0.389526	
-0.38855	
-0.388794	
-0.388733	
-0.389648	
-0.389282	
-0.390381	
-0.390015	
-0.388916	
-0.390198	
-0.390137	
-0.390686	
-0.390686	
-0.390076	
-0.391174	
-0.391296	
-0.391479	
-0.392029	
-0.39325	
-0.392395	
-0.39209	
-0.391602	
-0.3927	
-0.392944	
-0.393005	
-0.393188	
-0.393494	
-0.394104	
-0.394043	
-0.39447	
-0.394165	
-0.393005	
-0.393433	
-0.392944	
-0.393372	
-0.393005	
-0.392212	
-0.392334	
-0.392639	
-0.391968	
-0.392639	
-0.393311	
-0.392761	
-0.391846	
-0.391663	
-0.391113	
-0.391052	
-0.390076	
-0.387573	
-0.388855	
-0.38855	
-0.389221	
-0.389587	
-0.390137	
-0.389648	
-0.389343	
-0.389221	
-0.388611	
-0.388855	
-0.38855	
-0.388367	
-0.389404	
-0.389038	
-0.388916	
-0.389343	
-0.390381	
-0.389038	
-0.388367	
-0.388062	
-0.388672	
-0.388733	
-0.387695	
-0.386719	
-0.388245	
-0.388306	
-0.388489	
-0.389404	
-0.389099	
-0.388184	
-0.388855	
-0.388367	
-0.388977	
-0.388855	
-0.388428	
-0.389221	
-0.389099	
-0.389771	
-0.390442	
-0.391785	
-0.390137	
-0.389832	
-0.390381	
-0.388733	
-0.389648	
-0.388611	
-0.388672	
-0.388367	
-0.387939	
-0.387634	
-0.388184	
-0.388855	
-0.387573	
-0.38739	
-0.387451	
-0.387024	
-0.386963	
-0.386047	
-0.38623	
-0.385986	
-0.385864	
-0.385925	
-0.385986	
-0.385925	
-0.385498	
-0.38562	
-0.384399	
-0.385376	
-0.384888	
-0.384644	
-0.385803	
-0.385742	
-0.386841	
-0.38739	
-0.388	
-0.38739	
-0.387146	
-0.387817	
-0.386597	
-0.387756	
-0.386902	
-0.388428	
-0.388184	
-0.388428	
-0.388672	
-0.390137	
-0.391846	
-0.392517	
-0.393066	
-0.391296	
-0.392517	
-0.392334	
-0.392517	
-0.393066	
-0.392883	
-0.393372	
-0.393555	
-0.394531	
-0.394531	
-0.394775	
-0.395325	
-0.394714	
-0.395569	
-0.395508	
-0.395325	
-0.395813	
-0.396057	
-0.395691	
-0.396362	
-0.396545	
-0.39563	
-0.395325	
-0.394226	
-0.394287	
-0.394226	
-0.392822	
-0.393921	
-0.393372	
-0.393005	
-0.392395	
-0.3927	
-0.391235	
-0.389038	
-0.389954	
-0.387695	
-0.389465	
-0.389282	
-0.388184	
-0.389282	
-0.389282	
-0.389038	
-0.389343	
-0.389954	
-0.388672	
-0.389221	
-0.389221	
-0.387573	
-0.38855	
-0.38855	
-0.388245	
-0.388916	
-0.388062	
-0.38855	
-0.388794	
-0.390076	
-0.388672	
-0.389038	
-0.38739	
-0.388611	
-0.388916	
-0.388733	
-0.389282	
-0.389221	
-0.389709	
-0.389099	
-0.389343	
-0.390015	
-0.389587	
-0.390259	
-0.387634	
-0.389465	
-0.388855	
-0.388916	
-0.390015	
-0.390015	
-0.390686	
-0.390686	
-0.391479	
-0.390198	
-0.390015	
-0.389526	
-0.387451	
-0.388672	
-0.387146	
-0.387817	
-0.387817	
-0.387878	
-0.387817	
-0.387146	
-0.389404	
-0.386902	
-0.387085	
-0.385864	
-0.385376	
-0.384644	
-0.384583	
-0.384583	
-0.384399	
-0.38385	
-0.384033	
-0.384521	
-0.384399	
-0.383789	
-0.383667	
-0.380859	
-0.383972	
-0.382996	
-0.38324	
-0.384216	
-0.38501	
-0.384338	
-0.385315	
-0.386963	
-0.385437	
-0.386414	
-0.386292	
-0.384827	
-0.38623	
-0.386536	
-0.388245	
-0.389282	
-0.390808	
-0.390076	
-0.390747	
-0.391296	
-0.390747	
-0.391296	
-0.389771	
-0.39093	
-0.390747	
-0.391418	
-0.391846	
-0.392456	
-0.392883	
-0.392883	
-0.394409	
-0.393738	
-0.394226	
	
