E:\DOCUMENTS AND SETTINGS\JPOTAS\MEUS DOCUMENTOS\UFRJ\RSCI-BM 12 WK SERIES\070803-RSCI-BM-11\RSCI-BM-11-REMG\070803-RSCI-BM-11-REMG-0005.ACQ
0.025000 msec/sample
1 channel
Analog input
Volts
CH1	
2000	
-0.390198	
-0.390869	
-0.389404	
-0.388855	
-0.389221	
-0.387756	
-0.388489	
-0.387207	
-0.387451	
-0.388611	
-0.386719	
-0.386719	
-0.386414	
-0.387512	
-0.387146	
-0.386597	
-0.386292	
-0.38623	
-0.386292	
-0.385986	
-0.38623	
-0.387451	
-0.385437	
-0.384155	
-0.384399	
-0.385742	
-0.385864	
-0.386108	
-0.386597	
-0.386169	
-0.386108	
-0.385864	
-0.38739	
-0.387451	
-0.386902	
-0.387268	
-0.387695	
-0.388306	
-0.387573	
-0.387573	
-0.387512	
-0.387146	
-0.387085	
-0.387024	
-0.388855	
-0.388184	
-0.389465	
-0.390381	
-0.390625	
-0.390137	
-0.389709	
-0.389587	
-0.389099	
-0.389954	
-0.389648	
-0.389526	
-0.390503	
-0.389954	
-0.389893	
-0.390625	
-0.390076	
-0.390442	
-0.390564	
-0.390686	
-0.390137	
-0.391296	
-0.390442	
-0.389771	
-0.390808	
-0.391113	
-0.390198	
-0.390198	
-0.389954	
-0.390015	
-0.389893	
-0.388855	
-0.388306	
-0.389038	
-0.389587	
-0.388	
-0.389099	
-0.388489	
-0.387817	
-0.388123	
-0.386414	
-0.386963	
-0.385315	
-0.386414	
-0.385376	
-0.385742	
-0.385559	
-0.385132	
-0.386597	
-0.38623	
-0.385559	
-0.385742	
-0.385132	
-0.385864	
-0.385071	
-0.386475	
-0.385681	
-0.386169	
-0.38623	
-0.386902	
-0.387634	
-0.388062	
-0.388245	
-0.387817	
-0.389954	
-0.389343	
-0.390259	
-0.391235	
-0.390198	
-0.391541	
-0.391418	
-0.392334	
-0.393738	
-0.393005	
-0.394287	
-0.393372	
-0.394714	
-0.39502	
-0.395325	
-0.395447	
-0.395996	
-0.395813	
-0.395874	
-0.396667	
-0.397461	
-0.396301	
-0.397156	
-0.395325	
-0.39679	
-0.395447	
-0.395752	
-0.395203	
-0.395081	
-0.394043	
-0.393555	
-0.393982	
-0.394287	
-0.393066	
-0.392761	
-0.391479	
-0.393311	
-0.391663	
-0.391479	
-0.390198	
-0.390198	
-0.390137	
-0.389099	
-0.389954	
-0.390137	
-0.388916	
-0.389771	
-0.388611	
-0.389709	
-0.387878	
-0.389526	
-0.388123	
-0.38855	
-0.388367	
-0.388489	
-0.389587	
-0.388306	
-0.389771	
-0.38916	
-0.387085	
-0.389099	
-0.389282	
-0.390259	
-0.388428	
-0.389771	
-0.389221	
-0.390076	
-0.390381	
-0.389832	
-0.388916	
-0.387634	
-0.388062	
-0.388733	
-0.389221	
-0.390381	
-0.390686	
-0.391174	
-0.391052	
-0.391785	
-0.393311	
-0.392761	
-0.392578	
-0.392273	
-0.392212	
-0.392456	
-0.3927	
-0.392822	
-0.392273	
-0.392517	
-0.389404	
-0.384888	
-0.386108	
-0.385132	
-0.386597	
-0.386658	
-0.390198	
-0.394775	
-0.394897	
-0.39386	
-0.393616	
-0.393005	
-0.392517	
-0.392517	
-0.393616	
-0.392639	
-0.392456	
-0.391357	
-0.392822	
-0.390869	
-0.392822	
-0.391724	
-0.392212	
-0.391846	
-0.391541	
-0.392273	
-0.392822	
-0.392029	
-0.391541	
-0.39032	
-0.391541	
-0.390015	
-0.390686	
-0.389465	
-0.389954	
-0.389282	
-0.389526	
-0.389771	
-0.390015	
-0.389404	
-0.388428	
-0.388672	
-0.38855	
-0.388672	
-0.388489	
-0.386902	
-0.388245	
-0.387878	
-0.388428	
-0.388489	
-0.388672	
-0.38916	
-0.388489	
-0.387512	
-0.388672	
-0.389648	
-0.390137	
-0.388916	
-0.389954	
-0.389404	
-0.390686	
-0.391541	
-0.391113	
-0.391113	
-0.390564	
-0.391174	
-0.391541	
-0.3927	
-0.392273	
-0.393188	
-0.392822	
-0.392639	
-0.393799	
-0.395142	
-0.394287	
-0.39447	
-0.39386	
-0.39447	
-0.394348	
-0.395264	
-0.39502	
-0.39502	
-0.395203	
-0.394592	
-0.39563	
-0.396973	
-0.396057	
-0.395996	
-0.395386	
-0.395264	
-0.395264	
-0.396851	
-0.395081	
-0.395386	
-0.395752	
-0.396484	
-0.397339	
-0.398438	
-0.397583	
-0.398376	
-0.3974	
-0.398743	
-0.397522	
-0.399475	
-0.3974	
-0.398865	
-0.39856	
-0.399231	
-0.399231	
-0.399109	
-0.399414	
-0.399292	
-0.397522	
-0.39978	
-0.40033	
-0.401001	
-0.400574	
-0.402527	
-0.402344	
-0.40509	
-0.405945	
-0.406189	
-0.406189	
-0.405945	
-0.407715	
-0.406555	
-0.408813	
-0.407104	
-0.40802	
-0.407715	
-0.408936	
-0.409668	
-0.406921	
-0.407715	
-0.407654	
-0.408752	
-0.409058	
-0.411072	
-0.410767	
-0.410828	
-0.411621	
-0.411255	
-0.411987	
-0.412048	
-0.412964	
-0.412415	
-0.410706	
-0.412415	
-0.410583	
-0.411133	
-0.410278	
-0.409851	
-0.408997	
-0.409119	
-0.409668	
-0.407654	
-0.408386	
-0.40686	
-0.406738	
-0.406189	
-0.408142	
-0.407471	
-0.406677	
-0.406006	
-0.405457	
-0.405823	
-0.405457	
-0.403503	
-0.403381	
-0.401062	
-0.401978	
-0.400146	
-0.401306	
-0.398499	
-0.398132	
-0.396423	
-0.395813	
-0.395874	
-0.393921	
-0.393616	
-0.392151	
-0.388794	
-0.38855	
-0.387268	
-0.387573	
-0.385742	
-0.385803	
-0.383972	
-0.382507	
-0.382629	
-0.380371	
-0.379456	
-0.377625	
-0.37561	
-0.374634	
-0.371948	
-0.371277	
-0.369324	
-0.367737	
-0.365906	
-0.36554	
-0.365234	
-0.362732	
-0.362732	
-0.361084	
-0.362	
-0.36145	
-0.361267	
-0.361145	
-0.361511	
-0.361633	
-0.36084	
-0.362427	
-0.362244	
-0.361511	
-0.361572	
-0.360107	
-0.361389	
-0.359924	
-0.361328	
-0.360107	
-0.359741	
-0.358215	
-0.357483	
-0.357544	
-0.35498	
-0.354553	
-0.35199	
-0.352234	
-0.351379	
-0.350342	
-0.349426	
-0.348816	
-0.348694	
-0.346558	
-0.34845	
-0.346741	
-0.346069	
-0.346252	
-0.344482	
-0.34552	
-0.345154	
-0.345947	
-0.346069	
-0.345825	
-0.345825	
-0.345581	
-0.346863	
-0.345337	
-0.345337	
-0.344299	
-0.344666	
-0.343567	
-0.34436	
-0.344116	
-0.344543	
-0.343994	
-0.343079	
-0.344666	
-0.343628	
-0.343262	
-0.343201	
-0.342957	
-0.343445	
-0.344482	
-0.344666	
-0.344238	
-0.344604	
-0.345337	
-0.346313	
-0.347046	
-0.34729	
-0.346802	
-0.346497	
-0.348938	
-0.348145	
-0.350403	
-0.349731	
-0.352356	
-0.352173	
-0.353821	
-0.356018	
-0.356079	
-0.35675	
-0.356323	
-0.357849	
-0.358459	
-0.359985	
-0.359741	
-0.361694	
-0.36261	
-0.363037	
-0.36554	
-0.364929	
-0.366943	
-0.365723	
-0.367676	
-0.367004	
-0.367859	
-0.368164	
-0.368042	
-0.36792	
-0.369202	
-0.369141	
-0.369873	
-0.370361	
-0.369629	
-0.367676	
-0.369019	
-0.369568	
-0.369812	
-0.369019	
-0.369934	
-0.370178	
-0.370911	
-0.373169	
-0.372253	
-0.371521	
-0.370361	
-0.369995	
-0.369385	
-0.369751	
-0.369507	
-0.368774	
-0.368713	
-0.367981	
-0.368591	
-0.369446	
-0.369141	
-0.369141	
-0.368408	
-0.369019	
-0.368347	
-0.36969	
-0.369141	
-0.3703	
-0.369263	
-0.366882	
-0.369324	
-0.369568	
-0.370605	
-0.370483	
-0.370667	
-0.371704	
-0.372253	
-0.372437	
-0.371521	
-0.373047	
-0.373047	
-0.373535	
-0.375	
-0.373962	
-0.37384	
-0.373474	
-0.373779	
-0.372559	
-0.373657	
-0.372986	
-0.374146	
-0.374268	
-0.374084	
-0.375244	
-0.374573	
-0.375	
-0.373657	
-0.374817	
-0.374573	
-0.374451	
-0.374939	
-0.375183	
-0.375366	
-0.375305	
-0.375732	
-0.376465	
-0.376099	
-0.375977	
-0.375732	
-0.376038	
-0.375732	
-0.376709	
-0.375916	
-0.376831	
-0.376587	
-0.376099	
-0.376953	
-0.377014	
-0.377197	
-0.376038	
-0.37561	
-0.375671	
-0.375305	
-0.375916	
-0.375305	
-0.375244	
-0.374817	
-0.375427	
-0.374939	
-0.374817	
-0.374207	
-0.37262	
-0.373535	
-0.372986	
-0.373352	
-0.371826	
-0.372437	
-0.373047	
-0.371582	
-0.374207	
-0.372986	
-0.372925	
-0.371948	
-0.372986	
-0.372009	
-0.371887	
-0.372009	
-0.371521	
-0.37207	
-0.371521	
-0.371582	
-0.372314	
-0.37207	
-0.372131	
-0.371582	
-0.373047	
-0.372803	
-0.373596	
-0.374634	
-0.374939	
-0.374817	
-0.374634	
-0.376953	
-0.376465	
-0.376892	
-0.377014	
-0.37738	
-0.378357	
-0.378662	
-0.379333	
-0.380554	
-0.380676	
-0.381714	
-0.381653	
-0.384216	
-0.382874	
-0.383972	
-0.382751	
-0.384155	
-0.383728	
-0.384155	
-0.384705	
-0.384705	
-0.385071	
-0.38562	
-0.386536	
-0.385986	
-0.386719	
-0.386475	
-0.384766	
-0.386963	
-0.385986	
-0.386169	
-0.386292	
-0.386536	
-0.386536	
-0.386963	
-0.387817	
-0.388	
-0.38855	
-0.388123	
-0.387634	
-0.386841	
-0.385986	
-0.385498	
-0.385254	
-0.384583	
-0.383301	
-0.384583	
-0.383667	
-0.384338	
-0.382813	
-0.381714	
-0.38269	
-0.381897	
-0.381592	
-0.381226	
-0.381165	
-0.381409	
-0.381409	
-0.382263	
-0.381531	
-0.38147	
-0.38031	
-0.379456	
-0.378235	
-0.37854	
-0.379578	
-0.379395	
-0.379944	
-0.3797	
-0.380798	
-0.380737	
-0.380371	
-0.38031	
-0.379761	
-0.37915	
-0.380554	
-0.3797	
-0.380188	
-0.380005	
-0.379761	
-0.380127	
-0.381104	
-0.381104	
-0.380432	
-0.380249	
-0.381409	
-0.382507	
-0.383301	
-0.38269	
-0.382874	
-0.382202	
-0.381531	
-0.382996	
-0.382568	
-0.38269	
-0.382202	
-0.381714	
-0.382385	
-0.38269	
-0.383362	
-0.382629	
-0.383667	
-0.383118	
-0.38269	
-0.38446	
-0.38446	
-0.383423	
-0.382324	
-0.38324	
-0.383789	
-0.382751	
-0.383179	
-0.382751	
-0.382446	
-0.38147	
-0.382996	
-0.383362	
-0.382813	
-0.381897	
-0.382141	
-0.380859	
-0.381897	
-0.381958	
-0.381165	
-0.380798	
-0.380676	
-0.379822	
-0.380737	
-0.381226	
-0.379944	
-0.379822	
-0.380249	
-0.380127	
-0.380249	
-0.381226	
-0.380432	
-0.380371	
-0.380188	
-0.381409	
-0.381104	
-0.381226	
-0.381104	
-0.380371	
-0.381165	
-0.382446	
-0.382507	
-0.383911	
-0.384155	
-0.384827	
-0.385315	
-0.387024	
-0.387512	
-0.387207	
-0.387329	
-0.387268	
-0.388916	
-0.389038	
-0.389343	
-0.390381	
-0.389709	
-0.389954	
-0.391663	
-0.392822	
-0.392456	
-0.392029	
-0.391846	
-0.392395	
-0.392822	
-0.39209	
-0.392944	
-0.39386	
-0.392395	
-0.391296	
-0.392822	
-0.392029	
-0.391174	
-0.391174	
-0.389343	
-0.390198	
-0.390015	
-0.390503	
-0.389709	
-0.389221	
-0.389099	
-0.388977	
-0.389099	
-0.387878	
-0.387695	
-0.387207	
-0.38562	
-0.386536	
-0.38623	
-0.386902	
-0.38623	
-0.385681	
-0.385315	
-0.387024	
-0.387268	
-0.385925	
-0.38562	
-0.384277	
-0.385498	
-0.385376	
-0.385132	
-0.385437	
-0.38562	
-0.385376	
-0.38562	
-0.387512	
-0.386719	
-0.386658	
-0.386597	
-0.385376	
-0.386353	
-0.38623	
-0.386658	
-0.385925	
-0.384766	
-0.383972	
-0.386169	
-0.38739	
-0.387207	
-0.386963	
-0.386841	
-0.387695	
-0.388489	
-0.388916	
-0.388794	
-0.388794	
-0.388916	
-0.390259	
-0.391479	
-0.38916	
-0.389526	
-0.389465	
-0.388306	
-0.389771	
-0.390137	
-0.389343	
-0.390686	
-0.390503	
-0.390747	
-0.392578	
-0.394104	
-0.391846	
-0.391602	
-0.391418	
-0.390564	
-0.390625	
-0.390747	
-0.390381	
-0.39032	
-0.390808	
-0.390686	
-0.390991	
-0.391052	
-0.390259	
-0.390259	
-0.388794	
-0.39093	
-0.390442	
-0.390259	
-0.390381	
-0.389282	
-0.389404	
-0.389343	
-0.391541	
-0.38855	
-0.388367	
-0.387878	
-0.388062	
-0.388184	
-0.38739	
-0.386108	
-0.387268	
-0.386292	
-0.386902	
-0.387695	
-0.387756	
-0.386658	
-0.386536	
-0.38501	
-0.386536	
-0.386536	
-0.386353	
-0.385132	
-0.386353	
-0.385803	
-0.386902	
-0.387695	
-0.386963	
-0.387756	
-0.387573	
-0.38623	
-0.388123	
-0.388733	
-0.388306	
-0.388306	
-0.388428	
-0.388794	
-0.390198	
-0.390686	
-0.389648	
-0.390503	
-0.389526	
-0.390686	
-0.391907	
-0.391785	
-0.392029	
-0.391968	
-0.391907	
-0.392273	
-0.393066	
-0.393311	
-0.392822	
-0.393005	
-0.391479	
-0.393066	
-0.394043	
-0.393188	
-0.39325	
-0.392822	
-0.393066	
-0.393188	
-0.393799	
-0.392395	
-0.391663	
-0.39093	
-0.389526	
-0.390198	
-0.390686	
-0.389893	
-0.389587	
-0.38855	
-0.389526	
-0.388855	
-0.389099	
-0.387817	
-0.387207	
-0.386047	
-0.385559	
-0.387573	
-0.385925	
-0.385437	
-0.385254	
-0.385193	
-0.385559	
-0.386536	
-0.386047	
-0.385864	
-0.385254	
-0.38562	
-0.385925	
-0.38739	
-0.385437	
-0.385681	
-0.385681	
-0.386902	
-0.38678	
-0.388733	
-0.38623	
-0.386841	
-0.386047	
-0.387634	
-0.387573	
-0.387207	
-0.386902	
-0.387329	
-0.385315	
-0.385864	
-0.386169	
-0.387329	
-0.386719	
-0.387756	
-0.385803	
-0.388	
-0.38916	
-0.388672	
-0.387878	
-0.389099	
-0.389648	
-0.389954	
-0.391296	
-0.39032	
-0.390015	
-0.390137	
-0.389221	
-0.391113	
-0.391418	
-0.391296	
-0.390503	
-0.39032	
-0.391357	
-0.391113	
-0.393188	
-0.391113	
-0.391052	
-0.391785	
-0.393188	
-0.392639	
-0.391357	
-0.391052	
-0.390686	
-0.390503	
-0.390198	
-0.390076	
-0.390137	
-0.388611	
-0.388672	
-0.387207	
-0.389771	
-0.388855	
-0.388794	
-0.388428	
-0.388428	
-0.388489	
-0.388733	
-0.388794	
-0.385864	
-0.384766	
-0.384583	
-0.383301	
-0.386414	
-0.385803	
-0.385071	
-0.38385	
-0.385071	
-0.385681	
-0.385559	
-0.387451	
-0.38501	
-0.384644	
-0.383972	
-0.385559	
-0.385193	
-0.384644	
-0.384521	
-0.38446	
-0.384521	
-0.384766	
-0.38562	
-0.386414	
-0.384644	
-0.384033	
-0.384644	
-0.385742	
-0.385193	
-0.385498	
-0.385193	
-0.385559	
-0.385742	
-0.386658	
-0.387695	
-0.387756	
-0.387512	
-0.387451	
-0.386902	
-0.389587	
-0.389648	
-0.389771	
-0.388306	
-0.390259	
-0.391052	
-0.390503	
-0.391541	
-0.39032	
-0.390198	
-0.389771	
-0.38916	
-0.391052	
-0.390503	
-0.389404	
-0.38855	
-0.390442	
-0.390015	
-0.390442	
-0.391113	
-0.389343	
-0.388367	
-0.388184	
-0.38855	
-0.387939	
-0.387268	
-0.386597	
-0.385498	
-0.385742	
-0.385559	
-0.385742	
-0.384033	
-0.383789	
-0.383179	
-0.380554	
-0.382996	
-0.382141	
-0.381531	
-0.380676	
-0.380676	
-0.381042	
-0.381104	
-0.382263	
-0.380859	
-0.380493	
-0.379333	
-0.379272	
-0.381165	
-0.381531	
-0.381775	
-0.381104	
-0.382813	
-0.383362	
-0.384094	
-0.385315	
-0.383606	
-0.383484	
-0.384155	
-0.386108	
-0.384949	
-0.385742	
-0.385864	
-0.386414	
-0.386963	
-0.387756	
-0.38916	
-0.388367	
-0.388062	
-0.388184	
-0.387451	
-0.389587	
-0.388977	
-0.389099	
-0.387939	
-0.389587	
-0.389404	
-0.390076	
-0.39032	
-0.390137	
-0.389893	
-0.38855	
-0.388489	
-0.390137	
-0.389343	
-0.388794	
-0.388367	
-0.389465	
-0.388977	
-0.390015	
-0.390076	
-0.389282	
-0.389221	
-0.388123	
-0.390198	
-0.390686	
-0.391052	
-0.390259	
-0.388794	
-0.388367	
-0.388184	
-0.389771	
-0.388855	
-0.387878	
-0.387024	
-0.386414	
-0.387146	
-0.387024	
-0.386719	
-0.386841	
-0.386475	
-0.387207	
-0.38739	
-0.387329	
-0.387329	
-0.386292	
-0.385864	
-0.384338	
-0.385315	
-0.385437	
-0.385315	
-0.386475	
-0.386414	
-0.386597	
-0.387817	
-0.388245	
-0.387329	
-0.387024	
-0.38623	
-0.387817	
-0.388306	
-0.387329	
-0.386658	
-0.387573	
-0.387573	
-0.387695	
-0.388367	
-0.388794	
-0.387573	
-0.388062	
-0.387817	
-0.38916	
-0.38855	
-0.388672	
-0.389221	
-0.389038	
-0.389404	
-0.390015	
-0.390808	
-0.390747	
-0.390625	
-0.389465	
-0.391235	
-0.391724	
-0.391357	
-0.390869	
-0.390747	
-0.391846	
-0.391785	
-0.3927	
-0.392517	
-0.391541	
-0.391479	
-0.39032	
-0.390869	
-0.391357	
-0.390808	
-0.389832	
-0.389954	
-0.390625	
-0.390503	
-0.392151	
-0.390198	
-0.389771	
-0.389221	
-0.389832	
-0.388245	
-0.388733	
-0.388428	
-0.388123	
-0.388367	
-0.387695	
-0.387207	
-0.388367	
-0.386841	
-0.385986	
-0.38501	
-0.386475	
-0.385559	
-0.385925	
-0.384888	
-0.384766	
-0.38562	
-0.385193	
-0.385315	
-0.385193	
-0.385071	
-0.384827	
-0.382935	
-0.384216	
-0.385132	
-0.385437	
-0.385132	
-0.385498	
-0.386902	
-0.387817	
-0.389771	
-0.388306	
-0.388184	
-0.388367	
-0.388123	
-0.389893	
-0.389343	
-0.389893	
-0.389465	
-0.391541	
-0.391907	
-0.392273	
-0.394226	
-0.393433	
-0.392822	
-0.3927	
-0.393127	
-0.394287	
-0.393066	
-0.392639	
-0.392761	
-0.392944	
-0.393127	
-0.393555	
-0.39386	
-0.392883	
-0.392456	
-0.391663	
-0.391602	
-0.392639	
-0.392395	
-0.391174	
-0.391602	
-0.392212	
-0.3927	
-0.393066	
-0.3927	
-0.391541	
-0.391724	
-0.389954	
-0.391296	
-0.392822	
-0.393555	
-0.392151	
-0.392761	
-0.392151	
-0.392151	
-0.392761	
-0.39093	
-0.389832	
-0.389954	
-0.388489	
-0.390015	
-0.388794	
-0.388611	
-0.389526	
-0.389343	
-0.388855	
-0.389221	
-0.390381	
-0.389038	
-0.388672	
-0.388123	
-0.388855	
-0.389404	
-0.388916	
-0.388245	
-0.386963	
-0.387207	
-0.387817	
-0.388733	
-0.390564	
-0.388428	
-0.389099	
-0.388184	
-0.389771	
-0.38916	
-0.389587	
-0.389954	
-0.389832	
-0.39032	
-0.390381	
-0.392029	
-0.391296	
-0.390808	
-0.390625	
-0.390625	
-0.391602	
-0.391541	
-0.391113	
-0.392151	
-0.393127	
-0.394043	
-0.394043	
-0.395142	
-0.393066	
-0.392944	
-0.393005	
-0.392456	
-0.393494	
-0.393127	
-0.393005	
-0.393127	
-0.393982	
-0.393738	
-0.394531	
-0.395508	
-0.394043	
-0.394714	
-0.393921	
-0.394043	
-0.393982	
-0.394287	
-0.39325	
-0.393555	
-0.393738	
-0.393616	
-0.394226	
-0.393799	
-0.392883	
-0.391785	
-0.391052	
-0.392029	
-0.391296	
-0.390991	
-0.391235	
-0.389587	
-0.391174	
-0.389587	
-0.391357	
-0.390503	
-0.388733	
-0.388672	
-0.388855	
-0.389404	
-0.388733	
-0.388367	
-0.388245	
-0.388123	
-0.388916	
-0.388123	
-0.389709	
-0.388184	
-0.388184	
-0.387573	
-0.387939	
-0.389343	
-0.389526	
-0.389099	
-0.389648	
-0.390564	
-0.391357	
-0.392456	
-0.392761	
-0.392639	
-0.392944	
-0.3927	
-0.393555	
-0.394531	
-0.394287	
-0.394348	
-0.394653	
-0.39563	
-0.39563	
-0.397217	
-0.3974	
-0.396423	
-0.396851	
-0.396118	
-0.398376	
-0.397766	
-0.397156	
-0.396301	
-0.397156	
-0.397949	
-0.398071	
-0.399719	
-0.397766	
-0.396729	
-0.395447	
-0.395996	
-0.396057	
-0.395691	
-0.394897	
-0.394348	
-0.394043	
-0.393921	
-0.394043	
-0.394958	
-0.393127	
-0.392273	
-0.391296	
-0.391296	
-0.391052	
-0.390991	
-0.390442	
-0.389587	
-0.39032	
-0.389954	
-0.390503	
-0.390503	
-0.389526	
-0.389099	
-0.387024	
-0.388977	
-0.389404	
-0.389587	
-0.387939	
-0.388123	
-0.388733	
-0.388428	
-0.390198	
-0.389954	
-0.389404	
-0.388855	
-0.389526	
-0.390198	
-0.389771	
-0.389587	
-0.389282	
-0.389954	
-0.388855	
-0.38855	
-0.389771	
-0.389526	
-0.389954	
-0.390259	
-0.390625	
-0.39032	
-0.390625	
-0.391174	
-0.390808	
-0.391846	
-0.392395	
-0.392578	
-0.393127	
-0.391907	
-0.391846	
-0.390869	
-0.392212	
-0.392151	
-0.391846	
-0.392273	
-0.391846	
-0.392822	
-0.39325	
-0.395203	
-0.39502	
-0.393616	
-0.393127	
-0.392395	
-0.393677	
-0.392639	
-0.392212	
-0.390625	
-0.391907	
-0.391846	
-0.391846	
-0.392761	
-0.392334	
-0.391602	
-0.391357	
-0.391724	
-0.391541	
-0.391602	
-0.391296	
-0.389648	
-0.391174	
-0.390991	
-0.391541	
-0.391479	
-0.39032	
-0.389893	
-0.388428	
-0.390442	
-0.389221	
-0.38916	
-0.388611	
-0.387695	
-0.38855	
-0.388428	
-0.389465	
-0.388977	
-0.388367	
-0.387878	
-0.387634	
-0.388611	
-0.387817	
-0.388	
-0.387512	
-0.387634	
-0.388	
-0.388489	
-0.389404	
-0.389221	
-0.388733	
-0.388794	
-0.388855	
-0.38916	
-0.389282	
-0.389526	
-0.388062	
-0.389648	
-0.390198	
-0.391296	
-0.391357	
-0.390686	
-0.391602	
-0.391174	
-0.392029	
-0.393188	
-0.392883	
-0.39325	
-0.392639	
-0.393494	
-0.393311	
-0.394226	
-0.394226	
-0.394348	
-0.393982	
-0.393372	
-0.394226	
-0.395203	
-0.394531	
-0.394287	
-0.394531	
-0.394592	
-0.394226	
-0.394836	
-0.395081	
-0.394043	
-0.393066	
-0.392334	
-0.392578	
-0.39209	
-0.391418	
-0.389771	
-0.390442	
-0.390442	
-0.390015	
-0.390625	
-0.390015	
-0.388367	
-0.387268	
-0.387207	
-0.38739	
-0.387207	
-0.386475	
-0.384888	
-0.386658	
-0.386841	
-0.386475	
-0.387634	
-0.386597	
-0.386353	
-0.386292	
-0.386658	
-0.386169	
-0.385864	
-0.386292	
-0.38678	
-0.387573	
-0.387634	
-0.387634	
-0.388306	
-0.387634	
-0.387146	
-0.386414	
-0.388977	
-0.387756	
-0.387939	
-0.388184	
-0.388	
-0.387146	
-0.386292	
-0.387268	
-0.387817	
-0.38739	
-0.388184	
-0.387512	
-0.388977	
-0.388916	
-0.388733	
-0.388306	
-0.389648	
-0.390015	
-0.390381	
-0.391846	
-0.392029	
-0.39093	
-0.390564	
-0.391479	
-0.39032	
-0.39032	
-0.390381	
-0.39093	
-0.391418	
-0.391785	
-0.391479	
-0.391907	
-0.391602	
-0.391663	
-0.392151	
-0.393066	
-0.391418	
-0.391418	
-0.390747	
-0.390869	
-0.390869	
-0.390564	
-0.39093	
-0.391602	
-0.389526	
-0.390137	
-0.389282	
-0.388062	
-0.388916	
-0.389099	
-0.388367	
-0.388977	
-0.389099	
-0.388977	
-0.388428	
-0.387451	
-0.386108	
-0.385986	
-0.386658	
-0.385559	
-0.387024	
-0.386719	
-0.385986	
-0.387451	
-0.387939	
-0.386963	
-0.387573	
-0.387634	
-0.386169	
-0.386353	
-0.385071	
-0.38562	
-0.385437	
-0.385193	
-0.384216	
-0.385559	
-0.386414	
-0.386047	
-0.387329	
-0.386597	
-0.386414	
-0.386047	
-0.386963	
-0.38739	
-0.387512	
-0.387756	
-0.387817	
-0.388367	
-0.388245	
-0.389343	
-0.389709	
-0.389709	
-0.389771	
-0.390076	
-0.390442	
-0.391296	
-0.391296	
-0.390503	
-0.391724	
-0.39209	
-0.391968	
-0.392334	
-0.393616	
-0.392456	
-0.391907	
-0.392151	
-0.392334	
-0.392517	
-0.391541	
-0.391479	
-0.392334	
-0.391907	
-0.391907	
-0.391846	
-0.391113	
-0.39093	
-0.390137	
-0.388428	
-0.388489	
-0.388428	
-0.387024	
-0.387634	
-0.38739	
-0.386902	
-0.386658	
-0.388	
-0.386536	
-0.385437	
-0.385193	
-0.384399	
-0.383606	
-0.383911	
-0.382874	
-0.382996	
-0.382446	
-0.382751	
-0.382507	
-0.384216	
-0.381714	
-0.382385	
-0.383057	
-0.381531	
-0.382751	
-0.382996	
-0.382874	
-0.384277	
-0.38501	
-0.385559	
-0.385742	
-0.386475	
-0.386047	
-0.386719	
-0.386108	
-0.386169	
-0.387024	
-0.387207	
-0.388245	
-0.388367	
-0.389526	
-0.390076	
-0.390808	
-0.390442	
-0.390076	
-0.390015	
-0.390015	
-0.390625	
-0.390503	
-0.390259	
-0.391296	
-0.391235	
-0.39093	
-0.391968	
-0.393372	
-0.392395	
-0.391602	
-0.39209	
-0.391785	
-0.391541	
-0.391479	
-0.389954	
-0.390564	
-0.39093	
-0.390686	
-0.391174	
-0.392334	
-0.391907	
-0.390747	
-0.391113	
-0.391418	
-0.392334	
-0.391479	
-0.391357	
-0.390503	
-0.390198	
-0.389893	
-0.389832	
-0.390076	
-0.388672	
-0.388977	
-0.388123	
-0.387146	
-0.388489	
-0.387268	
-0.388367	
-0.388306	
-0.387878	
-0.388611	
-0.389526	
-0.38855	
-0.387268	
-0.387451	
-0.385681	
-0.385864	
-0.386902	
-0.386597	
-0.387817	
-0.388123	
-0.388306	
-0.388123	
-0.389648	
-0.389526	
-0.388977	
-0.389771	
-0.387756	
-0.389038	
-0.388245	
-0.38855	
-0.389038	
-0.388733	
-0.388916	
-0.389343	
-0.390869	
-0.389465	
-0.389587	
-0.390137	
-0.388794	
-0.390198	
-0.389771	
-0.391235	
-0.391052	
-0.391113	
-0.391541	
-0.39209	
-0.392273	
-0.391907	
-0.392639	
-0.391785	
-0.392273	
-0.392212	
-0.391785	
-0.392944	
-0.392761	
-0.392822	
-0.392822	
-0.393677	
-0.39386	
-0.392761	
-0.392883	
-0.390442	
-0.392212	
-0.391724	
-0.391235	
-0.391907	
-0.391479	
-0.391479	
-0.391113	
-0.392395	
-0.391357	
-0.390564	
-0.390625	
-0.388672	
-0.389709	
-0.388611	
-0.388855	
-0.388611	
-0.388	
-0.387329	
-0.388062	
-0.388428	
-0.387085	
-0.387939	
-0.387451	
-0.385742	
-0.386658	
-0.386658	
-0.386108	
-0.386841	
-0.38623	
-0.386292	
-0.386536	
-0.388611	
-0.386169	
-0.386658	
-0.38678	
-0.38678	
-0.386719	
-0.386658	
-0.388123	
-0.388855	
-0.389343	
-0.389709	
-0.390381	
-0.390503	
-0.390564	
-0.391541	
-0.389465	
-0.391296	
-0.391968	
-0.391418	
-0.393311	
-0.393982	
-0.393433	
-0.393616	
-0.394897	
-0.394226	
-0.393921	
-0.394897	
-0.391357	
-0.394836	
-0.39447	
-0.392944	
-0.393799	
-0.394043	
-0.39447	
-0.394165	
-0.395874	
-0.394104	
-0.393982	
-0.394104	
-0.392822	
-0.393677	
-0.393188	
-0.39386	
-0.393616	
-0.393433	
-0.393127	
-0.392761	
-0.394592	
-0.392334	
-0.393494	
-0.393982	
-0.394592	
-0.394348	
	
