E:\DOCUMENTS AND SETTINGS\JPOTAS\MEUS DOCUMENTOS\UFRJ\RSCI-BM 12 WK SERIES\070803-RSCI-BM-11\RSCI-BM-11-REMG\070803-RSCI-BM-11-REMG-0011.ACQ
0.025000 msec/sample
1 channel
Analog input
Volts
CH1	
2000	
-0.392334	
-0.392517	
-0.393982	
-0.393921	
-0.393433	
-0.391663	
-0.390259	
-0.392029	
-0.391724	
-0.390564	
-0.390991	
-0.39093	
-0.391602	
-0.391724	
-0.393494	
-0.393616	
-0.39447	
-0.394226	
-0.392395	
-0.392212	
-0.392761	
-0.392395	
-0.391052	
-0.391907	
-0.39209	
-0.392151	
-0.39325	
-0.392761	
-0.392395	
-0.391724	
-0.392944	
-0.391296	
-0.391785	
-0.39209	
-0.391296	
-0.391235	
-0.391785	
-0.392151	
-0.392944	
-0.393188	
-0.391846	
-0.391602	
-0.392212	
-0.390991	
-0.390564	
-0.391357	
-0.391418	
-0.390686	
-0.39209	
-0.391846	
-0.392151	
-0.392883	
-0.392822	
-0.391418	
-0.392151	
-0.392883	
-0.392273	
-0.391357	
-0.391785	
-0.392212	
-0.392395	
-0.393677	
-0.393555	
-0.393677	
-0.394104	
-0.393127	
-0.393555	
-0.393799	
-0.393677	
-0.393372	
-0.393372	
-0.394104	
-0.393982	
-0.394531	
-0.394348	
-0.395203	
-0.394714	
-0.394836	
-0.394348	
-0.393127	
-0.393188	
-0.393982	
-0.39325	
-0.393677	
-0.39386	
-0.394104	
-0.393738	
-0.394104	
-0.392822	
-0.392822	
-0.391724	
-0.39325	
-0.392395	
-0.392883	
-0.393188	
-0.393616	
-0.393982	
-0.39386	
-0.394409	
-0.393738	
-0.392639	
-0.392273	
-0.391968	
-0.391541	
-0.391296	
-0.391174	
-0.391296	
-0.391785	
-0.391785	
-0.391541	
-0.392273	
-0.391846	
-0.391235	
-0.390442	
-0.390503	
-0.390381	
-0.390686	
-0.389771	
-0.390625	
-0.390381	
-0.391541	
-0.391113	
-0.391602	
-0.390808	
-0.391418	
-0.391418	
-0.390442	
-0.391052	
-0.391724	
-0.391968	
-0.392151	
-0.392578	
-0.39386	
-0.392883	
-0.394165	
-0.3927	
-0.393982	
-0.393982	
-0.393372	
-0.392639	
-0.393494	
-0.39386	
-0.394653	
-0.394348	
-0.394653	
-0.394592	
-0.395142	
-0.394409	
-0.394592	
-0.393738	
-0.394836	
-0.393799	
-0.39447	
-0.395081	
-0.395325	
-0.395752	
-0.395264	
-0.396057	
-0.395081	
-0.39502	
-0.395325	
-0.393738	
-0.395447	
-0.393921	
-0.39502	
-0.395081	
-0.394714	
-0.395386	
-0.395447	
-0.397278	
-0.396851	
-0.397583	
-0.395996	
-0.395081	
-0.394714	
-0.394531	
-0.393494	
-0.392212	
-0.39209	
-0.391907	
-0.392578	
-0.393555	
-0.392517	
-0.39325	
-0.392151	
-0.392639	
-0.392761	
-0.392822	
-0.392639	
-0.392944	
-0.392822	
-0.392517	
-0.393311	
-0.393494	
-0.392273	
-0.392456	
-0.391479	
-0.389404	
-0.384338	
-0.384155	
-0.384705	
-0.38562	
-0.385437	
-0.388794	
-0.394104	
-0.394104	
-0.393738	
-0.393005	
-0.392395	
-0.393127	
-0.3927	
-0.392212	
-0.393066	
-0.393311	
-0.392944	
-0.393066	
-0.394287	
-0.392334	
-0.393372	
-0.393494	
-0.392822	
-0.392822	
-0.3927	
-0.393066	
-0.392822	
-0.393066	
-0.392883	
-0.392578	
-0.393982	
-0.392029	
-0.3927	
-0.392883	
-0.392761	
-0.392517	
-0.39209	
-0.392883	
-0.391907	
-0.393066	
-0.392517	
-0.391907	
-0.391785	
-0.391663	
-0.392578	
-0.389832	
-0.391663	
-0.390686	
-0.39093	
-0.391174	
-0.391785	
-0.391296	
-0.390625	
-0.391541	
-0.39032	
-0.390198	
-0.391052	
-0.387939	
-0.389465	
-0.387939	
-0.389343	
-0.388977	
-0.389221	
-0.388733	
-0.388672	
-0.39032	
-0.388062	
-0.389893	
-0.389343	
-0.388428	
-0.388489	
-0.388062	
-0.388916	
-0.388367	
-0.389465	
-0.38855	
-0.389343	
-0.388794	
-0.389465	
-0.390869	
-0.388672	
-0.391052	
-0.390869	
-0.390808	
-0.392029	
-0.392334	
-0.393066	
-0.39325	
-0.394348	
-0.393677	
-0.394714	
-0.396118	
-0.394226	
-0.396545	
-0.396606	
-0.39856	
-0.398987	
-0.399963	
-0.400513	
-0.401001	
-0.40271	
-0.401428	
-0.403503	
-0.403137	
-0.404419	
-0.404785	
-0.405151	
-0.40564	
-0.405762	
-0.407043	
-0.407104	
-0.408813	
-0.407532	
-0.409302	
-0.409973	
-0.408691	
-0.409973	
-0.410706	
-0.412537	
-0.412964	
-0.413757	
-0.413574	
-0.4151	
-0.416077	
-0.414551	
-0.41748	
-0.414978	
-0.416199	
-0.41626	
-0.418152	
-0.417847	
-0.41803	
-0.418762	
-0.418823	
-0.419861	
-0.418335	
-0.419312	
-0.417603	
-0.418091	
-0.418274	
-0.420959	
-0.422974	
-0.4245	
-0.425049	
-0.424133	
-0.424744	
-0.422852	
-0.424622	
-0.421509	
-0.420349	
-0.420532	
-0.419617	
-0.421204	
-0.421509	
-0.421936	
-0.420837	
-0.421326	
-0.419861	
-0.419983	
-0.419922	
-0.417786	
-0.418091	
-0.41687	
-0.417786	
-0.416931	
-0.416992	
-0.415405	
-0.415955	
-0.4151	
-0.413147	
-0.414001	
-0.411804	
-0.410645	
-0.408997	
-0.408508	
-0.407593	
-0.406494	
-0.406311	
-0.404602	
-0.404236	
-0.402832	
-0.401733	
-0.400024	
-0.398254	
-0.397644	
-0.394714	
-0.393921	
-0.392822	
-0.391418	
-0.390015	
-0.38916	
-0.388	
-0.385132	
-0.385376	
-0.382202	
-0.381287	
-0.379944	
-0.377625	
-0.376953	
-0.373047	
-0.367126	
-0.36438	
-0.364502	
-0.363464	
-0.362244	
-0.365784	
-0.368774	
-0.368408	
-0.367737	
-0.367493	
-0.367004	
-0.366333	
-0.367188	
-0.366394	
-0.366028	
-0.365173	
-0.364502	
-0.361938	
-0.36084	
-0.359741	
-0.35791	
-0.357666	
-0.357056	
-0.355713	
-0.354614	
-0.354675	
-0.353455	
-0.35199	
-0.351379	
-0.349243	
-0.348694	
-0.347534	
-0.347595	
-0.347595	
-0.347778	
-0.347595	
-0.347595	
-0.348389	
-0.347168	
-0.348755	
-0.346741	
-0.347778	
-0.347961	
-0.347534	
-0.348755	
-0.349243	
-0.350159	
-0.350281	
-0.35144	
-0.350891	
-0.351624	
-0.35144	
-0.350769	
-0.351257	
-0.350403	
-0.351868	
-0.351929	
-0.352539	
-0.35199	
-0.353394	
-0.353149	
-0.351929	
-0.351746	
-0.35144	
-0.352417	
-0.350891	
-0.352234	
-0.353333	
-0.353516	
-0.35376	
-0.353271	
-0.354736	
-0.352844	
-0.354126	
-0.352417	
-0.353699	
-0.353088	
-0.354614	
-0.355042	
-0.356384	
-0.35675	
-0.357117	
-0.358521	
-0.357727	
-0.359741	
-0.358398	
-0.361206	
-0.362183	
-0.362488	
-0.364441	
-0.36554	
-0.366577	
-0.367737	
-0.369934	
-0.370544	
-0.370911	
-0.372009	
-0.373108	
-0.373413	
-0.374268	
-0.37677	
-0.377625	
-0.378235	
-0.37738	
-0.378479	
-0.377747	
-0.381409	
-0.380981	
-0.380371	
-0.382202	
-0.381714	
-0.38385	
-0.385742	
-0.387756	
-0.389038	
-0.390137	
-0.392578	
-0.391418	
-0.393738	
-0.393066	
-0.394409	
-0.394348	
-0.396484	
-0.397583	
-0.398926	
-0.399902	
-0.399963	
-0.40155	
-0.400452	
-0.401794	
-0.401489	
-0.40155	
-0.401367	
-0.401245	
-0.402527	
-0.403076	
-0.403809	
-0.40448	
-0.406494	
-0.406006	
-0.406006	
-0.404968	
-0.406677	
-0.40686	
-0.406311	
-0.407043	
-0.407715	
-0.407043	
-0.407166	
-0.40625	
-0.40686	
-0.405884	
-0.403931	
-0.403687	
-0.40332	
-0.402161	
-0.401245	
-0.401611	
-0.399597	
-0.399475	
-0.397339	
-0.397644	
-0.395813	
-0.39502	
-0.394714	
-0.393188	
-0.392212	
-0.392883	
-0.392883	
-0.392212	
-0.391418	
-0.389404	
-0.390259	
-0.389709	
-0.389038	
-0.38916	
-0.387756	
-0.387756	
-0.387756	
-0.38678	
-0.386536	
-0.387085	
-0.384033	
-0.384338	
-0.383484	
-0.381958	
-0.38092	
-0.3797	
-0.37738	
-0.377197	
-0.376343	
-0.373901	
-0.37207	
-0.371399	
-0.369446	
-0.367737	
-0.367859	
-0.366028	
-0.364746	
-0.363403	
-0.363708	
-0.363586	
-0.363098	
-0.36377	
-0.36438	
-0.363708	
-0.364014	
-0.363953	
-0.361633	
-0.362122	
-0.361023	
-0.358582	
-0.358459	
-0.357788	
-0.355652	
-0.354065	
-0.353455	
-0.350708	
-0.350159	
-0.350037	
-0.348694	
-0.347961	
-0.346985	
-0.347046	
-0.347351	
-0.346252	
-0.345764	
-0.347168	
-0.345825	
-0.345886	
-0.347229	
-0.346252	
-0.346741	
-0.347046	
-0.348145	
-0.349365	
-0.349915	
-0.350098	
-0.35144	
-0.351929	
-0.352173	
-0.352722	
-0.351135	
-0.352112	
-0.3526	
-0.352783	
-0.353699	
-0.353821	
-0.353394	
-0.353943	
-0.35498	
-0.353699	
-0.354065	
-0.354248	
-0.354309	
-0.35437	
-0.354126	
-0.354553	
-0.355774	
-0.354431	
-0.355225	
-0.356384	
-0.356079	
-0.356628	
-0.357605	
-0.357422	
-0.357971	
-0.357239	
-0.358215	
-0.359253	
-0.360168	
-0.361206	
-0.362	
-0.359436	
-0.359436	
-0.359802	
-0.360718	
-0.361084	
-0.361023	
-0.362183	
-0.363464	
-0.363342	
-0.364868	
-0.367493	
-0.367798	
-0.368286	
-0.368958	
-0.368286	
-0.368713	
-0.36908	
-0.369507	
-0.370789	
-0.371033	
-0.370911	
-0.371643	
-0.372559	
-0.372375	
-0.373352	
-0.372314	
-0.373291	
-0.372986	
-0.372742	
-0.373779	
-0.374451	
-0.373474	
-0.373413	
-0.374695	
-0.373962	
-0.374023	
-0.374207	
-0.372986	
-0.373901	
-0.372742	
-0.374146	
-0.374084	
-0.374573	
-0.374084	
-0.374939	
-0.374634	
-0.375427	
-0.375854	
-0.375244	
-0.375366	
-0.375183	
-0.375488	
-0.376953	
-0.378052	
-0.377441	
-0.378296	
-0.37793	
-0.378418	
-0.379944	
-0.378479	
-0.379761	
-0.379944	
-0.377747	
-0.380432	
-0.381165	
-0.380615	
-0.38031	
-0.381042	
-0.381104	
-0.381226	
-0.382874	
-0.380493	
-0.381592	
-0.381348	
-0.381653	
-0.382141	
-0.381531	
-0.381592	
-0.381409	
-0.382324	
-0.382385	
-0.381653	
-0.380066	
-0.381592	
-0.380981	
-0.380371	
-0.382385	
-0.382507	
-0.382385	
-0.382751	
-0.38269	
-0.383484	
-0.383423	
-0.382935	
-0.383667	
-0.38385	
-0.383118	
-0.383606	
-0.383423	
-0.383789	
-0.384155	
-0.383484	
-0.384766	
-0.384827	
-0.38385	
-0.384888	
-0.385437	
-0.384644	
-0.385437	
-0.385498	
-0.384827	
-0.384766	
-0.383972	
-0.385925	
-0.384888	
-0.383606	
-0.384827	
-0.385254	
-0.38562	
-0.385925	
-0.386414	
-0.386902	
-0.386536	
-0.386536	
-0.386536	
-0.386902	
-0.387512	
-0.38678	
-0.386047	
-0.387024	
-0.387756	
-0.388672	
-0.387817	
-0.387817	
-0.387573	
-0.388794	
-0.389099	
-0.388367	
-0.387451	
-0.388062	
-0.388794	
-0.387573	
-0.389648	
-0.388367	
-0.388733	
-0.389404	
-0.389709	
-0.389648	
-0.388672	
-0.387939	
-0.388672	
-0.388672	
-0.389099	
-0.388855	
-0.388611	
-0.387939	
-0.388123	
-0.387634	
-0.388489	
-0.388123	
-0.387634	
-0.388	
-0.388184	
-0.387146	
-0.388489	
-0.389587	
-0.389221	
-0.38916	
-0.389526	
-0.388	
-0.388	
-0.387512	
-0.385986	
-0.383667	
-0.385559	
-0.385315	
-0.386353	
-0.385986	
-0.38623	
-0.386963	
-0.387451	
-0.388	
-0.388	
-0.386047	
-0.387451	
-0.387512	
-0.387512	
-0.388184	
-0.387817	
-0.387756	
-0.387512	
-0.389404	
-0.388245	
-0.388	
-0.387878	
-0.388184	
-0.388062	
-0.388062	
-0.388733	
-0.388855	
-0.38855	
-0.388733	
-0.389648	
-0.388672	
-0.388611	
-0.388062	
-0.387573	
-0.388	
-0.387878	
-0.388062	
-0.387695	
-0.387939	
-0.387756	
-0.387878	
-0.388	
-0.387634	
-0.387024	
-0.387451	
-0.386414	
-0.386963	
-0.386047	
-0.387756	
-0.386597	
-0.386353	
-0.386414	
-0.388123	
-0.386963	
-0.385986	
-0.386475	
-0.386475	
-0.386169	
-0.385925	
-0.386536	
-0.385742	
-0.385803	
-0.385437	
-0.385864	
-0.385559	
-0.385193	
-0.38501	
-0.383728	
-0.38385	
-0.384521	
-0.383972	
-0.384583	
-0.384338	
-0.383911	
-0.383911	
-0.384583	
-0.384033	
-0.383362	
-0.382263	
-0.382385	
-0.382568	
-0.38208	
-0.382629	
-0.382263	
-0.382507	
-0.382751	
-0.382263	
-0.384399	
-0.383423	
-0.383423	
-0.382019	
-0.383606	
-0.383362	
-0.383789	
-0.384216	
-0.384216	
-0.384216	
-0.384216	
-0.385742	
-0.385437	
-0.386414	
-0.385498	
-0.385681	
-0.386658	
-0.386719	
-0.387695	
-0.387146	
-0.387268	
-0.386719	
-0.388367	
-0.388245	
-0.387939	
-0.386841	
-0.386414	
-0.388	
-0.386536	
-0.388062	
-0.387756	
-0.387207	
-0.387085	
-0.387268	
-0.387695	
-0.386719	
-0.387329	
-0.38678	
-0.387268	
-0.386902	
-0.38678	
-0.38739	
-0.386597	
-0.387207	
-0.387146	
-0.387573	
-0.387573	
-0.387268	
-0.386414	
-0.386169	
-0.386353	
-0.386536	
-0.38678	
-0.385864	
-0.386169	
-0.385498	
-0.385742	
-0.386597	
-0.386047	
-0.384888	
-0.383362	
-0.384399	
-0.383423	
-0.384094	
-0.383972	
-0.384155	
-0.384338	
-0.382629	
-0.383789	
-0.38385	
-0.382202	
-0.381042	
-0.381104	
-0.382446	
-0.383667	
-0.386169	
-0.38501	
-0.384949	
-0.384094	
-0.384766	
-0.385315	
-0.384827	
-0.383118	
-0.381592	
-0.381775	
-0.381531	
-0.382996	
-0.383606	
-0.383362	
-0.383057	
-0.382629	
-0.385071	
-0.384033	
-0.384033	
-0.382446	
-0.38269	
-0.382202	
-0.382996	
-0.383606	
-0.382629	
-0.382324	
-0.381653	
-0.383057	
-0.383301	
-0.383179	
-0.382263	
-0.382385	
-0.381165	
-0.380981	
-0.383179	
-0.383179	
-0.382507	
-0.382385	
-0.382446	
-0.383301	
-0.383301	
-0.383484	
-0.382263	
-0.382202	
-0.381165	
-0.382507	
-0.383118	
-0.382629	
-0.382813	
-0.382507	
-0.383667	
-0.382874	
-0.383728	
-0.382507	
-0.381165	
-0.381714	
-0.381897	
-0.381775	
-0.382141	
-0.382629	
-0.382019	
-0.38147	
-0.382751	
-0.382996	
-0.382019	
-0.380554	
-0.381165	
-0.381226	
-0.382263	
-0.38269	
-0.382507	
-0.382324	
-0.382568	
-0.383972	
-0.383911	
-0.384277	
-0.382813	
-0.383057	
-0.383118	
-0.382385	
-0.38385	
-0.385193	
-0.384399	
-0.38446	
-0.38501	
-0.385193	
-0.384949	
-0.384644	
-0.38385	
-0.383789	
-0.38208	
-0.38446	
-0.38446	
-0.384094	
-0.384033	
-0.385376	
-0.386169	
-0.384949	
-0.386292	
-0.384888	
-0.384277	
-0.384155	
-0.385193	
-0.38501	
-0.384949	
-0.385071	
-0.385376	
-0.384827	
-0.386169	
-0.385864	
-0.385864	
-0.383972	
-0.385071	
-0.384338	
-0.385559	
-0.385681	
-0.385071	
-0.384583	
-0.384644	
-0.384888	
-0.38446	
-0.385193	
-0.384338	
-0.382751	
-0.383484	
-0.382385	
-0.383545	
-0.383728	
-0.383362	
-0.382568	
-0.38208	
-0.384216	
-0.382629	
-0.382935	
-0.381653	
-0.38208	
-0.381042	
-0.382141	
-0.38324	
-0.382324	
-0.382019	
-0.381958	
-0.382996	
-0.381775	
-0.383728	
-0.381836	
-0.381775	
-0.381165	
-0.381409	
-0.381409	
-0.382507	
-0.382141	
-0.382385	
-0.381958	
-0.381042	
-0.381531	
-0.382507	
-0.379333	
-0.380798	
-0.380859	
-0.381775	
-0.380249	
-0.379211	
-0.378967	
-0.379761	
-0.380798	
-0.381531	
-0.382324	
-0.381226	
-0.38208	
-0.381226	
-0.383362	
-0.38446	
-0.385742	
-0.384583	
-0.384216	
-0.383789	
-0.384827	
-0.384155	
-0.383545	
-0.382813	
-0.383423	
-0.382751	
-0.384033	
-0.384277	
-0.383911	
-0.383606	
-0.383789	
-0.38385	
-0.384399	
-0.385498	
-0.383972	
-0.384094	
-0.383972	
-0.383057	
-0.384583	
-0.384583	
-0.38385	
-0.384277	
-0.384094	
-0.384888	
-0.384216	
-0.384766	
-0.383118	
-0.383545	
-0.383728	
-0.38446	
-0.384277	
-0.384277	
-0.384338	
-0.38446	
-0.384094	
-0.38446	
-0.384766	
-0.383606	
-0.382874	
-0.382996	
-0.384399	
-0.384399	
-0.384827	
-0.384094	
-0.384338	
-0.384399	
-0.385681	
-0.38501	
-0.384583	
-0.38385	
-0.384583	
-0.383362	
-0.384644	
-0.385437	
-0.385803	
-0.384949	
-0.385437	
-0.385803	
-0.386047	
-0.386353	
-0.385071	
-0.38385	
-0.385559	
-0.384766	
-0.38623	
-0.386841	
-0.386292	
-0.386963	
-0.386963	
-0.388	
-0.387756	
-0.388428	
-0.386658	
-0.387207	
-0.388123	
-0.388245	
-0.388611	
-0.390137	
-0.389038	
-0.389526	
-0.389587	
-0.389282	
-0.389038	
-0.388611	
-0.387695	
-0.388	
-0.387451	
-0.388062	
-0.388	
-0.388306	
-0.387695	
-0.387756	
-0.38678	
-0.387024	
-0.387146	
-0.385498	
-0.38501	
-0.384705	
-0.38562	
-0.385376	
-0.385681	
-0.385559	
-0.384888	
-0.384338	
-0.385376	
-0.385742	
-0.385132	
-0.385071	
-0.384521	
-0.384155	
-0.385498	
-0.385925	
-0.385559	
-0.384949	
-0.38562	
-0.385193	
-0.385559	
-0.385986	
-0.384277	
-0.384888	
-0.384277	
-0.386169	
-0.385864	
-0.38623	
-0.385315	
-0.386047	
-0.385742	
-0.385803	
-0.386597	
-0.387146	
-0.384766	
-0.38623	
-0.38623	
-0.387085	
-0.387024	
-0.387634	
-0.38739	
-0.38739	
-0.388367	
-0.388367	
-0.388062	
-0.387207	
-0.38739	
-0.387634	
-0.388306	
-0.388855	
-0.389343	
-0.388855	
-0.388611	
-0.388489	
-0.38916	
-0.389832	
-0.390442	
-0.390076	
-0.387695	
-0.38739	
-0.387268	
-0.387329	
-0.388306	
-0.387573	
-0.387451	
-0.388672	
-0.388062	
-0.388	
-0.389221	
-0.389038	
-0.388672	
-0.388855	
-0.388672	
-0.388367	
-0.388306	
-0.388184	
-0.388977	
-0.388733	
-0.388977	
-0.389099	
-0.387268	
-0.387451	
-0.387878	
-0.388489	
-0.388916	
-0.389771	
-0.388794	
-0.388855	
-0.389526	
-0.389587	
-0.388672	
-0.388733	
-0.388123	
-0.388306	
-0.388184	
-0.388306	
-0.388245	
-0.388489	
-0.387878	
-0.388794	
-0.388794	
-0.388977	
-0.38855	
-0.388245	
-0.387756	
-0.388	
-0.388062	
-0.388611	
-0.389282	
-0.38855	
-0.388977	
-0.389038	
-0.389465	
-0.389465	
-0.389709	
-0.38855	
-0.388611	
-0.390259	
-0.389343	
-0.389954	
-0.390381	
-0.389709	
-0.390686	
-0.389954	
-0.391235	
-0.390442	
-0.389587	
-0.389221	
-0.390564	
-0.390625	
-0.390686	
-0.390991	
-0.39093	
-0.390442	
-0.390503	
-0.391235	
-0.390259	
-0.39032	
-0.390076	
-0.388611	
-0.389954	
-0.389038	
-0.389343	
-0.388794	
-0.388916	
-0.38916	
-0.389282	
-0.390564	
-0.389648	
-0.390198	
-0.389038	
-0.389282	
-0.388672	
-0.388794	
-0.389587	
-0.388123	
-0.388489	
-0.388062	
-0.388123	
-0.38855	
-0.388489	
-0.386902	
-0.38623	
-0.388245	
-0.387695	
-0.387817	
-0.388245	
-0.387451	
-0.387085	
-0.387939	
-0.388489	
-0.38739	
-0.388123	
-0.386719	
-0.387451	
-0.387207	
-0.387756	
-0.387695	
-0.387451	
-0.387817	
-0.387512	
-0.388062	
-0.389648	
-0.388672	
-0.388367	
-0.38855	
-0.389038	
-0.388367	
-0.389771	
-0.389893	
-0.389526	
-0.389832	
-0.389343	
-0.391052	
-0.390442	
-0.391052	
-0.390259	
-0.390991	
-0.390686	
-0.391052	
-0.391357	
-0.390991	
-0.390991	
-0.390808	
-0.392456	
-0.3927	
-0.391602	
-0.392212	
-0.39093	
-0.391846	
-0.391235	
-0.391602	
-0.392212	
-0.391846	
-0.391418	
-0.391663	
-0.3927	
-0.392151	
-0.392151	
-0.391296	
-0.390564	
-0.391479	
-0.391479	
-0.393372	
-0.393494	
-0.3927	
-0.392334	
-0.393311	
-0.393005	
-0.391968	
-0.390808	
-0.388733	
-0.388794	
-0.388611	
-0.389587	
-0.389282	
-0.389404	
-0.389465	
-0.388733	
-0.390686	
-0.389648	
-0.390137	
-0.388916	
-0.387634	
-0.389221	
-0.388611	
-0.390259	
-0.389343	
-0.389099	
-0.388794	
-0.38916	
-0.389771	
-0.389038	
-0.389465	
-0.388123	
-0.38739	
-0.389038	
-0.389648	
-0.390076	
-0.389954	
-0.389465	
-0.388855	
-0.390564	
-0.390808	
-0.38916	
-0.388489	
-0.388916	
-0.389099	
-0.388428	
-0.389832	
-0.389343	
-0.389099	
-0.389465	
-0.390015	
-0.390137	
-0.389648	
-0.390076	
-0.389099	
-0.387756	
-0.389343	
-0.388855	
-0.389099	
-0.389343	
-0.389404	
-0.388306	
-0.389404	
-0.390381	
-0.389038	
-0.389465	
-0.388	
-0.388245	
-0.388306	
-0.389099	
-0.388855	
-0.38855	
-0.388733	
-0.388611	
-0.389587	
-0.389893	
-0.389282	
-0.387939	
-0.386963	
-0.388123	
-0.387634	
-0.388	
-0.388	
-0.387573	
-0.386353	
-0.386719	
-0.388367	
-0.386475	
-0.386902	
-0.385071	
-0.384155	
-0.384888	
-0.385986	
-0.385071	
-0.385254	
-0.385925	
-0.385681	
-0.386414	
-0.387451	
-0.386108	
-0.385986	
-0.38501	
-0.385559	
-0.384827	
-0.386902	
-0.386414	
-0.386536	
-0.387024	
-0.387634	
-0.388672	
-0.388733	
-0.389343	
-0.387634	
-0.387329	
-0.388794	
-0.389221	
-0.389038	
-0.388855	
-0.388611	
-0.388489	
-0.389221	
-0.390015	
-0.389343	
-0.389832	
-0.387634	
-0.388306	
-0.388611	
-0.389465	
-0.388489	
-0.388367	
-0.388672	
-0.388794	
-0.389343	
-0.389404	
-0.388977	
-0.388245	
-0.387634	
-0.387939	
-0.388306	
-0.389099	
-0.38855	
-0.388245	
-0.387878	
-0.389221	
-0.390015	
-0.389038	
-0.388611	
-0.387085	
-0.387268	
-0.387329	
-0.388489	
-0.387817	
-0.387451	
-0.38739	
-0.387085	
-0.38739	
-0.386963	
-0.386963	
-0.386292	
-0.384155	
-0.385742	
-0.385681	
-0.385864	
-0.385803	
-0.385132	
-0.384521	
-0.384399	
-0.385376	
-0.385315	
-0.38678	
-0.387085	
-0.38739	
-0.387512	
-0.387695	
-0.386719	
-0.386902	
-0.386902	
-0.385376	
-0.385193	
-0.385376	
-0.385803	
-0.385498	
-0.383728	
-0.384277	
-0.386047	
-0.386414	
-0.385986	
-0.386169	
-0.385559	
-0.38623	
-0.387512	
-0.387024	
-0.386841	
-0.385742	
-0.385803	
-0.384949	
-0.386536	
-0.385437	
-0.385925	
-0.385376	
-0.385681	
-0.385681	
-0.387207	
-0.386902	
-0.386047	
-0.385498	
-0.386108	
-0.38562	
-0.386658	
-0.386658	
-0.38678	
-0.385559	
-0.386414	
-0.386902	
-0.387024	
-0.386475	
-0.385437	
-0.385315	
-0.38501	
-0.386169	
-0.385925	
-0.386169	
-0.385925	
-0.385498	
-0.385986	
-0.38678	
-0.386414	
-0.384827	
-0.383972	
-0.384216	
-0.38385	
-0.385254	
-0.384338	
-0.384521	
-0.383972	
-0.384277	
-0.385254	
-0.384949	
-0.384338	
-0.384094	
-0.38269	
-0.382874	
-0.385071	
-0.384521	
-0.384216	
-0.384766	
-0.383972	
-0.384766	
-0.386536	
-0.386536	
-0.385925	
-0.385315	
-0.385986	
-0.386047	
-0.386719	
-0.386719	
-0.386108	
-0.385864	
-0.386047	
-0.386169	
-0.386841	
-0.387024	
-0.385742	
-0.384827	
-0.386108	
-0.38739	
-0.387085	
-0.387146	
-0.386841	
-0.38623	
-0.387634	
-0.388	
-0.387085	
-0.387634	
-0.38678	
-0.385315	
-0.385742	
-0.387329	
-0.38739	
-0.387207	
-0.387329	
-0.386475	
-0.388062	
-0.390015	
-0.388428	
-0.386902	
-0.38678	
-0.387268	
-0.387146	
-0.387695	
-0.386841	
-0.386719	
-0.386108	
-0.386047	
-0.386536	
-0.387146	
-0.387085	
-0.385986	
-0.384583	
-0.384888	
-0.385437	
-0.385681	
-0.384766	
-0.38501	
-0.384033	
-0.385254	
-0.385986	
-0.38501	
-0.38562	
-0.384521	
-0.384094	
-0.384338	
-0.385193	
-0.385071	
-0.385071	
-0.385376	
-0.38385	
-0.384644	
-0.385986	
-0.385681	
-0.38446	
-0.383484	
-0.384033	
-0.384766	
-0.385254	
-0.384277	
-0.384827	
-0.384521	
-0.384338	
-0.38501	
-0.38501	
-0.384766	
-0.382141	
-0.380981	
-0.381531	
-0.38324	
-0.384583	
-0.383606	
-0.383606	
-0.384521	
-0.385315	
-0.386536	
-0.387634	
-0.387085	
-0.386658	
-0.38623	
-0.384949	
-0.38678	
-0.387268	
-0.386475	
-0.386169	
-0.386047	
-0.387329	
-0.386719	
-0.387024	
-0.386108	
-0.384094	
-0.384705	
-0.386475	
-0.387207	
-0.38678	
-0.386841	
-0.386719	
-0.386719	
-0.387634	
-0.386902	
-0.387024	
-0.386169	
-0.385925	
-0.385071	
-0.386292	
-0.387268	
-0.386292	
-0.385803	
-0.386536	
-0.387329	
-0.387634	
-0.387695	
-0.38623	
-0.38562	
-0.386169	
-0.385315	
-0.386108	
-0.386841	
-0.38623	
-0.386108	
-0.385437	
-0.387817	
-0.386902	
-0.387329	
-0.386047	
-0.386169	
-0.385681	
-0.387146	
-0.387207	
-0.386841	
-0.386292	
-0.387146	
-0.386902	
-0.387817	
-0.387268	
-0.386963	
-0.38623	
-0.386902	
-0.385925	
-0.387878	
-0.388306	
-0.386963	
-0.387207	
-0.387451	
-0.388184	
-0.388367	
-0.389221	
-0.38855	
-0.38678	
-0.387817	
-0.388672	
-0.389587	
-0.389526	
-0.389832	
-0.390381	
-0.38916	
-0.392517	
-0.391968	
-0.391724	
-0.39093	
-0.391113	
-0.391052	
-0.391174	
-0.392456	
-0.390381	
-0.391052	
-0.390808	
-0.391296	
-0.392029	
-0.391418	
-0.390259	
-0.389648	
-0.389954	
-0.388733	
-0.389709	
-0.389832	
-0.388367	
-0.387939	
-0.387878	
-0.388306	
-0.387756	
-0.38855	
-0.387329	
-0.38562	
-0.385681	
-0.386536	
-0.387634	
-0.38678	
-0.387146	
-0.386719	
-0.387268	
-0.388855	
-0.388672	
-0.387756	
-0.387024	
-0.387329	
-0.386353	
-0.387512	
-0.387451	
-0.387634	
-0.388123	
-0.38678	
-0.388489	
-0.389954	
-0.38916	
-0.387939	
-0.386963	
-0.387573	
-0.387695	
-0.387878	
-0.387878	
-0.388306	
-0.388489	
-0.388062	
-0.389832	
-0.390137	
-0.389832	
-0.388916	
-0.387756	
-0.389526	
-0.390381	
-0.390625	
-0.390015	
-0.389709	
-0.390381	
-0.391174	
-0.392151	
-0.391235	
-0.390442	
-0.390198	
-0.390015	
-0.390381	
	
