E:\DOCUMENTS AND SETTINGS\JPOTAS\MEUS DOCUMENTOS\UFRJ\RSCI-BM 12 WK SERIES\070803-RSCI-BM-11\RSCI-BM-11-REMG\070803-RSCI-BM-11-REMG-0003.ACQ
0.025000 msec/sample
1 channel
Analog input
Volts
CH1	
2000	
-0.394409	
-0.394104	
-0.393921	
-0.391968	
-0.393188	
-0.391418	
-0.390564	
-0.388794	
-0.390259	
-0.389465	
-0.389282	
-0.389343	
-0.388245	
-0.388184	
-0.388245	
-0.388611	
-0.387817	
-0.386719	
-0.384888	
-0.383972	
-0.386169	
-0.386414	
-0.386292	
-0.386902	
-0.386353	
-0.386597	
-0.387207	
-0.38678	
-0.38678	
-0.386414	
-0.386475	
-0.385498	
-0.387024	
-0.387451	
-0.387695	
-0.388672	
-0.387939	
-0.387878	
-0.388855	
-0.389832	
-0.388977	
-0.387756	
-0.387268	
-0.388062	
-0.389221	
-0.389587	
-0.389465	
-0.390259	
-0.390259	
-0.389404	
-0.389771	
-0.389893	
-0.389771	
-0.390381	
-0.390564	
-0.389526	
-0.390747	
-0.391296	
-0.391296	
-0.392761	
-0.392456	
-0.392578	
-0.392822	
-0.393311	
-0.393188	
-0.394165	
-0.394165	
-0.392944	
-0.393799	
-0.393311	
-0.392822	
-0.393921	
-0.393433	
-0.393555	
-0.393433	
-0.391968	
-0.391846	
-0.391602	
-0.391357	
-0.389648	
-0.391235	
-0.391418	
-0.392151	
-0.39325	
-0.391968	
-0.392029	
-0.392151	
-0.39209	
-0.391541	
-0.390991	
-0.390442	
-0.391174	
-0.391357	
-0.390991	
-0.391113	
-0.390991	
-0.391296	
-0.390625	
-0.391907	
-0.389771	
-0.390259	
-0.389343	
-0.388672	
-0.387939	
-0.389709	
-0.388306	
-0.387329	
-0.388672	
-0.388428	
-0.388672	
-0.389526	
-0.388977	
-0.389465	
-0.38739	
-0.38739	
-0.388733	
-0.389771	
-0.388916	
-0.389709	
-0.390198	
-0.389709	
-0.390259	
-0.391418	
-0.390869	
-0.390625	
-0.390015	
-0.390564	
-0.389893	
-0.391663	
-0.390747	
-0.390991	
-0.392334	
-0.391663	
-0.391052	
-0.391602	
-0.392822	
-0.392212	
-0.391113	
-0.392212	
-0.392883	
-0.3927	
-0.393433	
-0.393311	
-0.393738	
-0.393494	
-0.393188	
-0.394104	
-0.394226	
-0.393433	
-0.39209	
-0.3927	
-0.392395	
-0.391541	
-0.391663	
-0.391174	
-0.391296	
-0.389893	
-0.390686	
-0.390015	
-0.390259	
-0.388916	
-0.38739	
-0.387451	
-0.387024	
-0.387024	
-0.386902	
-0.386597	
-0.386414	
-0.38562	
-0.386414	
-0.38623	
-0.38623	
-0.385315	
-0.383972	
-0.384521	
-0.383911	
-0.384827	
-0.385071	
-0.384888	
-0.385315	
-0.38562	
-0.385986	
-0.385803	
-0.386292	
-0.385925	
-0.385376	
-0.38501	
-0.38562	
-0.385925	
-0.385925	
-0.386292	
-0.386292	
-0.38739	
-0.388367	
-0.387207	
-0.388306	
-0.388	
-0.384399	
-0.384033	
-0.388367	
-0.389832	
-0.390015	
-0.390625	
-0.390808	
-0.390869	
-0.392639	
-0.391663	
-0.392212	
-0.392395	
-0.39209	
-0.392334	
-0.392639	
-0.394043	
-0.392822	
-0.393799	
-0.393311	
-0.392822	
-0.394165	
-0.392212	
-0.3927	
-0.392639	
-0.3927	
-0.393005	
-0.392029	
-0.392151	
-0.391296	
-0.391846	
-0.391418	
-0.390625	
-0.390991	
-0.389526	
-0.390198	
-0.389221	
-0.388184	
-0.387817	
-0.388245	
-0.388367	
-0.388306	
-0.388489	
-0.388428	
-0.388123	
-0.388489	
-0.387939	
-0.387085	
-0.387085	
-0.386169	
-0.386414	
-0.386597	
-0.386292	
-0.38501	
-0.385193	
-0.384888	
-0.385376	
-0.387085	
-0.385559	
-0.385864	
-0.385498	
-0.384705	
-0.384521	
-0.38501	
-0.385925	
-0.385498	
-0.386353	
-0.38623	
-0.386536	
-0.387085	
-0.387146	
-0.386902	
-0.386353	
-0.385925	
-0.387207	
-0.387085	
-0.388672	
-0.388672	
-0.388977	
-0.388489	
-0.38855	
-0.390076	
-0.389954	
-0.389221	
-0.389709	
-0.389465	
-0.389343	
-0.389587	
-0.390686	
-0.39093	
-0.391235	
-0.39093	
-0.392456	
-0.392822	
-0.393982	
-0.394043	
-0.393799	
-0.394592	
-0.396057	
-0.39502	
-0.396973	
-0.397644	
-0.397766	
-0.398315	
-0.399231	
-0.399292	
-0.400208	
-0.401367	
-0.399536	
-0.399658	
-0.400757	
-0.401184	
-0.400757	
-0.400513	
-0.400513	
-0.400208	
-0.39978	
-0.39917	
-0.399841	
-0.39856	
-0.398193	
-0.396973	
-0.39679	
-0.397217	
-0.396912	
-0.397827	
-0.396423	
-0.396729	
-0.396362	
-0.3974	
-0.396912	
-0.396057	
-0.395874	
-0.397766	
-0.397461	
-0.398926	
-0.39978	
-0.401184	
-0.401917	
-0.403503	
-0.404785	
-0.405945	
-0.406982	
-0.40741	
-0.407715	
-0.408752	
-0.410278	
-0.410278	
-0.411011	
-0.410461	
-0.410828	
-0.410889	
-0.4104	
-0.409058	
-0.407349	
-0.406433	
-0.404419	
-0.404175	
-0.40448	
-0.403442	
-0.40332	
-0.403076	
-0.403076	
-0.401428	
-0.402466	
-0.401428	
-0.400696	
-0.399475	
-0.399719	
-0.398743	
-0.398804	
-0.398926	
-0.397888	
-0.396484	
-0.396423	
-0.393555	
-0.393799	
-0.392578	
-0.392334	
-0.390747	
-0.39093	
-0.388977	
-0.388245	
-0.387695	
-0.38623	
-0.384827	
-0.385498	
-0.384033	
-0.385132	
-0.383789	
-0.381836	
-0.378845	
-0.378845	
-0.376953	
-0.376038	
-0.375366	
-0.373779	
-0.372559	
-0.371765	
-0.369629	
-0.368408	
-0.365417	
-0.364197	
-0.361694	
-0.363586	
-0.362915	
-0.362488	
-0.361389	
-0.359802	
-0.358704	
-0.357727	
-0.357361	
-0.355652	
-0.354492	
-0.353882	
-0.353455	
-0.352783	
-0.353088	
-0.352722	
-0.351624	
-0.35083	
-0.350281	
-0.348083	
-0.348694	
-0.348022	
-0.346924	
-0.344055	
-0.344666	
-0.344177	
-0.344177	
-0.343323	
-0.341675	
-0.341309	
-0.34137	
-0.341858	
-0.340698	
-0.34021	
-0.340271	
-0.339417	
-0.340271	
-0.341003	
-0.341675	
-0.341064	
-0.342346	
-0.34314	
-0.342957	
-0.344482	
-0.343872	
-0.342468	
-0.342651	
-0.343567	
-0.343689	
-0.343933	
-0.345398	
-0.344727	
-0.345398	
-0.345764	
-0.347229	
-0.346558	
-0.345947	
-0.346436	
-0.346985	
-0.346069	
-0.347534	
-0.347473	
-0.347168	
-0.348022	
-0.348083	
-0.34906	
-0.34845	
-0.348999	
-0.348511	
-0.348267	
-0.348511	
-0.349243	
-0.350159	
-0.349792	
-0.350098	
-0.350586	
-0.350281	
-0.352661	
-0.352539	
-0.351501	
-0.352295	
-0.35376	
-0.35498	
-0.355957	
-0.357422	
-0.358337	
-0.359009	
-0.361511	
-0.362061	
-0.363403	
-0.36322	
-0.364441	
-0.364563	
-0.365112	
-0.366638	
-0.367859	
-0.368469	
-0.369629	
-0.370239	
-0.370605	
-0.372437	
-0.372803	
-0.372253	
-0.372681	
-0.37323	
-0.37384	
-0.373962	
-0.374268	
-0.374084	
-0.374451	
-0.373474	
-0.375122	
-0.375183	
-0.373535	
-0.374573	
-0.375	
-0.373474	
-0.374634	
-0.375427	
-0.375305	
-0.375061	
-0.37561	
-0.374512	
-0.375061	
-0.375305	
-0.374512	
-0.374329	
-0.373169	
-0.372437	
-0.37384	
-0.374451	
-0.373718	
-0.373352	
-0.374634	
-0.373718	
-0.374878	
-0.374084	
-0.373657	
-0.372864	
-0.372131	
-0.372742	
-0.372803	
-0.373718	
-0.37262	
-0.372681	
-0.372681	
-0.373047	
-0.373779	
-0.372681	
-0.37207	
-0.372559	
-0.37262	
-0.373352	
-0.373718	
-0.372559	
-0.371765	
-0.372925	
-0.372559	
-0.373352	
-0.373535	
-0.372864	
-0.372498	
-0.372803	
-0.374695	
-0.374939	
-0.375122	
-0.374695	
-0.375183	
-0.375122	
-0.375916	
-0.376221	
-0.374512	
-0.375366	
-0.376343	
-0.375244	
-0.376648	
-0.377197	
-0.377502	
-0.377258	
-0.378845	
-0.376648	
-0.377197	
-0.378967	
-0.377747	
-0.378845	
-0.379761	
-0.38031	
-0.3797	
-0.380005	
-0.379211	
-0.379456	
-0.380249	
-0.379822	
-0.380005	
-0.379395	
-0.379089	
-0.379456	
-0.378357	
-0.379822	
-0.379211	
-0.380127	
-0.379211	
-0.3797	
-0.378906	
-0.378784	
-0.380005	
-0.377625	
-0.37677	
-0.377808	
-0.377075	
-0.377686	
-0.378296	
-0.378113	
-0.377625	
-0.377991	
-0.377991	
-0.377197	
-0.376648	
-0.375732	
-0.375305	
-0.374146	
-0.375549	
-0.375366	
-0.376221	
-0.375671	
-0.375549	
-0.376587	
-0.375854	
-0.376648	
-0.376526	
-0.375854	
-0.376709	
-0.376831	
-0.378113	
-0.378479	
-0.378723	
-0.378967	
-0.380005	
-0.380127	
-0.381165	
-0.38208	
-0.381775	
-0.383362	
-0.383545	
-0.384094	
-0.385681	
-0.387207	
-0.386658	
-0.387512	
-0.387634	
-0.38855	
-0.389465	
-0.389465	
-0.387695	
-0.390015	
-0.390076	
-0.390259	
-0.390625	
-0.390808	
-0.391113	
-0.391357	
-0.390625	
-0.390686	
-0.391785	
-0.389954	
-0.388855	
-0.388672	
-0.389465	
-0.388306	
-0.38916	
-0.387817	
-0.387146	
-0.386902	
-0.387024	
-0.38562	
-0.384827	
-0.383911	
-0.383667	
-0.38269	
-0.383301	
-0.382935	
-0.382751	
-0.382385	
-0.381836	
-0.382385	
-0.381348	
-0.381653	
-0.38031	
-0.380859	
-0.379639	
-0.379211	
-0.380005	
-0.380615	
-0.379822	
-0.380005	
-0.380188	
-0.380005	
-0.38031	
-0.380066	
-0.37793	
-0.379395	
-0.37915	
-0.38031	
-0.38031	
-0.380249	
-0.380432	
-0.380493	
-0.381104	
-0.380859	
-0.381531	
-0.381226	
-0.381714	
-0.38092	
-0.382019	
-0.382813	
-0.383789	
-0.382019	
-0.381287	
-0.382202	
-0.382324	
-0.383789	
-0.383423	
-0.382263	
-0.383179	
-0.383118	
-0.384216	
-0.384216	
-0.384338	
-0.384827	
-0.384277	
-0.385681	
-0.384766	
-0.386292	
-0.386841	
-0.387146	
-0.386353	
-0.386475	
-0.386047	
-0.386353	
-0.386475	
-0.386108	
-0.38623	
-0.385376	
-0.386108	
-0.385986	
-0.384094	
-0.38562	
-0.385254	
-0.385681	
-0.386169	
-0.386108	
-0.386475	
-0.386047	
-0.387573	
-0.386047	
-0.387085	
-0.386658	
-0.385925	
-0.386108	
-0.385742	
-0.386108	
-0.385925	
-0.386169	
-0.386292	
-0.385925	
-0.386169	
-0.385132	
-0.386108	
-0.383789	
-0.38446	
-0.383606	
-0.384888	
-0.383362	
-0.382874	
-0.383667	
-0.382813	
-0.384277	
-0.38385	
-0.384216	
-0.384338	
-0.38208	
-0.383972	
-0.384277	
-0.385254	
-0.384338	
-0.385681	
-0.385559	
-0.386108	
-0.387512	
-0.38562	
-0.387024	
-0.386475	
-0.387146	
-0.387024	
-0.38623	
-0.387573	
-0.388306	
-0.388794	
-0.387817	
-0.388977	
-0.388916	
-0.388794	
-0.389465	
-0.387756	
-0.38916	
-0.388977	
-0.389832	
-0.389893	
-0.390564	
-0.391235	
-0.390686	
-0.390625	
-0.390076	
-0.391724	
-0.390259	
-0.389709	
-0.390625	
-0.390015	
-0.39032	
-0.390137	
-0.390564	
-0.389038	
-0.388794	
-0.38916	
-0.388367	
-0.388489	
-0.386414	
-0.386292	
-0.385925	
-0.385986	
-0.385803	
-0.38501	
-0.385132	
-0.384827	
-0.384827	
-0.383606	
-0.384399	
-0.383789	
-0.382629	
-0.381958	
-0.381714	
-0.382507	
-0.382324	
-0.382507	
-0.383118	
-0.382446	
-0.384521	
-0.383545	
-0.384399	
-0.382996	
-0.383362	
-0.382385	
-0.384094	
-0.383789	
-0.384277	
-0.384094	
-0.383972	
-0.383972	
-0.383789	
-0.385071	
-0.385559	
-0.383362	
-0.385864	
-0.385864	
-0.387512	
-0.387207	
-0.388123	
-0.387573	
-0.387695	
-0.388855	
-0.387573	
-0.389038	
-0.388733	
-0.389587	
-0.389954	
-0.389893	
-0.390686	
-0.391418	
-0.392395	
-0.391113	
-0.392273	
-0.392456	
-0.391846	
-0.392334	
-0.389954	
-0.390991	
-0.390503	
-0.390381	
-0.391724	
-0.392517	
-0.391663	
-0.390991	
-0.39093	
-0.388794	
-0.389954	
-0.39032	
-0.38739	
-0.388367	
-0.387085	
-0.388184	
-0.387268	
-0.38739	
-0.387329	
-0.387268	
-0.388306	
-0.385498	
-0.387634	
-0.386108	
-0.385376	
-0.385376	
-0.38446	
-0.385315	
-0.384888	
-0.386353	
-0.385437	
-0.38562	
-0.384766	
-0.383118	
-0.383057	
-0.382324	
-0.38385	
-0.382935	
-0.382629	
-0.384277	
-0.384521	
-0.385132	
-0.384399	
-0.385315	
-0.383728	
-0.384827	
-0.384766	
-0.383606	
-0.383972	
-0.384277	
-0.385193	
-0.385193	
-0.38562	
-0.386353	
-0.38678	
-0.387939	
-0.385803	
-0.387756	
-0.386536	
-0.387085	
-0.387329	
-0.387451	
-0.387878	
-0.388489	
-0.388855	
-0.388489	
-0.38916	
-0.390381	
-0.38916	
-0.389099	
-0.389221	
-0.389404	
-0.389404	
-0.388611	
-0.389648	
-0.390137	
-0.390076	
-0.389404	
-0.390076	
-0.388977	
-0.389404	
-0.388611	
-0.387512	
-0.388184	
-0.387634	
-0.388306	
-0.388306	
-0.388	
-0.388916	
-0.388306	
-0.389343	
-0.38739	
-0.387939	
-0.387085	
-0.385498	
-0.385254	
-0.385559	
-0.38562	
-0.385193	
-0.385132	
-0.38501	
-0.384827	
-0.385437	
-0.383606	
-0.383484	
-0.383423	
-0.38269	
-0.381714	
-0.382385	
-0.382751	
-0.382935	
-0.383789	
-0.384094	
-0.384338	
-0.384277	
-0.383911	
-0.384705	
-0.384216	
-0.38562	
-0.385193	
-0.385925	
-0.387207	
-0.387756	
-0.389404	
-0.389526	
-0.390625	
-0.390015	
-0.391296	
-0.39032	
-0.390137	
-0.391235	
-0.39209	
-0.391663	
-0.392578	
-0.392944	
-0.39325	
-0.393372	
-0.393982	
-0.3927	
-0.393311	
-0.39325	
-0.392883	
-0.391357	
-0.3927	
-0.392761	
-0.392944	
-0.392517	
-0.392944	
-0.392944	
-0.393372	
-0.391968	
-0.392761	
-0.392212	
-0.392029	
-0.391174	
-0.391602	
-0.391357	
-0.391785	
-0.391968	
-0.390991	
-0.391296	
-0.391052	
-0.39093	
-0.390198	
-0.389038	
-0.389221	
-0.388916	
-0.390015	
-0.391235	
-0.390869	
-0.390015	
-0.388916	
-0.388733	
-0.388977	
-0.388794	
-0.388306	
-0.387024	
-0.387268	
-0.386902	
-0.387634	
-0.386719	
-0.385559	
-0.385315	
-0.385986	
-0.38678	
-0.386414	
-0.386292	
-0.386169	
-0.385925	
-0.386414	
-0.387085	
-0.387268	
-0.387573	
-0.388123	
-0.388123	
-0.388916	
-0.388	
-0.388855	
-0.388	
-0.387634	
-0.38678	
-0.387634	
-0.387207	
-0.388184	
-0.388123	
-0.388672	
-0.388184	
-0.388245	
-0.389221	
-0.389343	
-0.389404	
-0.388306	
-0.388733	
-0.389038	
-0.388672	
-0.389038	
-0.390076	
-0.39032	
-0.390076	
-0.389954	
-0.390259	
-0.390015	
-0.389526	
-0.391418	
-0.392273	
-0.39209	
-0.391907	
-0.391724	
-0.391907	
-0.391968	
-0.392883	
-0.391296	
-0.390808	
-0.39093	
-0.391235	
-0.389404	
-0.390198	
-0.390137	
-0.390442	
-0.389648	
-0.391052	
-0.389343	
-0.390381	
-0.389221	
-0.389587	
-0.389526	
-0.389587	
-0.38739	
-0.388611	
-0.388794	
-0.388611	
-0.388489	
-0.388428	
-0.388184	
-0.38855	
-0.387756	
-0.387268	
-0.386597	
-0.387146	
-0.386292	
-0.386597	
-0.386597	
-0.386963	
-0.387268	
-0.387268	
-0.387695	
-0.386902	
-0.38739	
-0.388	
-0.387756	
-0.388123	
-0.388794	
-0.389099	
-0.389893	
-0.390137	
-0.390625	
-0.390625	
-0.391296	
-0.391541	
-0.392639	
-0.392334	
-0.392822	
-0.392151	
-0.393311	
-0.393372	
-0.394958	
-0.39447	
-0.394958	
-0.39502	
-0.395813	
-0.395081	
-0.395813	
-0.394592	
-0.395264	
-0.394775	
-0.394836	
-0.39386	
-0.394897	
-0.39502	
-0.395996	
-0.394165	
-0.394958	
-0.39502	
-0.394958	
-0.394287	
-0.39386	
-0.394104	
-0.394409	
-0.393188	
-0.393433	
-0.3927	
-0.392822	
-0.392944	
-0.392395	
-0.391907	
-0.392395	
-0.391663	
-0.390747	
-0.390442	
-0.390747	
-0.389954	
-0.389954	
-0.390137	
-0.389648	
-0.389526	
-0.388428	
-0.387573	
-0.388123	
-0.387573	
-0.387512	
-0.387146	
-0.38678	
-0.387512	
-0.387329	
-0.388489	
-0.387695	
-0.387695	
-0.386414	
-0.387146	
-0.387634	
-0.387695	
-0.387573	
-0.387634	
-0.388	
-0.389648	
-0.390076	
-0.391174	
-0.390442	
-0.39032	
-0.391235	
-0.39209	
-0.390991	
-0.391235	
-0.391479	
-0.390747	
-0.391968	
-0.392029	
-0.392273	
-0.393188	
-0.393005	
-0.393127	
-0.392883	
-0.393982	
-0.393066	
-0.39325	
-0.392395	
-0.393738	
-0.395081	
-0.39624	
-0.395996	
-0.395203	
-0.395996	
-0.39502	
-0.395386	
-0.395142	
-0.395447	
-0.394775	
-0.394836	
-0.394226	
-0.39447	
-0.394409	
-0.394226	
-0.394165	
-0.394531	
-0.394287	
-0.392456	
-0.393494	
-0.392517	
-0.392273	
-0.391479	
-0.390747	
-0.391846	
-0.391113	
-0.39209	
-0.391418	
-0.391052	
-0.390747	
-0.390442	
-0.389893	
-0.389771	
-0.388733	
-0.388794	
-0.388855	
-0.389343	
-0.389648	
-0.389526	
-0.390015	
-0.389954	
-0.389648	
-0.389526	
-0.389893	
-0.389771	
-0.389832	
-0.389404	
-0.390564	
-0.390625	
-0.391174	
-0.391296	
-0.391663	
-0.391113	
-0.391418	
-0.392334	
-0.391418	
-0.391418	
-0.391541	
-0.391724	
-0.392334	
-0.393555	
-0.393738	
-0.393799	
-0.395081	
-0.394104	
-0.394836	
-0.395508	
-0.395325	
-0.395203	
-0.395325	
-0.395569	
-0.396729	
-0.396423	
-0.39679	
-0.397034	
-0.396545	
-0.396301	
-0.395996	
-0.397095	
-0.395691	
-0.394592	
-0.395142	
-0.394714	
-0.394775	
-0.394165	
-0.394226	
-0.392639	
-0.392578	
-0.391235	
-0.391174	
-0.390808	
-0.390015	
-0.388489	
-0.38855	
-0.389221	
-0.388977	
-0.389038	
-0.388245	
-0.387939	
-0.387146	
-0.387695	
-0.387451	
-0.386719	
-0.38623	
-0.385254	
-0.385376	
-0.386597	
-0.386719	
-0.386841	
-0.386963	
-0.387634	
-0.386963	
-0.386658	
-0.388	
-0.386658	
-0.387146	
-0.387024	
-0.387573	
-0.388245	
-0.388306	
-0.388733	
-0.388306	
-0.389038	
-0.38916	
-0.38916	
-0.388794	
-0.38916	
-0.388245	
-0.388611	
-0.388977	
-0.389893	
-0.390198	
-0.39032	
-0.389404	
-0.389526	
-0.39032	
-0.390381	
-0.390503	
-0.390869	
-0.390625	
-0.390442	
-0.391724	
-0.392029	
-0.392639	
-0.393433	
-0.393066	
-0.392761	
-0.392639	
-0.39502	
-0.394897	
-0.395264	
-0.394531	
-0.393738	
-0.393494	
-0.394348	
-0.393738	
-0.393066	
-0.394287	
-0.392517	
-0.392151	
-0.392944	
-0.393005	
-0.391602	
-0.391663	
-0.391235	
-0.392395	
-0.392822	
-0.392456	
-0.392334	
-0.392761	
-0.392212	
-0.391907	
-0.392334	
-0.392456	
-0.391296	
-0.391357	
-0.391296	
-0.391113	
-0.391357	
-0.392212	
-0.391357	
-0.391052	
-0.390747	
-0.391357	
-0.390381	
-0.389771	
-0.389038	
-0.389221	
-0.388184	
-0.388245	
-0.388184	
-0.389221	
-0.388977	
-0.388733	
-0.389587	
-0.388855	
-0.38916	
-0.388855	
-0.38855	
-0.388	
-0.389587	
-0.389526	
-0.389404	
-0.390259	
-0.390259	
-0.390381	
-0.390625	
-0.391418	
-0.39032	
-0.391113	
-0.39093	
-0.391602	
-0.391541	
-0.391174	
-0.39209	
-0.392395	
-0.392578	
-0.391907	
-0.392761	
-0.393188	
-0.393188	
-0.392639	
-0.393188	
-0.393372	
-0.393738	
-0.393372	
-0.394104	
-0.393921	
-0.394287	
-0.394043	
-0.394409	
-0.394348	
-0.394348	
-0.393555	
-0.393005	
-0.392822	
-0.392334	
-0.392151	
-0.391907	
-0.390991	
-0.390625	
-0.39032	
-0.389709	
-0.389465	
-0.389587	
-0.387695	
-0.387878	
-0.388	
-0.387573	
-0.387146	
-0.387573	
-0.387512	
-0.386047	
-0.386414	
-0.385864	
-0.386658	
-0.385132	
-0.384155	
-0.384583	
-0.385193	
-0.385742	
-0.385742	
-0.385254	
-0.386292	
-0.38562	
-0.385437	
-0.386353	
-0.386536	
-0.385376	
-0.385925	
-0.386414	
-0.386597	
-0.386292	
-0.387207	
-0.387146	
-0.387207	
-0.387512	
-0.387024	
-0.387939	
-0.38855	
-0.387939	
-0.388733	
-0.388977	
-0.389893	
-0.390259	
-0.391235	
-0.39093	
-0.391541	
-0.391968	
-0.392944	
-0.391907	
-0.393738	
-0.392883	
-0.391968	
-0.393433	
-0.394104	
-0.39386	
-0.395081	
-0.394226	
-0.393921	
-0.393555	
-0.393372	
-0.392334	
-0.392944	
-0.393677	
-0.393555	
-0.392517	
-0.393555	
-0.392761	
-0.393188	
-0.392639	
-0.391418	
-0.390991	
-0.390747	
-0.390564	
-0.390137	
-0.388428	
-0.389648	
-0.388794	
-0.389404	
-0.389221	
-0.389465	
-0.389771	
-0.388428	
-0.388428	
-0.387573	
-0.388367	
-0.387634	
-0.387329	
-0.387573	
-0.388123	
-0.387451	
-0.386475	
-0.386292	
-0.385437	
-0.386414	
-0.387024	
-0.385681	
-0.387024	
-0.386292	
-0.386169	
-0.386047	
-0.386719	
-0.386536	
-0.386658	
-0.387817	
-0.38678	
-0.387024	
-0.387207	
-0.387085	
-0.388367	
-0.387146	
-0.388367	
-0.388245	
-0.388794	
-0.389038	
-0.389771	
-0.390442	
-0.389771	
-0.389343	
-0.389771	
-0.390442	
-0.390198	
-0.389954	
-0.390808	
-0.390686	
-0.391602	
-0.391418	
-0.391968	
-0.391907	
-0.39209	
-0.391296	
-0.392029	
-0.392151	
-0.391724	
-0.390869	
-0.391663	
-0.390564	
-0.391174	
-0.391541	
-0.392029	
-0.390869	
-0.390747	
-0.39093	
-0.389893	
-0.390442	
-0.389648	
-0.389587	
-0.389954	
-0.389343	
-0.389526	
-0.389343	
-0.390564	
-0.388916	
-0.388123	
-0.388062	
-0.387878	
-0.388367	
-0.386658	
-0.385681	
-0.386597	
-0.385559	
-0.385559	
-0.385986	
-0.386292	
-0.384827	
-0.385132	
-0.385254	
-0.38446	
-0.385559	
-0.385071	
-0.384338	
-0.38501	
-0.385681	
-0.386292	
-0.387695	
-0.387451	
-0.386719	
-0.387512	
-0.388428	
-0.388611	
-0.389221	
-0.389709	
-0.389343	
-0.389893	
-0.391418	
-0.392151	
-0.393616	
-0.393005	
-0.393188	
-0.393372	
-0.393982	
-0.394348	
-0.39447	
-0.393982	
-0.393921	
-0.393982	
-0.395203	
-0.395508	
-0.396057	
-0.394897	
-0.394531	
-0.39447	
-0.394409	
-0.395264	
-0.394531	
-0.393982	
-0.394287	
-0.394653	
-0.394348	
-0.394531	
-0.39563	
-0.393982	
-0.393555	
-0.393311	
-0.39502	
-0.394043	
-0.392883	
-0.392029	
-0.392334	
-0.392151	
-0.392578	
-0.392639	
-0.392212	
-0.391113	
-0.390747	
-0.390808	
-0.392395	
-0.39325	
-0.391235	
-0.388855	
-0.390381	
-0.39032	
-0.390198	
-0.390686	
-0.390991	
-0.389893	
-0.389282	
-0.388184	
-0.389465	
-0.388062	
-0.386719	
-0.385559	
-0.386475	
-0.388	
-0.387878	
-0.389282	
-0.388184	
-0.388672	
-0.388733	
-0.388794	
-0.389038	
-0.388977	
-0.38916	
-0.389404	
-0.388428	
-0.389709	
-0.390259	
-0.391235	
-0.389648	
-0.389099	
-0.389099	
-0.390137	
-0.390259	
-0.389954	
-0.389648	
-0.388733	
-0.389587	
-0.390625	
-0.39093	
-0.392151	
-0.390381	
-0.390442	
-0.390381	
-0.392639	
-0.391663	
-0.391541	
-0.390625	
-0.391113	
-0.391724	
-0.39209	
-0.392029	
-0.392578	
-0.393738	
-0.393738	
-0.3927	
-0.394348	
-0.394775	
-0.393127	
-0.391724	
-0.393127	
-0.392883	
-0.392883	
-0.392822	
-0.393616	
-0.392273	
-0.392151	
-0.391602	
-0.393005	
-0.391907	
-0.390808	
-0.390564	
-0.390869	
-0.390869	
-0.39032	
-0.390808	
-0.390503	
-0.390503	
-0.390259	
-0.389954	
-0.390381	
-0.389771	
-0.389343	
-0.388245	
-0.388428	
-0.389465	
-0.38916	
-0.389648	
-0.388428	
-0.38855	
-0.388306	
-0.387695	
-0.389099	
-0.38855	
-0.388	
-0.386597	
-0.388123	
-0.388733	
-0.388855	
-0.390442	
-0.389954	
-0.39032	
-0.390198	
-0.392273	
-0.392029	
-0.391113	
-0.391541	
-0.39209	
-0.391724	
-0.393188	
-0.39386	
-0.395325	
-0.394531	
-0.395081	
-0.395508	
-0.396851	
-0.396667	
-0.395752	
-0.395874	
-0.395935	
-0.396118	
-0.396484	
-0.39679	
-0.398071	
-0.396851	
-0.395752	
-0.396423	
-0.397644	
-0.397095	
-0.396179	
-0.395081	
-0.395874	
-0.395996	
-0.396423	
-0.396667	
-0.396484	
-0.395813	
-0.395264	
-0.394348	
-0.395813	
-0.395813	
-0.394348	
-0.39325	
-0.393677	
-0.393982	
-0.393494	
-0.393799	
-0.393372	
-0.391968	
-0.391663	
-0.390198	
-0.392029	
-0.39032	
-0.390503	
-0.388611	
-0.388	
-0.388977	
-0.389038	
-0.390198	
-0.389343	
-0.38916	
-0.388916	
-0.388672	
-0.389038	
-0.388977	
-0.388611	
-0.386597	
-0.386597	
-0.388184	
-0.388855	
-0.39093	
-0.39032	
-0.390442	
-0.390503	
-0.390747	
-0.392517	
-0.391357	
-0.391357	
-0.391113	
-0.392578	
-0.392761	
-0.392578	
-0.394348	
-0.39325	
-0.393372	
-0.393372	
-0.393555	
-0.394348	
-0.394043	
-0.394043	
-0.39325	
-0.393433	
-0.394958	
-0.395142	
-0.394836	
-0.394958	
-0.395874	
-0.39624	
-0.396973	
-0.398071	
-0.397095	
-0.397034	
-0.395691	
-0.396179	
-0.395874	
-0.396484	
-0.397034	
-0.396118	
-0.396179	
-0.395081	
-0.396912	
-0.395813	
-0.394775	
-0.393982	
-0.394348	
-0.394958	
-0.393921	
-0.394287	
-0.394104	
-0.393372	
-0.392761	
-0.392517	
-0.392761	
-0.393372	
-0.391968	
-0.391052	
-0.390747	
-0.391785	
-0.391479	
-0.392029	
-0.391479	
-0.39093	
-0.390503	
-0.390381	
-0.391235	
-0.390808	
-0.390564	
-0.388977	
-0.389771	
-0.390991	
-0.391602	
-0.39209	
-0.391846	
-0.391724	
-0.391724	
-0.392883	
-0.393005	
-0.392395	
-0.392273	
-0.392334	
-0.391479	
-0.392761	
-0.392822	
-0.394165	
-0.394409	
-0.393738	
-0.394409	
-0.395264	
-0.395752	
-0.395569	
-0.395203	
-0.39502	
-0.39563	
-0.396729	
-0.396362	
-0.397644	
-0.397156	
-0.397278	
-0.397461	
-0.397461	
-0.398254	
-0.397644	
-0.396973	
-0.396362	
-0.396545	
-0.397156	
-0.397461	
-0.396973	
-0.397339	
-0.395752	
	
