E:\DOCUMENTS AND SETTINGS\JPOTAS\MEUS DOCUMENTOS\UFRJ\RSCI-BM 12 WK SERIES\070803-RSCI-BM-11\RSCI-BM-11-REMG\070803-RSCI-BM-11-REMG-0019.ACQ
0.025000 msec/sample
1 channel
Analog input
Volts
CH1	
2000	
-0.388947	
-0.388397	
-0.387878	
-0.388306	
-0.387665	
-0.389099	
-0.388489	
-0.389648	
-0.389557	
-0.389557	
-0.389832	
-0.389679	
-0.391144	
-0.390564	
-0.390839	
-0.390228	
-0.390839	
-0.391724	
-0.391327	
-0.392426	
-0.392578	
-0.393311	
-0.394104	
-0.39447	
-0.395355	
-0.393982	
-0.394165	
-0.393951	
-0.394379	
-0.39447	
-0.394592	
-0.394531	
-0.394196	
-0.394379	
-0.394073	
-0.394196	
-0.393738	
-0.393768	
-0.393433	
-0.391998	
-0.392944	
-0.39151	
-0.391876	
-0.391937	
-0.391235	
-0.391357	
-0.390991	
-0.391785	
-0.390625	
-0.389984	
-0.389252	
-0.389008	
-0.389618	
-0.388885	
-0.389282	
-0.389038	
-0.389191	
-0.388641	
-0.388702	
-0.389343	
-0.388214	
-0.387909	
-0.387848	
-0.388	
-0.388184	
-0.388	
-0.388275	
-0.388092	
-0.38858	
-0.388214	
-0.388794	
-0.389069	
-0.389313	
-0.388184	
-0.387115	
-0.388824	
-0.388458	
-0.389404	
-0.389801	
-0.389862	
-0.390198	
-0.389832	
-0.391846	
-0.390778	
-0.391388	
-0.390839	
-0.391998	
-0.392395	
-0.391541	
-0.39267	
-0.392181	
-0.392059	
-0.39212	
-0.392395	
-0.393219	
-0.392181	
-0.392517	
-0.391785	
-0.392639	
-0.392395	
-0.39212	
-0.391876	
-0.391907	
-0.39151	
-0.391022	
-0.39151	
-0.391418	
-0.3909	
-0.390533	
-0.390289	
-0.390106	
-0.389679	
-0.390167	
-0.390137	
-0.390015	
-0.389771	
-0.389343	
-0.388641	
-0.388733	
-0.388306	
-0.386505	
-0.387512	
-0.388031	
-0.387939	
-0.388	
-0.386871	
-0.386749	
-0.386536	
-0.387543	
-0.387207	
-0.386688	
-0.38681	
-0.385559	
-0.386993	
-0.386719	
-0.386963	
-0.385986	
-0.385956	
-0.385376	
-0.385864	
-0.386749	
-0.386902	
-0.386932	
-0.386688	
-0.386688	
-0.387451	
-0.387482	
-0.388306	
-0.388092	
-0.387634	
-0.387878	
-0.388824	
-0.389191	
-0.388336	
-0.388733	
-0.387939	
-0.388489	
-0.388824	
-0.388855	
-0.389954	
-0.38913	
-0.390106	
-0.390289	
-0.391052	
-0.390869	
-0.391479	
-0.391327	
-0.391693	
-0.393951	
-0.393036	
-0.393524	
-0.393005	
-0.393219	
-0.393311	
-0.393311	
-0.393768	
-0.393524	
-0.393768	
-0.392151	
-0.392578	
-0.392975	
-0.393036	
-0.392944	
-0.391846	
-0.392395	
-0.391937	
-0.391968	
-0.392181	
-0.391632	
-0.391815	
-0.390656	
-0.391052	
-0.391663	
-0.390747	
-0.391266	
-0.390289	
-0.390076	
-0.386719	
-0.382263	
-0.381622	
-0.381592	
-0.380585	
-0.380676	
-0.385132	
-0.389374	
-0.389252	
-0.38913	
-0.38858	
-0.388062	
-0.38797	
-0.388153	
-0.387451	
-0.38739	
-0.386414	
-0.386414	
-0.386047	
-0.385406	
-0.385925	
-0.385345	
-0.385986	
-0.386139	
-0.386505	
-0.386749	
-0.386536	
-0.387115	
-0.386597	
-0.387695	
-0.387634	
-0.388123	
-0.388885	
-0.388458	
-0.389008	
-0.38916	
-0.390472	
-0.390594	
-0.39035	
-0.390747	
-0.390717	
-0.392029	
-0.391296	
-0.392303	
-0.391876	
-0.391846	
-0.392029	
-0.391998	
-0.393219	
-0.392456	
-0.392212	
-0.391998	
-0.392365	
-0.392487	
-0.391632	
-0.392334	
-0.391571	
-0.391846	
-0.391663	
-0.391357	
-0.391693	
-0.390564	
-0.391144	
-0.390137	
-0.390533	
-0.390381	
-0.390961	
-0.391663	
-0.391052	
-0.390411	
-0.389557	
-0.390381	
-0.389679	
-0.389008	
-0.389069	
-0.38855	
-0.388916	
-0.388367	
-0.38916	
-0.388519	
-0.38913	
-0.388519	
-0.388184	
-0.388641	
-0.388367	
-0.387878	
-0.388367	
-0.389404	
-0.389862	
-0.389801	
-0.391296	
-0.391632	
-0.392212	
-0.392456	
-0.39389	
-0.394775	
-0.394287	
-0.394623	
-0.396088	
-0.39679	
-0.39798	
-0.399902	
-0.400085	
-0.402069	
-0.403015	
-0.403564	
-0.404907	
-0.406067	
-0.406738	
-0.407227	
-0.408386	
-0.409363	
-0.410431	
-0.411102	
-0.412079	
-0.413422	
-0.414154	
-0.416016	
-0.417603	
-0.418671	
-0.418427	
-0.42157	
-0.422363	
-0.422882	
-0.423553	
-0.42395	
-0.424042	
-0.424957	
-0.425873	
-0.425873	
-0.426361	
-0.427795	
-0.428223	
-0.42923	
-0.429749	
-0.430206	
-0.430023	
-0.430359	
-0.431427	
-0.431396	
-0.431427	
-0.432007	
-0.432098	
-0.432129	
-0.433929	
-0.433929	
-0.433746	
-0.432709	
-0.43335	
-0.43219	
-0.433075	
-0.432861	
-0.43161	
-0.43103	
-0.43103	
-0.431122	
-0.43045	
-0.42865	
-0.42746	
-0.427002	
-0.427155	
-0.426971	
-0.427521	
-0.426727	
-0.425537	
-0.425201	
-0.424561	
-0.424927	
-0.42395	
-0.423462	
-0.42337	
-0.422516	
-0.42157	
-0.421356	
-0.420898	
-0.418945	
-0.417389	
-0.415985	
-0.415314	
-0.414551	
-0.413422	
-0.412018	
-0.410461	
-0.410034	
-0.408478	
-0.408081	
-0.406891	
-0.404907	
-0.403778	
-0.401886	
-0.401337	
-0.398926	
-0.398346	
-0.395721	
-0.394562	
-0.393127	
-0.392059	
-0.390198	
-0.388702	
-0.386993	
-0.38623	
-0.385651	
-0.384369	
-0.382965	
-0.38205	
-0.381195	
-0.38028	
-0.378601	
-0.378845	
-0.377258	
-0.377014	
-0.377167	
-0.376892	
-0.377289	
-0.375488	
-0.374359	
-0.372925	
-0.371765	
-0.370361	
-0.369049	
-0.368011	
-0.365631	
-0.363434	
-0.362701	
-0.360413	
-0.359558	
-0.358154	
-0.357666	
-0.355286	
-0.354889	
-0.354248	
-0.354431	
-0.352905	
-0.352142	
-0.351501	
-0.351013	
-0.351318	
-0.350403	
-0.350525	
-0.34967	
-0.350281	
-0.349487	
-0.350647	
-0.350311	
-0.350281	
-0.349945	
-0.350525	
-0.3526	
-0.351837	
-0.353088	
-0.352875	
-0.353638	
-0.354462	
-0.355682	
-0.356049	
-0.356232	
-0.356201	
-0.355408	
-0.355713	
-0.356903	
-0.357452	
-0.357117	
-0.358063	
-0.357758	
-0.359131	
-0.359772	
-0.359314	
-0.359222	
-0.359985	
-0.360321	
-0.36084	
-0.360352	
-0.360474	
-0.361389	
-0.36203	
-0.362396	
-0.362885	
-0.362305	
-0.362183	
-0.362732	
-0.362701	
-0.363739	
-0.364044	
-0.364166	
-0.363708	
-0.364471	
-0.36557	
-0.365936	
-0.366638	
-0.36615	
-0.367371	
-0.368164	
-0.368927	
-0.369293	
-0.369659	
-0.369263	
-0.369934	
-0.36972	
-0.370209	
-0.369629	
-0.368774	
-0.368469	
-0.368378	
-0.368652	
-0.368469	
-0.367889	
-0.367645	
-0.36853	
-0.368317	
-0.369385	
-0.368927	
-0.368439	
-0.368927	
-0.369019	
-0.369293	
-0.370087	
-0.369324	
-0.369415	
-0.369904	
-0.369965	
-0.370911	
-0.370697	
-0.370789	
-0.371338	
-0.371002	
-0.372223	
-0.372162	
-0.372803	
-0.372314	
-0.373047	
-0.372742	
-0.373932	
-0.374298	
-0.374756	
-0.374908	
-0.375183	
-0.376556	
-0.377411	
-0.377716	
-0.377533	
-0.377472	
-0.377563	
-0.378479	
-0.379242	
-0.378937	
-0.379303	
-0.38031	
-0.380341	
-0.381012	
-0.381927	
-0.381714	
-0.38092	
-0.381897	
-0.383209	
-0.383453	
-0.382965	
-0.38266	
-0.382294	
-0.381958	
-0.382477	
-0.382324	
-0.381653	
-0.380035	
-0.380219	
-0.380066	
-0.379181	
-0.378632	
-0.378143	
-0.377014	
-0.376373	
-0.377319	
-0.37674	
-0.376312	
-0.374695	
-0.375092	
-0.374237	
-0.375397	
-0.375214	
-0.375031	
-0.374786	
-0.374451	
-0.374207	
-0.375275	
-0.375092	
-0.374603	
-0.374878	
-0.375031	
-0.375458	
-0.37558	
-0.375885	
-0.37619	
-0.375916	
-0.376404	
-0.377075	
-0.377869	
-0.377594	
-0.377136	
-0.377716	
-0.377258	
-0.377594	
-0.378387	
-0.378754	
-0.378601	
-0.379852	
-0.379822	
-0.381195	
-0.381592	
-0.382019	
-0.381683	
-0.381927	
-0.382355	
-0.383575	
-0.383606	
-0.383057	
-0.382935	
-0.383484	
-0.383575	
-0.384155	
-0.384186	
-0.383362	
-0.382996	
-0.383667	
-0.384308	
-0.384186	
-0.383362	
-0.382721	
-0.382538	
-0.38269	
-0.38327	
-0.383118	
-0.382355	
-0.383209	
-0.382538	
-0.382843	
-0.38266	
-0.382111	
-0.381714	
-0.381744	
-0.380737	
-0.381592	
-0.3815	
-0.381195	
-0.380096	
-0.380402	
-0.380371	
-0.381195	
-0.3815	
-0.381134	
-0.380859	
-0.38089	
-0.381561	
-0.382355	
-0.381775	
-0.380707	
-0.380524	
-0.381104	
-0.382294	
-0.383331	
-0.383301	
-0.383636	
-0.383575	
-0.38385	
-0.384979	
-0.385345	
-0.385498	
-0.385437	
-0.385345	
-0.386444	
-0.386719	
-0.386658	
-0.386688	
-0.386536	
-0.387085	
-0.387299	
-0.387817	
-0.387421	
-0.387054	
-0.386627	
-0.387634	
-0.387939	
-0.388367	
-0.388	
-0.38736	
-0.387817	
-0.388092	
-0.389801	
-0.388947	
-0.388184	
-0.388641	
-0.388794	
-0.389435	
-0.389587	
-0.390259	
-0.389893	
-0.389893	
-0.388977	
-0.390137	
-0.389893	
-0.389709	
-0.389557	
-0.388611	
-0.389099	
-0.38913	
-0.388306	
-0.388123	
-0.387054	
-0.386414	
-0.38736	
-0.387177	
-0.385651	
-0.384918	
-0.385559	
-0.385132	
-0.384918	
-0.385162	
-0.383789	
-0.383209	
-0.382721	
-0.383331	
-0.383057	
-0.382568	
-0.381927	
-0.381805	
-0.380859	
-0.381653	
-0.381744	
-0.381042	
-0.380646	
-0.381409	
-0.380615	
-0.381409	
-0.381317	
-0.380585	
-0.38028	
-0.38031	
-0.380341	
-0.380646	
-0.381134	
-0.380585	
-0.381042	
-0.38092	
-0.381775	
-0.381989	
-0.381805	
-0.38092	
-0.381622	
-0.381042	
-0.382599	
-0.382507	
-0.383087	
-0.38269	
-0.383087	
-0.382721	
-0.384674	
-0.385406	
-0.384796	
-0.384613	
-0.38501	
-0.386047	
-0.385742	
-0.386719	
-0.386017	
-0.385895	
-0.385834	
-0.386261	
-0.387054	
-0.386414	
-0.386322	
-0.386078	
-0.386505	
-0.386047	
-0.386475	
-0.386871	
-0.386444	
-0.386017	
-0.385254	
-0.386444	
-0.38623	
-0.385712	
-0.385071	
-0.384705	
-0.385162	
-0.385101	
-0.3862	
-0.384918	
-0.384857	
-0.384094	
-0.384033	
-0.38446	
-0.383789	
-0.38269	
-0.382172	
-0.383972	
-0.383667	
-0.383545	
-0.382965	
-0.382172	
-0.382385	
-0.382172	
-0.382263	
-0.383057	
-0.382172	
-0.381897	
-0.38205	
-0.382294	
-0.382294	
-0.382751	
-0.381378	
-0.381805	
-0.381989	
-0.382385	
-0.382996	
-0.383301	
-0.382721	
-0.382507	
-0.38324	
-0.38382	
-0.384003	
-0.384033	
-0.384094	
-0.384033	
-0.38443	
-0.384979	
-0.385101	
-0.384583	
-0.384247	
-0.384705	
-0.384308	
-0.385223	
-0.385651	
-0.385529	
-0.386047	
-0.38681	
-0.387238	
-0.387909	
-0.388	
-0.388062	
-0.389008	
-0.389923	
-0.389496	
-0.389984	
-0.38916	
-0.390076	
-0.389679	
-0.389984	
-0.389954	
-0.389771	
-0.389526	
-0.388672	
-0.38974	
-0.389099	
-0.389679	
-0.389313	
-0.388428	
-0.389282	
-0.388733	
-0.388885	
-0.388367	
-0.388245	
-0.387787	
-0.388214	
-0.387451	
-0.387665	
-0.387848	
-0.387634	
-0.386871	
-0.386536	
-0.386566	
-0.386292	
-0.386505	
-0.384827	
-0.385559	
-0.385071	
-0.385162	
-0.384857	
-0.385529	
-0.384247	
-0.384735	
-0.384552	
-0.38501	
-0.383606	
-0.383606	
-0.383331	
-0.383392	
-0.382751	
-0.382202	
-0.381897	
-0.382202	
-0.381836	
-0.383087	
-0.382568	
-0.383331	
-0.383331	
-0.383453	
-0.383545	
-0.384094	
-0.384186	
-0.385101	
-0.385468	
-0.385162	
-0.385498	
-0.38562	
-0.386719	
-0.38681	
-0.387054	
-0.386871	
-0.388153	
-0.388275	
-0.388519	
-0.389008	
-0.388763	
-0.388397	
-0.389343	
-0.389679	
-0.389252	
-0.389496	
-0.389374	
-0.389496	
-0.389069	
-0.389557	
-0.389557	
-0.389832	
-0.389557	
-0.389008	
-0.388916	
-0.389008	
-0.388336	
-0.387787	
-0.387482	
-0.388123	
-0.387756	
-0.387909	
-0.387756	
-0.388092	
-0.388336	
-0.387787	
-0.386932	
-0.387299	
-0.387665	
-0.386627	
-0.386658	
-0.386078	
-0.386017	
-0.386017	
-0.387146	
-0.386078	
-0.385651	
-0.386139	
-0.385681	
-0.385406	
-0.385681	
-0.385071	
-0.385345	
-0.385315	
-0.385651	
-0.385773	
-0.385803	
-0.385315	
-0.385773	
-0.384552	
-0.385834	
-0.385986	
-0.385529	
-0.38504	
-0.384338	
-0.385071	
-0.385803	
-0.38678	
-0.386353	
-0.386383	
-0.387512	
-0.387451	
-0.387634	
-0.388397	
-0.388397	
-0.388794	
-0.388763	
-0.389771	
-0.389313	
-0.390106	
-0.389435	
-0.390137	
-0.390289	
-0.390839	
-0.391144	
-0.390198	
-0.390991	
-0.390991	
-0.391968	
-0.391571	
-0.392151	
-0.391296	
-0.390778	
-0.391052	
-0.390137	
-0.391113	
-0.390381	
-0.389374	
-0.389801	
-0.389862	
-0.389252	
-0.39032	
-0.39035	
-0.389313	
-0.389954	
-0.390137	
-0.389313	
-0.389465	
-0.388794	
-0.388824	
-0.388428	
-0.387939	
-0.388275	
-0.388641	
-0.38739	
-0.387299	
-0.387451	
-0.386536	
-0.386902	
-0.387085	
-0.385529	
-0.385559	
-0.385376	
-0.385895	
-0.384735	
-0.384277	
-0.383545	
-0.383911	
-0.384308	
-0.383972	
-0.384003	
-0.383484	
-0.383636	
-0.38324	
-0.383392	
-0.38443	
-0.384857	
-0.384186	
-0.383942	
-0.384796	
-0.384308	
-0.384949	
-0.385437	
-0.384613	
-0.385468	
-0.385071	
-0.386475	
-0.38681	
-0.387329	
-0.387024	
-0.387085	
-0.387909	
-0.388031	
-0.38858	
-0.388031	
-0.388519	
-0.388763	
-0.388367	
-0.388855	
-0.389709	
-0.389465	
-0.388855	
-0.389954	
-0.389648	
-0.39035	
-0.390472	
-0.389954	
-0.390228	
-0.389709	
-0.389954	
-0.390411	
-0.389587	
-0.389374	
-0.388916	
-0.389252	
-0.388733	
-0.388702	
-0.388245	
-0.389465	
-0.389252	
-0.388428	
-0.389587	
-0.389252	
-0.388153	
-0.387909	
-0.387329	
-0.386627	
-0.387146	
-0.387024	
-0.385406	
-0.385864	
-0.385529	
-0.385834	
-0.386353	
-0.386353	
-0.385925	
-0.385742	
-0.385986	
-0.385651	
-0.386444	
-0.385132	
-0.385559	
-0.385284	
-0.38623	
-0.386414	
-0.386871	
-0.38678	
-0.386383	
-0.386353	
-0.386749	
-0.38736	
-0.387787	
-0.388336	
-0.388	
-0.387207	
-0.387482	
-0.388763	
-0.388519	
-0.388367	
-0.388794	
-0.38974	
-0.389832	
-0.390472	
-0.389954	
-0.389801	
-0.389679	
-0.390045	
-0.391388	
-0.391602	
-0.391449	
-0.390991	
-0.391357	
-0.391083	
-0.391724	
-0.391571	
-0.391571	
-0.391449	
-0.390625	
-0.391663	
-0.392212	
-0.391754	
-0.392426	
-0.391571	
-0.392365	
-0.39093	
-0.391693	
-0.390656	
-0.391113	
-0.390594	
-0.390106	
-0.390686	
-0.390137	
-0.390076	
-0.389893	
-0.388916	
-0.389893	
-0.390015	
-0.390106	
-0.388367	
-0.389038	
-0.389069	
-0.389099	
-0.389496	
-0.388733	
-0.388397	
-0.387878	
-0.387909	
-0.38681	
-0.386719	
-0.385559	
-0.384399	
-0.385101	
-0.384674	
-0.38562	
-0.385406	
-0.385376	
-0.384674	
-0.38501	
-0.385742	
-0.385162	
-0.385529	
-0.384735	
-0.384766	
-0.384796	
-0.384949	
-0.385803	
-0.385712	
-0.385468	
-0.385345	
-0.386597	
-0.385956	
-0.386353	
-0.386597	
-0.386139	
-0.386719	
-0.386871	
-0.387939	
-0.387299	
-0.387604	
-0.387482	
-0.387909	
-0.388458	
-0.388794	
-0.389709	
-0.388733	
-0.38916	
-0.38974	
-0.389832	
-0.3909	
-0.390289	
-0.390381	
-0.390015	
-0.391174	
-0.3909	
-0.391632	
-0.391449	
-0.391113	
-0.391357	
-0.392151	
-0.393463	
-0.393494	
-0.393738	
-0.393524	
-0.392853	
-0.393341	
-0.393036	
-0.392792	
-0.391479	
-0.391357	
-0.391113	
-0.390137	
-0.391266	
-0.390656	
-0.390015	
-0.388702	
-0.389465	
-0.389526	
-0.388794	
-0.388702	
-0.386993	
-0.387146	
-0.386444	
-0.387177	
-0.386719	
-0.386627	
-0.385956	
-0.385956	
-0.386871	
-0.386414	
-0.386383	
-0.38562	
-0.386108	
-0.385681	
-0.385895	
-0.386292	
-0.386017	
-0.386444	
-0.386719	
-0.38681	
-0.38623	
-0.387146	
-0.387756	
-0.386658	
-0.387573	
-0.388153	
-0.388153	
-0.386993	
-0.387726	
-0.387451	
-0.388306	
-0.389008	
-0.388855	
-0.388458	
-0.388245	
-0.388885	
-0.388733	
-0.389038	
-0.389526	
-0.389954	
-0.389465	
-0.389313	
-0.390015	
-0.390228	
-0.390503	
-0.390289	
-0.388947	
-0.390045	
-0.390228	
-0.390594	
-0.390717	
-0.390625	
-0.389282	
-0.389923	
-0.390259	
-0.389709	
-0.389771	
-0.389221	
-0.389435	
-0.390198	
-0.390259	
-0.390015	
-0.389526	
-0.388702	
-0.388397	
-0.388275	
-0.388153	
-0.388031	
-0.387024	
-0.385406	
-0.386566	
-0.386444	
-0.386566	
-0.386169	
-0.385956	
-0.385193	
-0.385895	
-0.385345	
-0.385529	
-0.385162	
-0.38443	
-0.382965	
-0.383301	
-0.383942	
-0.383972	
-0.385254	
-0.384186	
-0.384521	
-0.385376	
-0.385986	
-0.385956	
-0.385437	
-0.385193	
-0.385284	
-0.385468	
-0.384674	
-0.38559	
-0.386261	
-0.385468	
-0.385376	
-0.386261	
-0.386414	
-0.386353	
-0.386993	
-0.386322	
-0.386292	
-0.387268	
-0.387848	
-0.387848	
-0.387299	
-0.387909	
-0.388153	
-0.388519	
-0.388947	
-0.389221	
-0.388794	
-0.389709	
-0.390259	
-0.390137	
-0.391541	
-0.392426	
-0.392181	
-0.392181	
-0.391541	
-0.391754	
-0.392242	
-0.391541	
-0.391663	
-0.391907	
-0.391907	
-0.39209	
-0.391846	
-0.391663	
-0.3909	
-0.391571	
-0.389679	
-0.390747	
-0.390045	
-0.38916	
-0.388641	
-0.38913	
-0.388336	
-0.388794	
-0.38916	
-0.387939	
-0.388	
-0.388336	
-0.388062	
-0.387512	
-0.387512	
-0.386963	
-0.3862	
-0.386292	
-0.386475	
-0.3862	
-0.38562	
-0.385864	
-0.385803	
-0.385559	
-0.38562	
-0.38562	
-0.385468	
-0.384766	
-0.384979	
-0.385529	
-0.385986	
-0.386658	
-0.385864	
-0.386627	
-0.386658	
-0.386902	
-0.387604	
-0.38739	
-0.386047	
-0.386353	
-0.386749	
-0.387024	
-0.387543	
-0.38797	
-0.387817	
-0.388641	
-0.388	
-0.389221	
-0.389038	
-0.389038	
-0.388947	
-0.389618	
-0.389313	
-0.390228	
-0.390594	
-0.389435	
-0.390167	
-0.390106	
-0.390869	
-0.390015	
-0.390259	
-0.389526	
-0.389709	
-0.389343	
-0.388611	
-0.389282	
-0.389313	
-0.388489	
-0.388641	
-0.388611	
-0.389252	
-0.388672	
-0.388458	
-0.387512	
-0.38736	
-0.387115	
-0.388763	
-0.387604	
-0.386871	
-0.386414	
-0.385986	
-0.385681	
-0.385559	
-0.386017	
-0.385406	
-0.38559	
-0.385376	
-0.385162	
-0.384857	
-0.384827	
-0.384613	
-0.384033	
-0.384491	
-0.384705	
-0.384705	
-0.384186	
-0.383972	
-0.384338	
-0.383118	
-0.383728	
-0.383667	
-0.383728	
-0.384125	
-0.383942	
-0.384369	
-0.385101	
-0.384766	
-0.384583	
-0.385132	
-0.384949	
-0.385162	
-0.385864	
-0.385834	
-0.386078	
-0.386444	
-0.386139	
-0.386444	
-0.386597	
-0.386261	
-0.386475	
-0.386536	
-0.385254	
-0.387573	
-0.387817	
-0.387177	
-0.388153	
-0.388306	
-0.388916	
-0.388855	
-0.391083	
-0.390808	
-0.391113	
-0.390839	
-0.391632	
-0.391541	
-0.391632	
-0.391144	
-0.39151	
-0.391235	
-0.391205	
-0.391327	
-0.390991	
-0.390991	
-0.390808	
-0.38913	
-0.390808	
-0.390808	
-0.390717	
-0.390045	
-0.389587	
-0.390106	
-0.389771	
-0.390259	
-0.389557	
-0.388916	
-0.388916	
-0.388885	
-0.389038	
-0.388824	
-0.388306	
-0.388123	
-0.387756	
-0.387848	
-0.387268	
-0.387085	
-0.387024	
-0.386505	
-0.3862	
-0.386139	
-0.386444	
-0.387085	
-0.385864	
-0.385345	
-0.38562	
-0.385834	
-0.385529	
-0.384583	
-0.384491	
-0.383453	
-0.382813	
-0.383453	
-0.383606	
-0.383972	
-0.384003	
-0.383606	
-0.383148	
-0.384979	
-0.385651	
-0.385071	
-0.385376	
-0.385132	
-0.386475	
-0.387634	
-0.387604	
-0.387848	
-0.38797	
-0.387909	
-0.388733	
-0.389648	
-0.388916	
-0.389557	
-0.389709	
-0.389832	
-0.390625	
-0.390869	
-0.391449	
-0.390869	
-0.390564	
-0.390259	
-0.391113	
-0.391479	
-0.390839	
-0.390594	
-0.390045	
-0.390594	
-0.390198	
-0.389893	
-0.390167	
-0.389648	
-0.389984	
-0.388641	
-0.389252	
-0.389435	
-0.388947	
-0.388947	
-0.38858	
-0.389923	
-0.389954	
-0.389557	
-0.389313	
-0.387817	
-0.388	
-0.388611	
-0.388428	
-0.387329	
-0.387329	
-0.387543	
-0.387604	
-0.388031	
-0.387512	
-0.386932	
-0.386963	
-0.386749	
-0.386658	
-0.387421	
-0.387024	
-0.386993	
-0.386505	
-0.386749	
-0.387268	
-0.387421	
-0.387604	
-0.387665	
-0.387329	
-0.387115	
-0.387573	
-0.386627	
-0.38681	
-0.386963	
-0.387299	
-0.387268	
-0.388397	
-0.388306	
-0.389038	
-0.389496	
-0.38974	
-0.389771	
-0.390961	
-0.390533	
-0.39035	
-0.390656	
-0.390411	
-0.391022	
-0.391754	
-0.391357	
-0.392303	
-0.391724	
-0.391754	
-0.392334	
-0.392883	
-0.393433	
-0.39328	
-0.393463	
-0.393066	
-0.392914	
-0.392853	
-0.392792	
-0.392548	
-0.391541	
-0.391388	
-0.391754	
-0.392059	
-0.391785	
-0.390503	
-0.390778	
-0.391571	
-0.391571	
-0.391113	
-0.391022	
-0.390594	
-0.390259	
-0.390381	
-0.390442	
-0.390015	
-0.38974	
-0.389587	
-0.389404	
-0.389587	
-0.389526	
-0.388855	
-0.389069	
-0.388306	
-0.387848	
-0.386902	
-0.387909	
-0.386902	
-0.386444	
-0.38562	
-0.385193	
-0.385559	
-0.385742	
-0.386017	
-0.385864	
-0.384918	
-0.385651	
-0.384766	
-0.384827	
-0.38501	
-0.385529	
-0.38504	
-0.385345	
-0.386353	
-0.386169	
-0.387146	
-0.386475	
-0.386719	
-0.38739	
-0.387787	
-0.386932	
-0.387604	
-0.388	
-0.388306	
-0.388763	
-0.389496	
-0.389099	
-0.389404	
-0.389587	
-0.390228	
-0.389313	
-0.390015	
-0.390381	
-0.390381	
-0.390076	
-0.391663	
-0.391357	
-0.391693	
-0.392578	
-0.391907	
-0.391327	
-0.391998	
-0.39151	
-0.391113	
-0.39093	
-0.39151	
-0.390656	
-0.391357	
-0.391144	
-0.391113	
-0.390991	
-0.390198	
-0.389954	
-0.390015	
-0.391235	
-0.3909	
-0.390472	
-0.390167	
-0.389496	
-0.38974	
-0.388885	
-0.389435	
-0.388794	
-0.387695	
-0.388214	
-0.388214	
-0.386963	
-0.387115	
-0.387604	
-0.386902	
-0.387482	
-0.388031	
-0.387238	
-0.387695	
-0.387268	
-0.386902	
-0.387512	
-0.38797	
-0.387756	
-0.387543	
-0.387909	
-0.388092	
-0.38855	
-0.388824	
-0.38913	
-0.388763	
-0.389038	
-0.389801	
-0.389587	
-0.389374	
-0.388794	
-0.389343	
-0.389038	
-0.390472	
-0.390961	
-0.391205	
-0.392822	
-0.391663	
-0.391479	
-0.391479	
-0.392029	
-0.391785	
-0.391663	
-0.392487	
-0.392639	
-0.392487	
-0.392883	
-0.39328	
-0.393463	
-0.393158	
-0.393372	
-0.393005	
-0.393158	
-0.392853	
-0.392181	
-0.393311	
-0.393677	
-0.393799	
-0.393921	
-0.393005	
-0.392365	
-0.392365	
-0.392639	
-0.392303	
-0.391968	
-0.391327	
-0.391693	
-0.3909	
-0.391296	
-0.39151	
-0.391205	
-0.391327	
-0.390961	
-0.391174	
-0.390442	
-0.391144	
-0.390289	
-0.389526	
-0.389252	
-0.389496	
-0.389618	
-0.38913	
-0.389008	
-0.388062	
-0.386627	
-0.38736	
-0.386627	
-0.387024	
-0.38681	
-0.386566	
-0.386444	
-0.386505	
-0.386749	
-0.386963	
-0.386871	
-0.386261	
-0.386749	
-0.387268	
-0.38681	
-0.386414	
-0.38623	
-0.386597	
-0.386719	
-0.387665	
-0.387177	
-0.387817	
-0.387665	
-0.387939	
-0.388031	
-0.388092	
-0.388428	
-0.388397	
-0.388855	
-0.388794	
-0.389404	
-0.39035	
-0.390015	
-0.390289	
-0.390442	
-0.390564	
-0.390778	
-0.390778	
-0.390778	
-0.390717	
-0.391144	
-0.391296	
-0.391632	
-0.392303	
-0.392517	
-0.392822	
-0.392731	
-0.392731	
-0.393188	
-0.39328	
-0.392792	
-0.394073	
-0.394135	
-0.394287	
-0.39389	
-0.393768	
-0.393707	
-0.39328	
-0.393616	
-0.393463	
-0.392639	
-0.392303	
-0.391785	
-0.391022	
-0.390869	
-0.390381	
-0.390198	
-0.390106	
-0.389374	
-0.388397	
-0.38855	
-0.388428	
-0.387604	
-0.387665	
-0.387543	
-0.387299	
-0.386658	
-0.387329	
-0.387573	
-0.387115	
-0.386932	
-0.386597	
-0.387268	
-0.386566	
-0.387451	
-0.387115	
-0.386993	
-0.387329	
-0.387848	
-0.388214	
-0.388184	
-0.388824	
-0.388489	
-0.388275	
-0.388977	
-0.388641	
-0.38797	
-0.387482	
-0.387573	
-0.388733	
-0.389801	
-0.390076	
-0.389862	
-0.390137	
-0.390167	
-0.390808	
-0.390533	
-0.390747	
-0.390472	
-0.39032	
-0.39093	
-0.390289	
-0.391296	
-0.391144	
-0.391083	
-0.39093	
-0.390991	
-0.391754	
-0.390778	
-0.391571	
-0.390717	
-0.390411	
-0.390839	
-0.3909	
-0.391449	
-0.390747	
-0.390869	
-0.390564	
-0.39151	
-0.391327	
-0.3909	
-0.390259	
-0.389374	
-0.389526	
-0.389069	
-0.389252	
-0.389038	
-0.388458	
-0.388031	
-0.387543	
-0.387817	
-0.387543	
-0.387268	
-0.38681	
-0.385895	
-0.386749	
-0.386108	
-0.386383	
-0.386047	
-0.386414	
-0.384827	
-0.384918	
-0.385712	
-0.38559	
-0.385315	
-0.384735	
-0.384888	
-0.385498	
-0.38623	
-0.386505	
-0.386169	
-0.386292	
-0.385651	
-0.38681	
-0.387268	
-0.387268	
-0.386749	
	
