E:\DOCUMENTS AND SETTINGS\JPOTAS\MEUS DOCUMENTOS\UFRJ\RSCI-BM 12 WK SERIES\070803-RSCI-BM-11\RSCI-BM-11-REMG\070803-RSCI-BM-11-REMG-0010.ACQ
0.025000 msec/sample
1 channel
Analog input
Volts
CH1	
2000	
-0.388245	
-0.388611	
-0.389526	
-0.388123	
-0.388855	
-0.389893	
-0.390015	
-0.389771	
-0.389832	
-0.389832	
-0.391052	
-0.391602	
-0.391418	
-0.390991	
-0.390442	
-0.390686	
-0.39093	
-0.391296	
-0.3927	
-0.392273	
-0.392151	
-0.392517	
-0.393127	
-0.394592	
-0.393738	
-0.394043	
-0.392761	
-0.393188	
-0.39209	
-0.395996	
-0.395935	
-0.395386	
-0.395142	
-0.395203	
-0.395264	
-0.394104	
-0.394653	
-0.394653	
-0.392639	
-0.393066	
-0.394165	
-0.394958	
-0.392334	
-0.392395	
-0.391846	
-0.392151	
-0.392578	
-0.391785	
-0.391418	
-0.391296	
-0.389221	
-0.389771	
-0.390076	
-0.390381	
-0.390381	
-0.390076	
-0.389771	
-0.390381	
-0.391602	
-0.390625	
-0.389648	
-0.389343	
-0.389526	
-0.389771	
-0.390198	
-0.390015	
-0.390076	
-0.389954	
-0.388977	
-0.389587	
-0.389099	
-0.39093	
-0.39093	
-0.389893	
-0.391113	
-0.392334	
-0.392883	
-0.392822	
-0.39325	
-0.394104	
-0.393982	
-0.394226	
-0.395081	
-0.395874	
-0.395752	
-0.39325	
-0.394714	
-0.39502	
-0.394836	
-0.395325	
-0.395508	
-0.394409	
-0.395081	
-0.396606	
-0.395386	
-0.395142	
-0.395325	
-0.394165	
-0.394165	
-0.39447	
-0.394714	
-0.394348	
-0.393921	
-0.392578	
-0.393555	
-0.394897	
-0.394043	
-0.392456	
-0.39209	
-0.391296	
-0.391479	
-0.391602	
-0.391541	
-0.390991	
-0.390198	
-0.389893	
-0.389404	
-0.390381	
-0.38916	
-0.387695	
-0.386658	
-0.386292	
-0.385498	
-0.385986	
-0.385681	
-0.385193	
-0.38446	
-0.384583	
-0.384949	
-0.384338	
-0.384583	
-0.383667	
-0.382263	
-0.382629	
-0.383179	
-0.383972	
-0.383789	
-0.383667	
-0.382935	
-0.384033	
-0.384949	
-0.385193	
-0.385132	
-0.385559	
-0.383789	
-0.384949	
-0.385803	
-0.386292	
-0.386841	
-0.386902	
-0.386902	
-0.388062	
-0.389343	
-0.388428	
-0.388367	
-0.388306	
-0.388916	
-0.389343	
-0.390381	
-0.390808	
-0.390808	
-0.39093	
-0.391296	
-0.392334	
-0.394165	
-0.393311	
-0.39386	
-0.393005	
-0.39386	
-0.394409	
-0.395081	
-0.394714	
-0.396118	
-0.3974	
-0.397644	
-0.397278	
-0.397705	
-0.396973	
-0.397217	
-0.39447	
-0.395569	
-0.395508	
-0.395447	
-0.394592	
-0.394409	
-0.39386	
-0.393433	
-0.394531	
-0.392883	
-0.3927	
-0.392578	
-0.390015	
-0.390259	
-0.390686	
-0.391357	
-0.390686	
-0.390198	
-0.386353	
-0.382446	
-0.383362	
-0.382019	
-0.381775	
-0.381287	
-0.384888	
-0.388245	
-0.389771	
-0.389282	
-0.38916	
-0.388611	
-0.388794	
-0.389221	
-0.389954	
-0.389465	
-0.388794	
-0.38739	
-0.388794	
-0.387939	
-0.386963	
-0.387085	
-0.387634	
-0.388245	
-0.388794	
-0.389526	
-0.389648	
-0.390198	
-0.390015	
-0.387512	
-0.389282	
-0.390198	
-0.390503	
-0.390198	
-0.390625	
-0.390198	
-0.391296	
-0.391418	
-0.392212	
-0.392029	
-0.391785	
-0.390564	
-0.391418	
-0.391785	
-0.39209	
-0.392212	
-0.392151	
-0.390869	
-0.392273	
-0.394226	
-0.39325	
-0.392639	
-0.391907	
-0.392151	
-0.392212	
-0.391052	
-0.392212	
-0.391846	
-0.391846	
-0.390869	
-0.391479	
-0.393005	
-0.391663	
-0.39093	
-0.388611	
-0.389221	
-0.388794	
-0.389282	
-0.38855	
-0.388245	
-0.387207	
-0.387207	
-0.387573	
-0.388123	
-0.387146	
-0.386963	
-0.38501	
-0.385742	
-0.385803	
-0.387085	
-0.38562	
-0.386047	
-0.385864	
-0.38623	
-0.387695	
-0.387207	
-0.386719	
-0.387268	
-0.387817	
-0.388306	
-0.388245	
-0.390503	
-0.391296	
-0.391846	
-0.391602	
-0.394226	
-0.395691	
-0.396423	
-0.3974	
-0.397217	
-0.398193	
-0.399719	
-0.401428	
-0.401672	
-0.402283	
-0.402832	
-0.404663	
-0.406433	
-0.406799	
-0.407471	
-0.407898	
-0.408752	
-0.408569	
-0.410583	
-0.411804	
-0.412659	
-0.413696	
-0.415222	
-0.416748	
-0.418396	
-0.420532	
-0.422302	
-0.421692	
-0.420532	
-0.422729	
-0.423645	
-0.423096	
-0.423462	
-0.423096	
-0.4245	
-0.425293	
-0.426025	
-0.424866	
-0.422913	
-0.423462	
-0.423584	
-0.425232	
-0.424561	
-0.4245	
-0.424255	
-0.424255	
-0.425293	
-0.426025	
-0.425293	
-0.424805	
-0.424133	
-0.423828	
-0.424927	
-0.424316	
-0.423584	
-0.423096	
-0.422607	
-0.423218	
-0.422974	
-0.422913	
-0.421204	
-0.419434	
-0.4198	
-0.420288	
-0.419189	
-0.415894	
-0.410278	
-0.409912	
-0.409363	
-0.408386	
-0.40686	
-0.410034	
-0.41272	
-0.413147	
-0.413147	
-0.412598	
-0.411804	
-0.411133	
-0.409119	
-0.408936	
-0.408875	
-0.407898	
-0.407227	
-0.405762	
-0.404968	
-0.404053	
-0.402954	
-0.402954	
-0.402344	
-0.400696	
-0.399719	
-0.398987	
-0.398499	
-0.396545	
-0.395691	
-0.393005	
-0.391052	
-0.390503	
-0.389771	
-0.388367	
-0.387634	
-0.385315	
-0.385071	
-0.384216	
-0.382263	
-0.381042	
-0.3797	
-0.376648	
-0.375122	
-0.375427	
-0.374573	
-0.374634	
-0.374084	
-0.37146	
-0.370789	
-0.370178	
-0.369995	
-0.369141	
-0.366943	
-0.36499	
-0.365967	
-0.364746	
-0.364075	
-0.362793	
-0.361877	
-0.359131	
-0.358643	
-0.358337	
-0.355896	
-0.354126	
-0.352417	
-0.351563	
-0.349731	
-0.349792	
-0.349182	
-0.348877	
-0.348206	
-0.347595	
-0.347168	
-0.346558	
-0.347473	
-0.345642	
-0.344788	
-0.345276	
-0.347351	
-0.347046	
-0.34729	
-0.346985	
-0.347717	
-0.34906	
-0.349609	
-0.350342	
-0.350708	
-0.350403	
-0.351318	
-0.353394	
-0.354919	
-0.355164	
-0.357239	
-0.357666	
-0.359375	
-0.361572	
-0.363159	
-0.364441	
-0.364441	
-0.364441	
-0.367249	
-0.368958	
-0.370422	
-0.37207	
-0.372864	
-0.375	
-0.376526	
-0.377136	
-0.378235	
-0.378174	
-0.376892	
-0.378174	
-0.379883	
-0.380432	
-0.380676	
-0.381165	
-0.382385	
-0.383728	
-0.383972	
-0.386719	
-0.38562	
-0.38501	
-0.387695	
-0.389709	
-0.391479	
-0.392944	
-0.392761	
-0.395264	
-0.395996	
-0.398254	
-0.39801	
-0.397522	
-0.395386	
-0.396362	
-0.397095	
-0.395996	
-0.395935	
-0.395447	
-0.395752	
-0.396484	
-0.396973	
-0.396851	
-0.396667	
-0.394836	
-0.393188	
-0.39447	
-0.39386	
-0.392029	
-0.391357	
-0.391968	
-0.3927	
-0.393494	
-0.394226	
-0.393982	
-0.392151	
-0.391052	
-0.390991	
-0.390991	
-0.390747	
-0.390564	
-0.389465	
-0.389832	
-0.390076	
-0.390747	
-0.390015	
-0.389282	
-0.388611	
-0.388245	
-0.38855	
-0.388428	
-0.388489	
-0.388611	
-0.388916	
-0.389038	
-0.389404	
-0.389893	
-0.389709	
-0.388855	
-0.388611	
-0.388245	
-0.388794	
-0.389221	
-0.389404	
-0.388184	
-0.389038	
-0.388672	
-0.388794	
-0.387451	
-0.386963	
-0.383606	
-0.381287	
-0.381165	
-0.380005	
-0.379395	
-0.377991	
-0.375549	
-0.373291	
-0.371277	
-0.370605	
-0.368774	
-0.366882	
-0.364624	
-0.364136	
-0.363892	
-0.36377	
-0.363159	
-0.363464	
-0.36322	
-0.362976	
-0.363647	
-0.362671	
-0.361511	
-0.359253	
-0.35614	
-0.35614	
-0.355042	
-0.353577	
-0.351929	
-0.349548	
-0.34906	
-0.348022	
-0.347595	
-0.346191	
-0.345154	
-0.343994	
-0.343201	
-0.344299	
-0.34491	
-0.344788	
-0.344849	
-0.344849	
-0.346313	
-0.347229	
-0.348206	
-0.349426	
-0.349731	
-0.349854	
-0.352539	
-0.353882	
-0.355225	
-0.355896	
-0.3573	
-0.357788	
-0.358887	
-0.359741	
-0.35968	
-0.359619	
-0.358032	
-0.359497	
-0.360901	
-0.360718	
-0.361023	
-0.361267	
-0.361389	
-0.361511	
-0.363403	
-0.361389	
-0.360535	
-0.360168	
-0.360413	
-0.360107	
-0.360657	
-0.35968	
-0.359009	
-0.359558	
-0.359558	
-0.360046	
-0.360046	
-0.359436	
-0.359253	
-0.357178	
-0.360596	
-0.359558	
-0.360413	
-0.359741	
-0.360229	
-0.359985	
-0.361023	
-0.362122	
-0.360413	
-0.359924	
-0.358093	
-0.358337	
-0.359314	
-0.359375	
-0.359375	
-0.35907	
-0.360474	
-0.361267	
-0.36377	
-0.36145	
-0.360657	
-0.359009	
-0.360168	
-0.361389	
-0.36261	
-0.362732	
-0.362061	
-0.364075	
-0.364563	
-0.367126	
-0.365906	
-0.366638	
-0.366455	
-0.365051	
-0.368713	
-0.368347	
-0.368958	
-0.369263	
-0.370056	
-0.370972	
-0.371887	
-0.374512	
-0.371826	
-0.37262	
-0.370544	
-0.373291	
-0.373718	
-0.37439	
-0.374268	
-0.374573	
-0.375122	
-0.376038	
-0.377075	
-0.377258	
-0.376587	
-0.376587	
-0.376953	
-0.378357	
-0.377686	
-0.378479	
-0.378235	
-0.378906	
-0.379639	
-0.380737	
-0.381287	
-0.380371	
-0.380432	
-0.38092	
-0.383667	
-0.383118	
-0.382446	
-0.382446	
-0.382263	
-0.382751	
-0.382996	
-0.384094	
-0.38208	
-0.382263	
-0.381714	
-0.382202	
-0.382385	
-0.381409	
-0.38147	
-0.381531	
-0.382019	
-0.38324	
-0.38324	
-0.381653	
-0.381226	
-0.380798	
-0.381592	
-0.381042	
-0.381348	
-0.381348	
-0.380493	
-0.381592	
-0.382263	
-0.382324	
-0.38147	
-0.381104	
-0.381348	
-0.379272	
-0.38269	
-0.380981	
-0.382019	
-0.381348	
-0.381226	
-0.381775	
-0.382141	
-0.383362	
-0.382874	
-0.382996	
-0.383057	
-0.384949	
-0.384705	
-0.385315	
-0.385864	
-0.386169	
-0.38678	
-0.387207	
-0.388672	
-0.387329	
-0.387085	
-0.386902	
-0.388245	
-0.387878	
-0.388123	
-0.388367	
-0.388611	
-0.388855	
-0.389526	
-0.389038	
-0.38916	
-0.387512	
-0.387512	
-0.386597	
-0.387695	
-0.387634	
-0.386658	
-0.387085	
-0.386841	
-0.387878	
-0.387207	
-0.386597	
-0.385742	
-0.38562	
-0.382813	
-0.385132	
-0.38501	
-0.384583	
-0.383545	
-0.383484	
-0.38385	
-0.38324	
-0.383911	
-0.38208	
-0.380737	
-0.379517	
-0.379211	
-0.379517	
-0.378479	
-0.378113	
-0.377197	
-0.378357	
-0.378174	
-0.378174	
-0.377747	
-0.376526	
-0.375732	
-0.375977	
-0.377075	
-0.376831	
-0.376648	
-0.376038	
-0.377319	
-0.378113	
-0.37915	
-0.380127	
-0.379089	
-0.37915	
-0.378662	
-0.380127	
-0.380188	
-0.380615	
-0.379456	
-0.38147	
-0.382385	
-0.382935	
-0.383179	
-0.381958	
-0.382141	
-0.381531	
-0.383911	
-0.384094	
-0.384216	
-0.384949	
-0.385315	
-0.386108	
-0.386353	
-0.387939	
-0.386414	
-0.386658	
-0.386963	
-0.386536	
-0.387756	
-0.38855	
-0.388916	
-0.388489	
-0.389343	
-0.388916	
-0.391541	
-0.391785	
-0.391479	
-0.39032	
-0.389282	
-0.391052	
-0.39032	
-0.390015	
-0.389832	
-0.389465	
-0.389465	
-0.388916	
-0.38916	
-0.387146	
-0.387451	
-0.385803	
-0.386047	
-0.385559	
-0.385559	
-0.38446	
-0.384399	
-0.383911	
-0.384094	
-0.385071	
-0.383545	
-0.382629	
-0.381836	
-0.381226	
-0.382507	
-0.382141	
-0.381714	
-0.381409	
-0.382324	
-0.381775	
-0.382324	
-0.381897	
-0.380859	
-0.380981	
-0.380432	
-0.381592	
-0.381714	
-0.381958	
-0.382019	
-0.381165	
-0.38208	
-0.380432	
-0.381897	
-0.381897	
-0.38208	
-0.381409	
-0.382629	
-0.38385	
-0.383301	
-0.383301	
-0.383728	
-0.384155	
-0.384766	
-0.385986	
-0.384827	
-0.384399	
-0.384766	
-0.38446	
-0.386292	
-0.386353	
-0.38562	
-0.385986	
-0.385254	
-0.386658	
-0.386719	
-0.38739	
-0.385986	
-0.386292	
-0.385193	
-0.385864	
-0.386963	
-0.386719	
-0.386414	
-0.385803	
-0.386108	
-0.38678	
-0.387268	
-0.386414	
-0.384705	
-0.385376	
-0.384827	
-0.384705	
-0.384949	
-0.383911	
-0.382813	
-0.382141	
-0.38324	
-0.382385	
-0.382507	
-0.381775	
-0.380676	
-0.379639	
-0.379456	
-0.381226	
-0.380432	
-0.379517	
-0.37915	
-0.380005	
-0.38031	
-0.380737	
-0.380432	
-0.3797	
-0.378662	
-0.378967	
-0.3797	
-0.38031	
-0.380005	
-0.380066	
-0.38031	
-0.381348	
-0.381531	
-0.382019	
-0.381165	
-0.381836	
-0.381287	
-0.381165	
-0.382751	
-0.382751	
-0.38269	
-0.383118	
-0.383911	
-0.384338	
-0.385498	
-0.384949	
-0.384399	
-0.384827	
-0.385864	
-0.386597	
-0.386902	
-0.387329	
-0.387207	
-0.386963	
-0.389221	
-0.38916	
-0.389832	
-0.389954	
-0.389343	
-0.388977	
-0.390625	
-0.391846	
-0.393127	
-0.393799	
-0.394592	
-0.39386	
-0.394104	
-0.393982	
-0.393921	
-0.392151	
-0.392395	
-0.390869	
-0.3927	
-0.392761	
-0.391479	
-0.390869	
-0.390564	
-0.390503	
-0.390564	
-0.390381	
-0.389221	
-0.387817	
-0.387817	
-0.386841	
-0.388306	
-0.386963	
-0.387085	
-0.387024	
-0.387207	
-0.387024	
-0.386841	
-0.386963	
-0.385376	
-0.385132	
-0.38446	
-0.384949	
-0.386292	
-0.385071	
-0.384949	
-0.384033	
-0.385254	
-0.384705	
-0.384521	
-0.383972	
-0.383118	
-0.383057	
-0.382141	
-0.382629	
-0.381653	
-0.382324	
-0.382507	
-0.38269	
-0.383606	
-0.383179	
-0.384949	
-0.382568	
-0.381958	
-0.382996	
-0.384033	
-0.384705	
-0.384521	
-0.384888	
-0.38501	
-0.385986	
-0.385803	
-0.386353	
-0.386169	
-0.385681	
-0.385315	
-0.385254	
-0.387085	
-0.387329	
-0.386353	
-0.38623	
-0.386353	
-0.388062	
-0.387878	
-0.388733	
-0.386719	
-0.387207	
-0.386658	
-0.387085	
-0.38739	
-0.387329	
-0.386902	
-0.386902	
-0.387451	
-0.387268	
-0.387512	
-0.388062	
-0.386841	
-0.387207	
-0.384338	
-0.385559	
-0.385193	
-0.384705	
-0.384155	
-0.383545	
-0.385315	
-0.384827	
-0.384766	
-0.383423	
-0.382874	
-0.382385	
-0.382629	
-0.383911	
-0.382263	
-0.382874	
-0.382629	
-0.382385	
-0.383606	
-0.383057	
-0.383667	
-0.382263	
-0.381348	
-0.382385	
-0.383545	
-0.383362	
-0.383484	
-0.382935	
-0.383972	
-0.385254	
-0.384766	
-0.385254	
-0.384583	
-0.384827	
-0.384399	
-0.385559	
-0.386108	
-0.385803	
-0.386292	
-0.385925	
-0.387268	
-0.388184	
-0.388733	
-0.389038	
-0.388916	
-0.388245	
-0.388977	
-0.391724	
-0.391846	
-0.391724	
-0.392334	
-0.39209	
-0.393616	
-0.394409	
-0.395203	
-0.394348	
-0.393921	
-0.393982	
-0.394348	
-0.396484	
-0.395813	
-0.394836	
-0.394775	
-0.394531	
-0.396179	
-0.396423	
-0.395081	
-0.393921	
-0.393188	
-0.392761	
-0.392639	
-0.392761	
-0.392456	
-0.391907	
-0.391174	
-0.391541	
-0.392395	
-0.391174	
-0.390259	
-0.389954	
-0.387573	
-0.38916	
-0.389832	
-0.388794	
-0.388428	
-0.387817	
-0.387024	
-0.386658	
-0.387146	
-0.386719	
-0.385803	
-0.384583	
-0.385132	
-0.385376	
-0.385803	
-0.38501	
-0.384216	
-0.383911	
-0.381958	
-0.382141	
-0.381714	
-0.381653	
-0.381592	
-0.380493	
-0.381531	
-0.382813	
-0.38324	
-0.383362	
-0.383606	
-0.382751	
-0.383667	
-0.385681	
-0.385376	
-0.384827	
-0.383484	
-0.385864	
-0.386047	
-0.387085	
-0.386292	
-0.386597	
-0.386963	
-0.387512	
-0.388855	
-0.388977	
-0.388916	
-0.388733	
-0.387024	
-0.389038	
-0.389282	
-0.389221	
-0.388977	
-0.389648	
-0.388977	
-0.39032	
-0.391296	
-0.390076	
-0.390137	
-0.388367	
-0.389893	
-0.390259	
-0.39093	
-0.390259	
-0.390503	
-0.390381	
-0.390442	
-0.392761	
-0.393311	
-0.392212	
-0.389832	
-0.387634	
-0.389832	
-0.390259	
-0.389832	
-0.388977	
-0.388733	
-0.388123	
-0.389099	
-0.390076	
-0.388672	
-0.387878	
-0.38739	
-0.385986	
-0.385986	
-0.388123	
-0.38678	
-0.386353	
-0.386536	
-0.386719	
-0.387024	
-0.387573	
-0.387085	
-0.38562	
-0.38385	
-0.386047	
-0.386047	
-0.38678	
-0.386536	
-0.38623	
-0.385681	
-0.386536	
-0.388123	
-0.386841	
-0.38678	
-0.386108	
-0.384766	
-0.386902	
-0.388794	
-0.388367	
-0.389404	
-0.389221	
-0.389893	
-0.390381	
-0.391174	
-0.391174	
-0.39032	
-0.389587	
-0.389587	
-0.391174	
-0.391785	
-0.391724	
-0.392212	
-0.391541	
-0.392334	
-0.394104	
-0.393616	
-0.3927	
-0.392273	
-0.392029	
-0.392273	
-0.392578	
-0.391846	
-0.393188	
-0.392334	
-0.392517	
-0.392822	
-0.393066	
-0.392456	
-0.391357	
-0.389587	
-0.389709	
-0.39093	
-0.390991	
-0.389954	
-0.390076	
-0.388428	
-0.389404	
-0.389893	
-0.389893	
-0.389404	
-0.388184	
-0.386475	
-0.386963	
-0.386963	
-0.385864	
-0.385437	
-0.384399	
-0.384338	
-0.384644	
-0.385498	
-0.384338	
-0.383179	
-0.382813	
-0.380066	
-0.380432	
-0.381226	
-0.380432	
-0.38092	
-0.380554	
-0.380737	
-0.381348	
-0.383545	
-0.381348	
-0.381287	
-0.38031	
-0.381287	
-0.382813	
-0.382446	
-0.382751	
-0.383057	
-0.38385	
-0.384583	
-0.385986	
-0.386414	
-0.384949	
-0.385254	
-0.384338	
-0.385437	
-0.386414	
-0.386963	
-0.386414	
-0.386414	
-0.387329	
-0.388123	
-0.389893	
-0.388184	
-0.387634	
-0.387451	
-0.387695	
-0.389465	
-0.388367	
-0.388611	
-0.388428	
-0.388977	
-0.388916	
-0.390137	
-0.39093	
-0.38916	
-0.389343	
-0.388	
-0.390442	
-0.392944	
-0.391846	
-0.391541	
-0.391235	
-0.391113	
-0.391724	
-0.392334	
-0.390808	
-0.390015	
-0.389038	
-0.388184	
-0.389771	
-0.389465	
-0.388916	
-0.388306	
-0.388184	
-0.388184	
-0.388489	
-0.389099	
-0.387451	
-0.387268	
-0.386169	
-0.386719	
-0.386902	
-0.386475	
-0.386353	
-0.385803	
-0.386475	
-0.385986	
-0.387329	
-0.387512	
-0.386475	
-0.386047	
-0.384583	
-0.386414	
-0.386353	
-0.38623	
-0.386475	
-0.385193	
-0.38562	
-0.385498	
-0.387817	
-0.387207	
-0.387939	
-0.387512	
-0.387451	
-0.389832	
-0.389587	
-0.389526	
-0.389832	
-0.389893	
-0.390686	
-0.391296	
-0.391968	
-0.39093	
-0.390991	
-0.389282	
-0.390381	
-0.391418	
-0.391785	
-0.391296	
-0.391174	
-0.391418	
-0.392029	
-0.392944	
-0.392578	
-0.391846	
-0.390747	
-0.389648	
-0.391602	
-0.390686	
-0.391541	
-0.390381	
-0.390076	
-0.390259	
-0.390686	
-0.39209	
-0.389526	
-0.389343	
-0.388062	
-0.388855	
-0.389465	
-0.388489	
-0.38855	
-0.387207	
-0.387329	
-0.386841	
-0.386719	
-0.386902	
-0.384216	
-0.38385	
-0.381104	
-0.383118	
-0.38269	
-0.382263	
-0.382019	
-0.380981	
-0.381287	
-0.381714	
-0.382935	
-0.380676	
-0.380066	
-0.379395	
-0.378723	
-0.381104	
-0.379639	
-0.380371	
-0.380371	
-0.380554	
-0.38092	
-0.382324	
-0.383118	
-0.381531	
-0.381714	
-0.379517	
-0.382935	
-0.382874	
-0.383301	
-0.383911	
-0.383728	
-0.384033	
-0.383972	
-0.385803	
-0.384705	
-0.385559	
-0.385498	
-0.383972	
-0.387634	
-0.387085	
-0.387146	
-0.387817	
-0.388	
-0.389038	
-0.389343	
-0.392456	
-0.389526	
-0.390015	
-0.389404	
-0.391357	
-0.392334	
-0.391418	
-0.391846	
-0.391541	
-0.394043	
-0.394958	
-0.394592	
-0.394104	
-0.393311	
-0.392944	
-0.391357	
-0.393311	
-0.392639	
-0.392944	
-0.391663	
-0.391785	
-0.391113	
-0.391052	
-0.3927	
-0.389771	
-0.389771	
-0.388184	
-0.388367	
-0.388306	
-0.387817	
-0.388	
-0.386963	
-0.387939	
-0.387329	
-0.387634	
-0.388672	
-0.38678	
-0.386719	
-0.383423	
-0.386475	
-0.386475	
-0.386597	
-0.385559	
-0.384705	
-0.385986	
-0.38562	
-0.38739	
-0.385376	
-0.385742	
-0.384888	
-0.383484	
-0.386597	
-0.385315	
-0.384277	
-0.38324	
-0.384521	
-0.385071	
-0.386169	
-0.387756	
-0.386719	
-0.385864	
-0.384827	
-0.387024	
-0.387634	
-0.386475	
-0.386536	
-0.387146	
-0.387207	
-0.388123	
-0.390198	
-0.388428	
-0.38916	
-0.38739	
-0.386169	
-0.388794	
-0.389099	
-0.389221	
-0.389099	
-0.388245	
-0.389404	
-0.389771	
-0.391479	
-0.389648	
-0.38916	
-0.388306	
-0.388916	
-0.390381	
-0.389465	
-0.389465	
-0.38855	
-0.388855	
-0.389404	
-0.389893	
-0.390259	
-0.388367	
-0.387207	
-0.387329	
-0.387146	
-0.386902	
-0.385803	
-0.386292	
-0.385132	
-0.385193	
-0.385498	
-0.386047	
-0.384583	
-0.384033	
-0.38269	
-0.382324	
-0.383789	
-0.38385	
-0.383118	
-0.383545	
-0.382629	
-0.383301	
-0.38385	
-0.384583	
-0.382446	
-0.382874	
-0.381897	
-0.382996	
-0.383911	
-0.383972	
-0.383972	
-0.383301	
-0.38385	
-0.384888	
-0.386475	
-0.386108	
-0.384827	
-0.385437	
-0.38501	
-0.386719	
-0.385986	
-0.386658	
-0.386902	
-0.386108	
-0.387512	
-0.388245	
-0.390015	
-0.389282	
-0.388855	
-0.389832	
-0.389343	
-0.39209	
-0.391602	
-0.391907	
-0.392029	
-0.392761	
-0.393127	
-0.39386	
-0.395142	
-0.394165	
-0.395447	
-0.396423	
-0.396606	
-0.396362	
-0.396362	
-0.396118	
-0.394897	
-0.395508	
-0.395996	
-0.396301	
-0.395569	
-0.394043	
-0.392517	
-0.392212	
-0.393372	
-0.392517	
-0.393005	
-0.391968	
-0.390625	
-0.39032	
-0.391907	
-0.391357	
-0.389893	
-0.389404	
-0.388367	
-0.388611	
-0.390198	
-0.388672	
-0.388916	
-0.388062	
-0.388855	
-0.38855	
-0.389526	
-0.389465	
-0.388	
-0.387573	
-0.387085	
-0.387512	
-0.387085	
-0.386963	
-0.386719	
-0.386292	
-0.386597	
-0.386902	
-0.38678	
-0.38501	
-0.384644	
-0.382751	
-0.384155	
-0.38623	
-0.385437	
-0.385986	
-0.385986	
-0.386475	
-0.386963	
-0.388184	
-0.388245	
-0.386963	
-0.386841	
-0.386841	
-0.388245	
-0.388123	
-0.388367	
-0.388123	
-0.388306	
-0.389526	
-0.389648	
-0.391174	
-0.390686	
-0.389893	
-0.389282	
-0.389221	
-0.390747	
-0.390442	
-0.390076	
-0.389404	
-0.389771	
-0.390808	
-0.39093	
-0.390747	
-0.390503	
-0.390198	
-0.388977	
-0.38916	
-0.389893	
-0.389587	
-0.390198	
-0.390381	
-0.390076	
-0.389709	
-0.389404	
-0.388916	
-0.387939	
-0.385986	
-0.385925	
-0.387451	
-0.386597	
-0.386536	
-0.38623	
-0.38562	
-0.386108	
-0.38678	
-0.386719	
-0.386047	
-0.385437	
-0.384155	
-0.384338	
-0.385498	
-0.385254	
-0.385742	
-0.384583	
-0.385315	
-0.385925	
-0.38678	
-0.385864	
-0.385681	
-0.385498	
-0.384949	
-0.385193	
-0.386414	
-0.386719	
-0.387146	
-0.385803	
-0.387146	
-0.387939	
-0.389038	
-0.389038	
-0.388306	
-0.388	
-0.388184	
-0.390137	
-0.390686	
-0.390747	
-0.391113	
-0.391663	
-0.393066	
-0.393921	
-0.394714	
-0.394714	
-0.394226	
-0.394348	
-0.395142	
-0.395813	
-0.395752	
-0.395874	
-0.396545	
-0.397095	
-0.3974	
-0.399231	
-0.397217	
-0.3974	
-0.397461	
-0.395447	
-0.397278	
-0.396912	
-0.39679	
-0.396179	
-0.395996	
-0.395752	
-0.395264	
-0.396606	
-0.396118	
-0.39502	
-0.393188	
-0.393921	
-0.393677	
-0.393311	
-0.393066	
-0.392212	
-0.392761	
-0.393005	
-0.393494	
-0.392578	
-0.391357	
-0.390564	
-0.388428	
-0.390259	
-0.388916	
-0.389099	
-0.387939	
-0.38855	
-0.388	
-0.387817	
-0.388611	
-0.387207	
-0.386597	
-0.385498	
-0.383667	
-0.383484	
-0.38324	
-0.383118	
-0.383057	
-0.384827	
-0.384277	
-0.385376	
-0.385986	
-0.386169	
-0.385498	
-0.384827	
-0.38623	
-0.386169	
-0.38623	
-0.38623	
-0.387329	
-0.388123	
-0.388306	
-0.389404	
-0.389404	
-0.389465	
-0.389465	
-0.389038	
-0.390137	
-0.390137	
-0.390198	
-0.389709	
-0.390991	
-0.390808	
-0.391541	
-0.392212	
-0.391907	
-0.391663	
-0.391174	
-0.391602	
-0.391968	
-0.392212	
-0.391968	
-0.391968	
-0.392456	
-0.392273	
-0.393005	
-0.393799	
-0.39386	
-0.392029	
-0.391296	
-0.393005	
-0.394348	
-0.394348	
-0.392395	
-0.392761	
-0.392395	
-0.391907	
-0.392212	
-0.393127	
-0.392822	
-0.390869	
-0.39032	
-0.390564	
-0.390564	
-0.389893	
-0.390625	
-0.389771	
-0.389404	
-0.389526	
-0.391174	
-0.389832	
-0.388794	
-0.388184	
-0.387695	
-0.388489	
-0.38855	
-0.388	
-0.388794	
-0.388611	
-0.388245	
-0.388428	
-0.389832	
-0.388428	
-0.388123	
-0.387146	
-0.387939	
-0.388489	
-0.388489	
-0.387817	
-0.38916	
-0.389282	
-0.389709	
-0.390808	
-0.391235	
-0.391235	
-0.391296	
-0.390076	
-0.39093	
-0.392395	
-0.392273	
-0.393066	
-0.393311	
-0.394043	
-0.393982	
-0.396606	
-0.395386	
-0.394165	
-0.394531	
-0.393799	
-0.394897	
-0.39447	
-0.39386	
-0.395264	
-0.394836	
-0.395569	
-0.395264	
-0.396729	
-0.395203	
-0.393738	
-0.393494	
-0.394348	
-0.393677	
-0.393555	
-0.392578	
-0.39325	
-0.393066	
-0.393311	
-0.393127	
-0.392456	
-0.391785	
-0.391724	
-0.390076	
-0.390137	
-0.390991	
-0.390564	
-0.389832	
-0.389526	
-0.388794	
-0.388428	
-0.389587	
-0.388245	
-0.386658	
-0.385925	
-0.384521	
-0.385559	
-0.385437	
-0.385254	
-0.38501	
-0.383301	
-0.382324	
-0.38269	
-0.384644	
-0.382813	
-0.382813	
-0.383057	
-0.381958	
-0.383362	
-0.383606	
-0.383972	
-0.384338	
-0.384216	
-0.384521	
-0.385742	
-0.386536	
-0.386108	
-0.386597	
	
