E:\DOCUMENTS AND SETTINGS\JPOTAS\MEUS DOCUMENTOS\UFRJ\RSCI-BM 12 WK SERIES\070731-RSCI-BM-12\RSCI-BM-12-REMG\070731-RSCI-BM-12-REMG-0007.ACQ
0.025000 msec/sample
1 channel
Analog input
Volts
CH1	
2000	
-0.386902	
-0.386841	
-0.387085	
-0.386292	
-0.38678	
-0.389526	
-0.388855	
-0.389648	
-0.390076	
-0.389648	
-0.391785	
-0.39093	
-0.392273	
-0.392029	
-0.391479	
-0.391968	
-0.390869	
-0.391357	
-0.392334	
-0.391907	
-0.391907	
-0.391296	
-0.391357	
-0.392395	
-0.391907	
-0.39209	
-0.391846	
-0.390991	
-0.391113	
-0.390503	
-0.390259	
-0.391174	
-0.391479	
-0.390198	
-0.390259	
-0.389221	
-0.390198	
-0.387817	
-0.38916	
-0.388306	
-0.387817	
-0.387756	
-0.387634	
-0.387878	
-0.389038	
-0.387512	
-0.387817	
-0.387268	
-0.387451	
-0.388	
-0.388062	
-0.388611	
-0.387329	
-0.386353	
-0.386597	
-0.38678	
-0.386536	
-0.387756	
-0.387024	
-0.387024	
-0.386963	
-0.387268	
-0.387512	
-0.387817	
-0.387451	
-0.387146	
-0.386047	
-0.387695	
-0.387512	
-0.388123	
-0.388611	
-0.388977	
-0.388367	
-0.388611	
-0.388489	
-0.38916	
-0.388306	
-0.388611	
-0.388062	
-0.387695	
-0.388367	
-0.38855	
-0.387695	
-0.389343	
-0.389099	
-0.38855	
-0.388733	
-0.389343	
-0.389648	
-0.388916	
-0.388733	
-0.388062	
-0.388672	
-0.388062	
-0.388733	
-0.387329	
-0.388916	
-0.388672	
-0.389038	
-0.38855	
-0.389099	
-0.388184	
-0.388062	
-0.387085	
-0.386108	
-0.385925	
-0.385803	
-0.385315	
-0.384094	
-0.385071	
-0.384521	
-0.384949	
-0.385071	
-0.384888	
-0.384644	
-0.384644	
-0.384094	
-0.38446	
-0.384155	
-0.38324	
-0.383606	
-0.382629	
-0.384766	
-0.383972	
-0.383545	
-0.384338	
-0.384033	
-0.384766	
-0.384949	
-0.384216	
-0.384277	
-0.384766	
-0.383911	
-0.384521	
-0.38385	
-0.385742	
-0.384888	
-0.385315	
-0.384644	
-0.385986	
-0.38562	
-0.386841	
-0.385498	
-0.386353	
-0.386536	
-0.386292	
-0.386719	
-0.386963	
-0.387756	
-0.387573	
-0.388428	
-0.38916	
-0.390747	
-0.390442	
-0.392151	
-0.391113	
-0.392639	
-0.392639	
-0.392517	
-0.393738	
-0.393066	
-0.394348	
-0.395081	
-0.39502	
-0.395142	
-0.395508	
-0.394897	
-0.395081	
-0.394165	
-0.393982	
-0.394226	
-0.39325	
-0.394226	
-0.393066	
-0.393799	
-0.392944	
-0.393005	
-0.393372	
-0.393738	
-0.393005	
-0.393494	
-0.391846	
-0.39209	
-0.391418	
-0.391296	
-0.391479	
-0.390625	
-0.391357	
-0.391541	
-0.391052	
-0.39093	
-0.39093	
-0.389954	
-0.390381	
-0.388733	
-0.388733	
-0.388367	
-0.387329	
-0.381958	
-0.380615	
-0.380676	
-0.380981	
-0.380432	
-0.382751	
-0.388062	
-0.38855	
-0.388977	
-0.387817	
-0.388184	
-0.388306	
-0.387817	
-0.388245	
-0.388123	
-0.388977	
-0.388794	
-0.388672	
-0.388489	
-0.389587	
-0.388733	
-0.389221	
-0.388062	
-0.388672	
-0.389404	
-0.389709	
-0.390076	
-0.389404	
-0.389893	
-0.390381	
-0.389771	
-0.390137	
-0.391296	
-0.390747	
-0.390625	
-0.389282	
-0.39032	
-0.39032	
-0.390747	
-0.390686	
-0.390137	
-0.390686	
-0.391113	
-0.391296	
-0.390747	
-0.391418	
-0.391052	
-0.390381	
-0.389709	
-0.390564	
-0.390259	
-0.39032	
-0.390564	
-0.389282	
-0.389954	
-0.389709	
-0.389587	
-0.388733	
-0.389587	
-0.388855	
-0.388123	
-0.386475	
-0.388306	
-0.387146	
-0.387939	
-0.388	
-0.388855	
-0.388123	
-0.388062	
-0.388062	
-0.388367	
-0.38855	
-0.388428	
-0.387695	
-0.386841	
-0.389038	
-0.387146	
-0.387878	
-0.387695	
-0.388367	
-0.387634	
-0.387817	
-0.387695	
-0.388855	
-0.38916	
-0.389771	
-0.389648	
-0.389648	
-0.391968	
-0.39209	
-0.393494	
-0.394775	
-0.397095	
-0.397644	
-0.399048	
-0.400513	
-0.402527	
-0.403931	
-0.406006	
-0.407593	
-0.408997	
-0.411255	
-0.413086	
-0.415161	
-0.416382	
-0.418884	
-0.420959	
-0.42218	
-0.423584	
-0.424988	
-0.42627	
-0.426514	
-0.425842	
-0.427979	
-0.427917	
-0.430115	
-0.430908	
-0.432617	
-0.433289	
-0.433167	
-0.428406	
-0.428345	
-0.42865	
-0.429199	
-0.429077	
-0.431763	
-0.439026	
-0.440735	
-0.44165	
-0.442749	
-0.444458	
-0.445435	
-0.446716	
-0.448059	
-0.448669	
-0.448914	
-0.448669	
-0.449341	
-0.449768	
-0.449341	
-0.450073	
-0.450195	
-0.451233	
-0.451599	
-0.452637	
-0.453308	
-0.452576	
-0.454346	
-0.45636	
-0.456116	
-0.457336	
-0.458191	
-0.458313	
-0.459473	
-0.459167	
-0.461121	
-0.4599	
-0.460632	
-0.460876	
-0.460327	
-0.459167	
-0.459229	
-0.457458	
-0.457825	
-0.457031	
-0.456482	
-0.456177	
-0.455505	
-0.454712	
-0.454285	
-0.454773	
-0.454346	
-0.454163	
-0.452515	
-0.450684	
-0.450256	
-0.449829	
-0.447388	
-0.44635	
-0.443848	
-0.44342	
-0.440979	
-0.439514	
-0.437378	
-0.434265	
-0.434326	
-0.432312	
-0.428833	
-0.428711	
-0.426147	
-0.424194	
-0.422913	
-0.421509	
-0.420166	
-0.41748	
-0.415344	
-0.414246	
-0.410828	
-0.410217	
-0.408325	
-0.404785	
-0.403564	
-0.400757	
-0.398926	
-0.397339	
-0.395325	
-0.394592	
-0.392456	
-0.391785	
-0.391174	
-0.389771	
-0.390747	
-0.389648	
-0.38678	
-0.387085	
-0.385742	
-0.385925	
-0.38562	
-0.384155	
-0.384949	
-0.383362	
-0.383789	
-0.383362	
-0.381714	
-0.383484	
-0.38269	
-0.383301	
-0.38446	
-0.384521	
-0.386108	
-0.386475	
-0.387268	
-0.387695	
-0.388062	
-0.388184	
-0.388062	
-0.388672	
-0.389648	
-0.389221	
-0.390808	
-0.390991	
-0.390564	
-0.391785	
-0.392517	
-0.392517	
-0.392639	
-0.392578	
-0.393372	
-0.392151	
-0.39386	
-0.393616	
-0.391296	
-0.392883	
-0.392944	
-0.394592	
-0.39563	
-0.396973	
-0.397705	
-0.399902	
-0.401733	
-0.403015	
-0.40448	
-0.406677	
-0.408203	
-0.410217	
-0.410889	
-0.411621	
-0.41394	
-0.415466	
-0.416321	
-0.418213	
-0.419373	
-0.421936	
-0.422546	
-0.425476	
-0.426636	
-0.426697	
-0.429688	
-0.430115	
-0.431702	
-0.434143	
-0.435547	
-0.43689	
-0.43811	
-0.439026	
-0.440002	
-0.439026	
-0.44043	
-0.438721	
-0.438049	
-0.436218	
-0.435608	
-0.433716	
-0.432739	
-0.431519	
-0.429749	
-0.428833	
-0.428162	
-0.426208	
-0.425476	
-0.424377	
-0.423035	
-0.421936	
-0.421204	
-0.418945	
-0.418701	
-0.41748	
-0.416382	
-0.414307	
-0.414001	
-0.413391	
-0.410828	
-0.40918	
-0.408081	
-0.404724	
-0.404541	
-0.401855	
-0.400818	
-0.400085	
-0.399109	
-0.397644	
-0.395996	
-0.396057	
-0.396179	
-0.394897	
-0.395691	
-0.395752	
-0.394043	
-0.394714	
-0.392761	
-0.393555	
-0.39325	
-0.392822	
-0.391663	
-0.389648	
-0.390381	
-0.390747	
-0.388367	
-0.389099	
-0.38678	
-0.385559	
-0.384949	
-0.384155	
-0.385193	
-0.384155	
-0.383423	
-0.382751	
-0.381042	
-0.380981	
-0.380737	
-0.379272	
-0.3797	
-0.37793	
-0.376526	
-0.375305	
-0.374634	
-0.374512	
-0.373718	
-0.372925	
-0.372803	
-0.371338	
-0.370789	
-0.369629	
-0.369568	
-0.368835	
-0.367554	
-0.36731	
-0.365784	
-0.366455	
-0.366333	
-0.365723	
-0.366028	
-0.364014	
-0.365417	
-0.365051	
-0.364502	
-0.364807	
-0.363831	
-0.362488	
-0.362671	
-0.362366	
-0.363037	
-0.362305	
-0.363037	
-0.363403	
-0.363159	
-0.36377	
-0.364685	
-0.365417	
-0.366333	
-0.366333	
-0.366516	
-0.366272	
-0.368225	
-0.368286	
-0.368835	
-0.370361	
-0.369141	
-0.370361	
-0.370972	
-0.370178	
-0.371399	
-0.371521	
-0.370911	
-0.371887	
-0.37207	
-0.374146	
-0.373779	
-0.374451	
-0.374756	
-0.374512	
-0.375427	
-0.376038	
-0.376282	
-0.376831	
-0.376038	
-0.37677	
-0.377319	
-0.378235	
-0.377625	
-0.378296	
-0.37854	
-0.376587	
-0.377808	
-0.378479	
-0.378174	
-0.378967	
-0.378052	
-0.377258	
-0.377563	
-0.378357	
-0.378906	
-0.378601	
-0.378906	
-0.377563	
-0.377808	
-0.377686	
-0.377869	
-0.377502	
-0.377441	
-0.377075	
-0.376892	
-0.376953	
-0.378357	
-0.377869	
-0.378113	
-0.378662	
-0.377563	
-0.378662	
-0.380005	
-0.379395	
-0.380737	
-0.379883	
-0.3797	
-0.380554	
-0.380798	
-0.382446	
-0.382141	
-0.382813	
-0.382874	
-0.383545	
-0.384216	
-0.385071	
-0.385132	
-0.386047	
-0.385742	
-0.386536	
-0.386047	
-0.387024	
-0.387085	
-0.387756	
-0.387817	
-0.387878	
-0.389343	
-0.390503	
-0.390503	
-0.391174	
-0.390991	
-0.390808	
-0.391541	
-0.392273	
-0.393494	
-0.393616	
-0.393372	
-0.394104	
-0.393494	
-0.394043	
-0.395142	
-0.394653	
-0.395264	
-0.395081	
-0.395203	
-0.395569	
-0.395752	
-0.395874	
-0.395691	
-0.395691	
-0.395142	
-0.395447	
-0.395325	
-0.395569	
-0.394897	
-0.394287	
-0.392639	
-0.39209	
-0.392578	
-0.393433	
-0.392761	
-0.393127	
-0.393433	
-0.392151	
-0.392944	
-0.393433	
-0.392517	
-0.393372	
-0.393188	
-0.392456	
-0.392578	
-0.393188	
-0.392639	
-0.392212	
-0.392151	
-0.39093	
-0.391602	
-0.392029	
-0.391357	
-0.391235	
-0.391174	
-0.389771	
-0.389343	
-0.389954	
-0.391357	
-0.390747	
-0.390625	
-0.391296	
-0.390503	
-0.390564	
-0.391541	
-0.391113	
-0.391724	
-0.390503	
-0.390686	
-0.390747	
-0.390015	
-0.390503	
-0.390808	
-0.390503	
-0.389099	
-0.388977	
-0.389465	
-0.389893	
-0.38855	
-0.390259	
-0.388733	
-0.389099	
-0.388977	
-0.389709	
-0.38855	
-0.388977	
-0.388672	
-0.388428	
-0.388977	
-0.389282	
-0.388733	
-0.388672	
-0.389404	
-0.388123	
-0.387451	
-0.38855	
-0.389099	
-0.38855	
-0.387512	
-0.387451	
-0.38678	
-0.386414	
-0.386902	
-0.386597	
-0.385864	
-0.385193	
-0.384705	
-0.383789	
-0.385193	
-0.385559	
-0.385254	
-0.384949	
-0.384949	
-0.384705	
-0.385498	
-0.386292	
-0.385986	
-0.386353	
-0.38623	
-0.384827	
-0.386597	
-0.386353	
-0.387634	
-0.387024	
-0.387878	
-0.388306	
-0.388367	
-0.388367	
-0.389893	
-0.388184	
-0.389038	
-0.388245	
-0.387634	
-0.388977	
-0.389099	
-0.389282	
-0.389221	
-0.389526	
-0.389832	
-0.389526	
-0.390381	
-0.390442	
-0.390076	
-0.390015	
-0.389404	
-0.390076	
-0.389099	
-0.390808	
-0.390991	
-0.391479	
-0.392151	
-0.3927	
-0.393127	
-0.394653	
-0.393616	
-0.395264	
-0.394348	
-0.392822	
-0.394409	
-0.394897	
-0.395203	
-0.395081	
-0.394958	
-0.395813	
-0.394531	
-0.395264	
-0.396484	
-0.394348	
-0.394897	
-0.394653	
-0.393372	
-0.39386	
-0.393494	
-0.394043	
-0.393494	
-0.393066	
-0.393311	
-0.391724	
-0.392761	
-0.393616	
-0.391602	
-0.392029	
-0.391785	
-0.391296	
-0.390686	
-0.39093	
-0.390991	
-0.389648	
-0.389526	
-0.389832	
-0.388367	
-0.388916	
-0.389099	
-0.387451	
-0.387512	
-0.386902	
-0.386597	
-0.384888	
-0.386353	
-0.386719	
-0.38562	
-0.385864	
-0.38623	
-0.385315	
-0.385742	
-0.385437	
-0.386047	
-0.385254	
-0.384583	
-0.38446	
-0.384705	
-0.384644	
-0.385193	
-0.384766	
-0.384583	
-0.385071	
-0.385132	
-0.386292	
-0.385132	
-0.386047	
-0.385681	
-0.384521	
-0.385193	
-0.386047	
-0.385742	
-0.38623	
-0.385864	
-0.386108	
-0.38501	
-0.386169	
-0.38678	
-0.385437	
-0.385376	
-0.385071	
-0.385132	
-0.385315	
-0.386047	
-0.386536	
-0.385803	
-0.385376	
-0.386169	
-0.38562	
-0.386108	
-0.386475	
-0.384949	
-0.385376	
-0.385376	
-0.384644	
-0.384949	
-0.385193	
-0.385376	
-0.384766	
-0.384338	
-0.384521	
-0.384399	
-0.384766	
-0.385132	
-0.384216	
-0.384155	
-0.383057	
-0.384216	
-0.383301	
-0.38501	
-0.385315	
-0.38562	
-0.385071	
-0.385742	
-0.385437	
-0.386292	
-0.386169	
-0.386169	
-0.385132	
-0.385254	
-0.385498	
-0.385376	
-0.38623	
-0.386597	
-0.38623	
-0.386475	
-0.386719	
-0.386963	
-0.387695	
-0.387451	
-0.387329	
-0.38678	
-0.387329	
-0.38739	
-0.387817	
-0.388306	
-0.388916	
-0.388855	
-0.389099	
-0.389526	
-0.390259	
-0.39093	
-0.39093	
-0.391418	
-0.391296	
-0.391418	
-0.391907	
-0.392151	
-0.392761	
-0.392822	
-0.393616	
-0.393494	
-0.393677	
-0.394165	
-0.394409	
-0.393311	
-0.393982	
-0.393372	
-0.393188	
-0.393127	
-0.393921	
-0.39447	
-0.393188	
-0.393799	
-0.394531	
-0.392822	
-0.394714	
-0.394226	
-0.393616	
-0.393311	
-0.392517	
-0.392273	
-0.392151	
-0.393066	
-0.39386	
-0.393005	
-0.392639	
-0.393005	
-0.391541	
-0.3927	
-0.391663	
-0.390747	
-0.389526	
-0.389038	
-0.387634	
-0.387634	
-0.388123	
-0.38855	
-0.387085	
-0.387756	
-0.387451	
-0.386475	
-0.387085	
-0.387329	
-0.387329	
-0.386108	
-0.385742	
-0.385132	
-0.385315	
-0.387146	
-0.387451	
-0.387207	
-0.387268	
-0.38678	
-0.387268	
-0.386841	
-0.387451	
-0.387695	
-0.386841	
-0.386658	
-0.385986	
-0.387451	
-0.388428	
-0.389099	
-0.388672	
-0.389221	
-0.388794	
-0.388977	
-0.388733	
-0.388855	
-0.389893	
-0.387573	
-0.38855	
-0.387512	
-0.388977	
-0.389038	
-0.38916	
-0.389099	
-0.390137	
-0.388916	
-0.390259	
-0.389465	
-0.389526	
-0.389832	
-0.388245	
-0.389282	
-0.388916	
-0.389282	
-0.389648	
-0.389404	
-0.389648	
-0.389771	
-0.389038	
-0.389832	
-0.388611	
-0.388428	
-0.387939	
-0.387207	
-0.38739	
-0.387207	
-0.388245	
-0.388367	
-0.387451	
-0.387939	
-0.388184	
-0.38739	
-0.388367	
-0.388062	
-0.387329	
-0.387512	
-0.387207	
-0.386963	
-0.38623	
-0.387085	
-0.387817	
-0.387512	
-0.38739	
-0.388245	
-0.387634	
-0.389038	
-0.388306	
-0.387878	
-0.388062	
-0.387817	
-0.387573	
-0.387146	
-0.38855	
-0.389282	
-0.389343	
-0.389648	
-0.391479	
-0.390808	
-0.391785	
-0.392212	
-0.391724	
-0.392212	
-0.392395	
-0.391052	
-0.392578	
-0.392883	
-0.393555	
-0.392639	
-0.392883	
-0.393677	
-0.393127	
-0.393555	
-0.394104	
-0.392761	
-0.393188	
-0.393372	
-0.3927	
-0.392578	
-0.393433	
-0.393982	
-0.393066	
-0.392883	
-0.393433	
-0.392883	
-0.392944	
-0.393066	
-0.392395	
-0.391296	
-0.392212	
-0.392456	
-0.392029	
-0.392456	
-0.392639	
-0.391541	
-0.391541	
-0.391724	
-0.39032	
-0.390869	
-0.390137	
-0.389893	
-0.388733	
-0.388794	
-0.388367	
-0.388367	
-0.387939	
-0.387878	
-0.385925	
-0.385193	
-0.385315	
-0.384155	
-0.383606	
-0.383179	
-0.382507	
-0.381348	
-0.382141	
-0.382324	
-0.382629	
-0.382996	
-0.383789	
-0.382935	
-0.382935	
-0.382813	
-0.382935	
-0.383484	
-0.382751	
-0.382568	
-0.382019	
-0.382507	
-0.383301	
-0.383911	
-0.38446	
-0.385315	
-0.384644	
-0.384644	
-0.384338	
-0.384399	
-0.385681	
-0.384644	
-0.384705	
-0.385071	
-0.384644	
-0.385498	
-0.387024	
-0.387146	
-0.387207	
-0.387329	
-0.387695	
-0.387634	
-0.387573	
-0.388367	
-0.388245	
-0.387451	
-0.387939	
-0.387817	
-0.387268	
-0.388184	
-0.388733	
-0.388367	
-0.389038	
-0.389221	
-0.388733	
-0.388733	
-0.389038	
-0.388123	
-0.387329	
-0.388611	
-0.388367	
-0.388062	
-0.388367	
-0.388672	
-0.388428	
-0.388794	
-0.388916	
-0.388794	
-0.388	
-0.387939	
-0.387207	
-0.386597	
-0.38678	
-0.386841	
-0.386047	
-0.386963	
-0.387085	
-0.38678	
-0.38678	
-0.387451	
-0.38678	
-0.386353	
-0.386108	
-0.385925	
-0.385498	
-0.385925	
-0.38562	
-0.38562	
-0.385681	
-0.38623	
-0.386108	
-0.386536	
-0.387512	
-0.38623	
-0.387085	
-0.386841	
-0.386719	
-0.387024	
-0.387024	
-0.387329	
-0.388123	
-0.38855	
-0.388977	
-0.388916	
-0.388672	
-0.390198	
-0.389038	
-0.389832	
-0.389404	
-0.388	
-0.388916	
-0.387756	
-0.388977	
-0.388489	
-0.388184	
-0.388733	
-0.387939	
-0.388184	
-0.38916	
-0.387695	
-0.388489	
-0.388306	
-0.387634	
-0.388855	
-0.386963	
-0.388123	
-0.387939	
-0.38855	
-0.388855	
-0.388062	
-0.388489	
-0.389526	
-0.387329	
-0.38855	
-0.388184	
-0.385681	
-0.38739	
-0.386475	
-0.387085	
-0.387024	
-0.38678	
-0.387634	
-0.386108	
-0.386536	
-0.38678	
-0.384094	
-0.385559	
-0.384155	
-0.38208	
-0.383179	
-0.38208	
-0.382751	
-0.382324	
-0.382813	
-0.382629	
-0.381958	
-0.38208	
-0.382629	
-0.381714	
-0.382507	
-0.381897	
-0.380981	
-0.38147	
-0.380798	
-0.381165	
-0.381836	
-0.382568	
-0.382629	
-0.382019	
-0.382568	
-0.383301	
-0.382385	
-0.383362	
-0.382996	
-0.381775	
-0.382629	
-0.383179	
-0.382385	
-0.383362	
-0.383911	
-0.384521	
-0.383606	
-0.384644	
-0.385925	
-0.385742	
-0.386108	
-0.386719	
-0.385803	
-0.387207	
-0.387756	
-0.387329	
-0.388062	
-0.389099	
-0.388672	
-0.389038	
-0.388916	
-0.389282	
-0.388977	
-0.388977	
-0.388855	
-0.387878	
-0.388428	
-0.38855	
-0.387207	
-0.388916	
-0.389893	
-0.388245	
-0.388306	
-0.388794	
-0.387695	
-0.388184	
-0.38739	
-0.387146	
-0.386353	
-0.386597	
-0.386414	
-0.385803	
-0.385071	
-0.386414	
-0.385498	
-0.385376	
-0.385925	
-0.384521	
-0.386108	
-0.384705	
-0.384155	
-0.383362	
-0.383362	
-0.384399	
-0.384033	
-0.384155	
-0.385071	
-0.383911	
-0.38446	
-0.384644	
-0.384399	
-0.385132	
-0.384033	
-0.385071	
-0.382935	
-0.383423	
-0.383911	
-0.383301	
-0.384155	
-0.385132	
-0.384949	
-0.38501	
-0.385559	
-0.385193	
-0.38562	
-0.385376	
-0.386414	
-0.385254	
-0.385132	
-0.385437	
-0.384216	
-0.385986	
-0.386169	
-0.38562	
-0.385803	
-0.385742	
-0.386658	
-0.38623	
-0.385193	
-0.386047	
-0.384888	
-0.385376	
-0.385559	
-0.38501	
-0.385925	
-0.386475	
-0.385498	
-0.386353	
-0.38562	
-0.386414	
-0.385376	
-0.384827	
-0.38623	
-0.383606	
-0.385132	
-0.385132	
-0.384094	
-0.384644	
-0.384399	
-0.383911	
-0.384338	
-0.382751	
-0.383545	
-0.382141	
-0.380981	
-0.382263	
-0.380432	
-0.381226	
-0.381348	
-0.380615	
-0.381287	
-0.381592	
-0.380981	
-0.381592	
-0.380737	
-0.381592	
-0.380493	
-0.380249	
-0.381653	
-0.380066	
-0.381653	
-0.381287	
-0.38031	
-0.381958	
-0.382385	
-0.38208	
-0.382568	
-0.381775	
-0.382874	
-0.382019	
-0.381775	
-0.382507	
-0.381287	
-0.38208	
-0.382263	
-0.381653	
-0.382935	
-0.383667	
-0.383667	
-0.384094	
-0.383728	
-0.384949	
-0.384338	
-0.384644	
-0.385498	
-0.385254	
-0.386353	
-0.387146	
-0.387451	
-0.38916	
-0.389038	
-0.390137	
-0.39093	
-0.390869	
-0.39093	
-0.391418	
-0.391418	
-0.391296	
-0.391235	
-0.391968	
-0.391602	
-0.39093	
-0.391968	
-0.391907	
-0.391357	
-0.391357	
-0.392456	
-0.391296	
-0.390503	
-0.390015	
-0.389465	
-0.389465	
-0.389954	
-0.389709	
-0.388672	
-0.389587	
-0.389648	
-0.389404	
-0.389465	
-0.389343	
-0.388733	
-0.388245	
-0.388245	
-0.387939	
-0.387939	
-0.387512	
-0.387207	
-0.385559	
-0.386963	
-0.386169	
-0.386658	
-0.385559	
-0.386169	
-0.385437	
-0.384705	
-0.38562	
-0.385437	
-0.385315	
-0.385315	
-0.385315	
-0.384521	
-0.385254	
-0.385376	
-0.385559	
-0.385376	
-0.386108	
-0.384949	
-0.385254	
-0.384949	
-0.385132	
-0.385376	
-0.385315	
-0.385315	
-0.385376	
-0.386047	
-0.386108	
-0.386414	
-0.386047	
-0.387329	
-0.38678	
-0.386658	
-0.387268	
-0.388	
-0.387512	
-0.387207	
-0.387207	
-0.387207	
-0.387817	
-0.38739	
-0.388428	
-0.388123	
-0.388306	
-0.388062	
-0.387939	
-0.388	
-0.38855	
-0.388245	
-0.387939	
-0.387878	
-0.387878	
-0.388855	
-0.387939	
-0.388489	
-0.388733	
-0.386536	
-0.387451	
-0.386963	
-0.385864	
-0.387451	
-0.386597	
-0.38623	
-0.38562	
-0.385925	
-0.386108	
-0.385376	
-0.386169	
-0.386475	
-0.384399	
-0.385315	
-0.384338	
-0.38324	
-0.385437	
-0.385681	
-0.385315	
-0.38562	
-0.385925	
-0.386719	
-0.385925	
-0.386597	
-0.386719	
-0.385254	
-0.385193	
-0.383667	
-0.383667	
-0.38562	
-0.385559	
-0.385864	
-0.385437	
-0.38562	
-0.386963	
-0.385925	
-0.387146	
-0.388062	
-0.386536	
-0.386292	
-0.385254	
-0.38678	
-0.387329	
-0.386902	
-0.387512	
-0.387207	
-0.388794	
-0.389343	
-0.389587	
-0.390747	
-0.389709	
-0.390259	
-0.390503	
-0.389709	
-0.391663	
-0.391479	
-0.392151	
-0.391846	
-0.391602	
-0.392273	
-0.392883	
-0.392273	
-0.392822	
-0.39209	
-0.390686	
-0.391541	
-0.391174	
-0.392151	
-0.391541	
-0.391296	
-0.391602	
-0.390991	
-0.391724	
-0.391785	
-0.391296	
-0.392578	
-0.391235	
-0.390198	
-0.391296	
-0.389893	
-0.390991	
-0.390381	
-0.390442	
-0.390198	
-0.389465	
-0.389954	
-0.390198	
-0.389282	
-0.389709	
-0.387878	
-0.386414	
-0.385925	
-0.38385	
-0.386108	
-0.385437	
-0.385437	
-0.385376	
-0.384705	
-0.384766	
-0.385559	
-0.385437	
-0.38678	
-0.38501	
-0.385071	
-0.384827	
-0.383179	
-0.385498	
-0.385376	
-0.385681	
-0.385559	
-0.385742	
-0.386475	
-0.387085	
-0.386841	
-0.388672	
-0.386414	
-0.38678	
-0.386719	
-0.385986	
-0.388062	
-0.388428	
-0.388245	
-0.388611	
-0.387939	
-0.388733	
-0.389282	
-0.389221	
-0.390015	
-0.388794	
-0.388855	
-0.388977	
-0.38855	
-0.390076	
-0.389526	
-0.389587	
-0.389526	
-0.389038	
-0.389709	
-0.390686	
-0.389587	
-0.390259	
-0.389526	
-0.389343	
-0.389465	
-0.389038	
-0.390381	
-0.390381	
-0.390381	
-0.390015	
-0.388672	
-0.389832	
-0.389771	
-0.389465	
-0.389282	
-0.388367	
-0.388062	
-0.388123	
-0.388062	
-0.389404	
-0.38855	
-0.388733	
-0.388	
-0.38739	
-0.38855	
-0.388855	
-0.388977	
-0.388489	
-0.388306	
-0.387756	
-0.387207	
-0.387085	
-0.388977	
-0.388428	
-0.388123	
-0.387878	
-0.387085	
-0.388611	
-0.387878	
-0.389038	
-0.389282	
-0.388062	
-0.388306	
-0.387329	
-0.387573	
-0.389832	
-0.389832	
-0.390015	
-0.389709	
-0.389893	
-0.391479	
-0.391663	
-0.392822	
-0.392883	
-0.391541	
-0.39209	
-0.391235	
-0.39209	
-0.393616	
-0.392883	
-0.392639	
-0.393005	
-0.391968	
-0.394043	
-0.393372	
-0.394592	
-0.393555	
-0.391846	
-0.392395	
-0.390747	
-0.392273	
-0.39325	
-0.392456	
-0.391785	
-0.391846	
-0.390991	
-0.392517	
-0.391846	
-0.393616	
-0.392395	
-0.391235	
-0.390991	
-0.38916	
-0.391296	
-0.392151	
-0.391113	
-0.390869	
-0.390076	
-0.389954	
-0.390442	
-0.389954	
-0.390625	
-0.390015	
-0.388977	
-0.388062	
-0.386353	
-0.386963	
-0.387146	
-0.385986	
-0.384766	
-0.384888	
-0.383362	
-0.383362	
-0.38324	
-0.384033	
-0.382385	
-0.382446	
-0.38208	
-0.381897	
-0.383057	
-0.383545	
-0.382629	
-0.382813	
-0.382813	
-0.381592	
-0.382935	
-0.383179	
-0.384155	
-0.382813	
-0.383972	
-0.383362	
-0.383362	
-0.384033	
-0.385071	
-0.38446	
-0.384338	
-0.384888	
-0.38501	
-0.385254	
-0.386169	
-0.385681	
-0.385193	
-0.385254	
-0.385925	
-0.386292	
-0.386963	
-0.388184	
-0.387512	
-0.387695	
-0.387817	
-0.388184	
-0.389038	
-0.389343	
-0.388306	
-0.387451	
-0.388672	
-0.387329	
-0.388123	
-0.389038	
-0.389832	
-0.388977	
-0.388672	
-0.388916	
-0.388245	
-0.389038	
-0.390442	
-0.389404	
-0.389282	
-0.389404	
-0.386841	
-0.388672	
-0.389038	
-0.390137	
-0.38916	
-0.388916	
-0.38855	
-0.387634	
-0.388	
-0.388794	
-0.386902	
-0.387512	
-0.386841	
-0.386169	
-0.386475	
-0.386841	
-0.387695	
-0.38678	
-0.386719	
-0.387146	
-0.385437	
-0.387146	
-0.387817	
-0.386108	
-0.386597	
-0.385742	
-0.384827	
-0.385071	
-0.386292	
-0.387085	
-0.386658	
-0.386475	
-0.387329	
-0.385986	
-0.387756	
-0.388428	
-0.387878	
-0.387939	
-0.387573	
-0.387207	
-0.388	
-0.388428	
-0.389404	
-0.389404	
-0.389526	
-0.390137	
-0.389343	
-0.390686	
-0.389587	
-0.389465	
-0.38916	
-0.387878	
-0.389221	
-0.388062	
-0.389771	
-0.389771	
-0.389343	
-0.389038	
-0.389526	
-0.388611	
-0.390137	
-0.389954	
-0.389709	
-0.388794	
-0.389099	
-0.389221	
-0.388489	
-0.38916	
-0.389648	
-0.388672	
-0.388672	
-0.38916	
-0.388062	
-0.38916	
-0.388306	
-0.388977	
-0.387878	
-0.387512	
-0.387146	
-0.387329	
-0.387146	
-0.38739	
-0.386292	
-0.386841	
-0.386841	
-0.384521	
-0.384949	
-0.384338	
-0.384155	
-0.382996	
-0.382751	
-0.383057	
-0.382629	
-0.382813	
-0.383484	
-0.382751	
-0.382935	
-0.383118	
-0.381775	
-0.382751	
-0.382568	
-0.382813	
-0.382141	
-0.382141	
-0.382446	
-0.382324	
-0.382751	
-0.383423	
-0.382996	
-0.383057	
-0.383057	
-0.383667	
-0.383423	
-0.383301	
-0.38324	
-0.383118	
-0.383423	
-0.384155	
	
