E:\DOCUMENTS AND SETTINGS\JPOTAS\MEUS DOCUMENTOS\UFRJ\RSCI-BM 12 WK SERIES\070731-RSCI-BM-12\RSCI-BM-12-REMG\070731-RSCI-BM-12-REMG-0005.ACQ
0.025000 msec/sample
1 channel
Analog input
Volts
CH1	
2000	
-0.391907	
-0.392151	
-0.391113	
-0.392517	
-0.392456	
-0.392761	
-0.392334	
-0.392456	
-0.392944	
-0.393738	
-0.393188	
-0.393127	
-0.392883	
-0.391663	
-0.392456	
-0.392639	
-0.393372	
-0.392273	
-0.392517	
-0.391846	
-0.392029	
-0.392151	
-0.392578	
-0.391968	
-0.391602	
-0.392212	
-0.391357	
-0.391785	
-0.391113	
-0.391785	
-0.390625	
-0.391235	
-0.391418	
-0.390076	
-0.391174	
-0.391724	
-0.391357	
-0.391357	
-0.392029	
-0.391541	
-0.391296	
-0.391113	
-0.391541	
-0.390564	
-0.391968	
-0.391541	
-0.390869	
-0.391968	
-0.3927	
-0.392212	
-0.391968	
-0.392822	
-0.392273	
-0.391785	
-0.391663	
-0.391052	
-0.391113	
-0.391235	
-0.39093	
-0.390381	
-0.390625	
-0.391357	
-0.390198	
-0.390442	
-0.391357	
-0.391418	
-0.390259	
-0.390076	
-0.390198	
-0.389526	
-0.390503	
-0.390747	
-0.389832	
-0.390686	
-0.390503	
-0.390442	
-0.390564	
-0.391541	
-0.391541	
-0.390686	
-0.390625	
-0.390259	
-0.390137	
-0.391174	
-0.39093	
-0.390686	
-0.39032	
-0.390747	
-0.39093	
-0.390503	
-0.391174	
-0.39093	
-0.389893	
-0.389832	
-0.38916	
-0.388062	
-0.389282	
-0.388916	
-0.387634	
-0.388062	
-0.387634	
-0.388367	
-0.388123	
-0.388611	
-0.388611	
-0.388245	
-0.387878	
-0.387939	
-0.387085	
-0.387756	
-0.388062	
-0.386169	
-0.387451	
-0.386841	
-0.387634	
-0.387329	
-0.388062	
-0.387573	
-0.386963	
-0.386658	
-0.387146	
-0.38623	
-0.388123	
-0.388184	
-0.386658	
-0.388184	
-0.388428	
-0.389465	
-0.389038	
-0.389526	
-0.389038	
-0.388855	
-0.389221	
-0.388672	
-0.387939	
-0.389404	
-0.390076	
-0.388123	
-0.389038	
-0.389404	
-0.390015	
-0.389221	
-0.389221	
-0.38916	
-0.387573	
-0.388428	
-0.388062	
-0.387939	
-0.388672	
-0.389221	
-0.387268	
-0.388428	
-0.388306	
-0.388	
-0.387878	
-0.388428	
-0.38855	
-0.386597	
-0.387268	
-0.387512	
-0.386108	
-0.38739	
-0.388306	
-0.38678	
-0.38739	
-0.38739	
-0.386658	
-0.387329	
-0.387207	
-0.387695	
-0.38623	
-0.386658	
-0.387085	
-0.385376	
-0.386353	
-0.386841	
-0.386414	
-0.386597	
-0.386841	
-0.38623	
-0.386353	
-0.385864	
-0.386963	
-0.385986	
-0.385986	
-0.386963	
-0.385742	
-0.386597	
-0.387207	
-0.385559	
-0.386475	
-0.386047	
-0.386963	
-0.387024	
-0.387329	
-0.387939	
-0.386292	
-0.386414	
-0.381714	
-0.379578	
-0.380066	
-0.380615	
-0.37915	
-0.38208	
-0.386963	
-0.388062	
-0.388184	
-0.388	
-0.388062	
-0.386597	
-0.38739	
-0.388489	
-0.387268	
-0.388123	
-0.388245	
-0.387329	
-0.388123	
-0.387939	
-0.387756	
-0.388	
-0.387817	
-0.387817	
-0.387268	
-0.388672	
-0.388367	
-0.387634	
-0.387817	
-0.388184	
-0.386902	
-0.388062	
-0.387878	
-0.388367	
-0.388977	
-0.389099	
-0.388977	
-0.388367	
-0.388855	
-0.388489	
-0.382263	
-0.381653	
-0.38208	
-0.381775	
-0.381897	
-0.383789	
-0.38916	
-0.389771	
-0.389893	
-0.390015	
-0.389526	
-0.389343	
-0.39032	
-0.389404	
-0.389709	
-0.389465	
-0.389404	
-0.389221	
-0.389343	
-0.389343	
-0.390015	
-0.389465	
-0.389587	
-0.38855	
-0.388184	
-0.389343	
-0.38855	
-0.388062	
-0.388	
-0.388123	
-0.387634	
-0.387207	
-0.387329	
-0.388306	
-0.387451	
-0.387695	
-0.387085	
-0.386353	
-0.387695	
-0.387329	
-0.387695	
-0.387451	
-0.387817	
-0.388733	
-0.389221	
-0.389832	
-0.390869	
-0.392578	
-0.3927	
-0.393494	
-0.393433	
-0.396301	
-0.396484	
-0.398254	
-0.399841	
-0.401184	
-0.403015	
-0.405151	
-0.40625	
-0.408813	
-0.409546	
-0.4104	
-0.411438	
-0.411255	
-0.414246	
-0.416016	
-0.41748	
-0.419006	
-0.419556	
-0.420532	
-0.421509	
-0.422119	
-0.422974	
-0.423706	
-0.424194	
-0.424561	
-0.427124	
-0.427246	
-0.42804	
-0.429077	
-0.429443	
-0.430298	
-0.431274	
-0.431396	
-0.434021	
-0.434021	
-0.434692	
-0.434814	
-0.434082	
-0.436707	
-0.43811	
-0.43927	
-0.44043	
-0.441101	
-0.441406	
-0.441284	
-0.440552	
-0.443481	
-0.443115	
-0.442871	
-0.442871	
-0.442444	
-0.445068	
-0.447021	
-0.448242	
-0.449524	
-0.449585	
-0.451355	
-0.451599	
-0.452637	
-0.455627	
-0.4552	
-0.455933	
-0.456299	
-0.457642	
-0.458191	
-0.458191	
-0.458313	
-0.458191	
-0.458679	
-0.458008	
-0.457214	
-0.457825	
-0.456909	
-0.456421	
-0.455811	
-0.45459	
-0.454468	
-0.453796	
-0.453186	
-0.453308	
-0.451599	
-0.45166	
-0.451355	
-0.450378	
-0.451965	
-0.450867	
-0.449341	
-0.447937	
-0.445007	
-0.446167	
-0.444763	
-0.443542	
-0.443115	
-0.440186	
-0.440125	
-0.438965	
-0.436707	
-0.43866	
-0.436951	
-0.435242	
-0.434082	
-0.431335	
-0.431641	
-0.431213	
-0.430115	
-0.429321	
-0.427917	
-0.426575	
-0.424988	
-0.423157	
-0.423706	
-0.421997	
-0.418884	
-0.416809	
-0.41394	
-0.413696	
-0.413086	
-0.412231	
-0.411255	
-0.410645	
-0.409485	
-0.408508	
-0.407959	
-0.409302	
-0.407471	
-0.405396	
-0.404053	
-0.401062	
-0.401428	
-0.400085	
-0.398926	
-0.398132	
-0.396484	
-0.395447	
-0.394592	
-0.394226	
-0.395752	
-0.394287	
-0.39386	
-0.393616	
-0.39209	
-0.393127	
-0.393921	
-0.394348	
-0.395081	
-0.394836	
-0.395874	
-0.396484	
-0.398315	
-0.400818	
-0.401733	
-0.402954	
-0.405212	
-0.405884	
-0.409546	
-0.412415	
-0.413879	
-0.417175	
-0.41803	
-0.419739	
-0.420898	
-0.422241	
-0.424805	
-0.4245	
-0.424194	
-0.424622	
-0.423279	
-0.422974	
-0.423584	
-0.423157	
-0.422729	
-0.421997	
-0.421387	
-0.420715	
-0.419922	
-0.42157	
-0.420166	
-0.418579	
-0.417969	
-0.416077	
-0.415833	
-0.416016	
-0.415466	
-0.415527	
-0.413635	
-0.41272	
-0.411377	
-0.410095	
-0.410767	
-0.408813	
-0.407654	
-0.406372	
-0.40332	
-0.402832	
-0.402588	
-0.401489	
-0.401001	
-0.399109	
-0.397827	
-0.396545	
-0.39563	
-0.397095	
-0.395752	
-0.393982	
-0.393555	
-0.390991	
-0.391663	
-0.3927	
-0.392944	
-0.392883	
-0.393005	
-0.392456	
-0.39209	
-0.390808	
-0.392456	
-0.392151	
-0.390869	
-0.389954	
-0.390015	
-0.388916	
-0.389221	
-0.388611	
-0.388245	
-0.388245	
-0.388184	
-0.387512	
-0.387146	
-0.385986	
-0.384583	
-0.384033	
-0.382996	
-0.382629	
-0.381653	
-0.380005	
-0.379089	
-0.378357	
-0.377014	
-0.376038	
-0.374329	
-0.374573	
-0.372864	
-0.371887	
-0.371582	
-0.369568	
-0.370728	
-0.371826	
-0.371277	
-0.37146	
-0.371826	
-0.37207	
-0.371948	
-0.372192	
-0.373108	
-0.372192	
-0.372009	
-0.371704	
-0.372742	
-0.372131	
-0.371826	
-0.371948	
-0.37146	
-0.372314	
-0.372314	
-0.372192	
-0.372681	
-0.372864	
-0.372192	
-0.372009	
-0.370789	
-0.371582	
-0.37262	
-0.372681	
-0.372681	
-0.372681	
-0.372559	
-0.372803	
-0.372192	
-0.37323	
-0.373352	
-0.372742	
-0.37262	
-0.373352	
-0.37384	
-0.374084	
-0.374634	
-0.374573	
-0.375732	
-0.375549	
-0.37616	
-0.377014	
-0.377625	
-0.377136	
-0.377686	
-0.376709	
-0.377502	
-0.378479	
-0.378906	
-0.379456	
-0.379944	
-0.380005	
-0.380127	
-0.380493	
-0.38208	
-0.381592	
-0.381836	
-0.381592	
-0.381958	
-0.382935	
-0.383118	
-0.383667	
-0.383789	
-0.384521	
-0.384644	
-0.385071	
-0.385864	
-0.386414	
-0.385925	
-0.386414	
-0.385132	
-0.385437	
-0.386414	
-0.386658	
-0.386108	
-0.387512	
-0.386719	
-0.386658	
-0.386719	
-0.388184	
-0.38678	
-0.38623	
-0.385925	
-0.384644	
-0.386108	
-0.386292	
-0.385864	
-0.385986	
-0.385986	
-0.385864	
-0.385925	
-0.385742	
-0.388123	
-0.386597	
-0.386719	
-0.386963	
-0.38562	
-0.388489	
-0.388428	
-0.388489	
-0.389099	
-0.389587	
-0.390137	
-0.389954	
-0.389221	
-0.391541	
-0.389893	
-0.389893	
-0.390076	
-0.388489	
-0.390686	
-0.390991	
-0.390991	
-0.390869	
-0.391296	
-0.390808	
-0.390991	
-0.391663	
-0.39209	
-0.391296	
-0.391418	
-0.391663	
-0.391663	
-0.392273	
-0.392151	
-0.392639	
-0.392639	
-0.393066	
-0.392944	
-0.392944	
-0.393982	
-0.394531	
-0.393555	
-0.393738	
-0.392578	
-0.394531	
-0.394531	
-0.395081	
-0.395325	
-0.395203	
-0.395386	
-0.39563	
-0.394775	
-0.397339	
-0.395508	
-0.395752	
-0.395569	
-0.393982	
-0.396423	
-0.395508	
-0.395325	
-0.395203	
-0.394775	
-0.394287	
-0.393555	
-0.394348	
-0.394592	
-0.392883	
-0.392822	
-0.392151	
-0.391357	
-0.392578	
-0.39209	
-0.392883	
-0.39209	
-0.392395	
-0.391968	
-0.391418	
-0.392822	
-0.393005	
-0.392151	
-0.392273	
-0.392273	
-0.392029	
-0.393311	
-0.393433	
-0.393677	
-0.393677	
-0.394104	
-0.39386	
-0.393433	
-0.394958	
-0.395081	
-0.394165	
-0.394226	
-0.393066	
-0.39386	
-0.394226	
-0.393982	
-0.394531	
-0.393616	
-0.393921	
-0.393311	
-0.392761	
-0.394897	
-0.394592	
-0.393494	
-0.393127	
-0.392761	
-0.392883	
-0.393494	
-0.393494	
-0.394104	
-0.393005	
-0.392883	
-0.393005	
-0.392029	
-0.393799	
-0.39386	
-0.392212	
-0.391907	
-0.39209	
-0.391296	
-0.392273	
-0.391785	
-0.392822	
-0.391113	
-0.390808	
-0.391113	
-0.389832	
-0.390442	
-0.39093	
-0.389832	
-0.388916	
-0.388672	
-0.389404	
-0.388916	
-0.388306	
-0.388611	
-0.387512	
-0.387268	
-0.387329	
-0.387146	
-0.387878	
-0.388184	
-0.388123	
-0.387695	
-0.38739	
-0.388	
-0.388733	
-0.387939	
-0.388733	
-0.388062	
-0.387817	
-0.388306	
-0.387878	
-0.389282	
-0.388794	
-0.38855	
-0.388367	
-0.387817	
-0.389099	
-0.390198	
-0.389526	
-0.39032	
-0.389893	
-0.390442	
-0.390564	
-0.390076	
-0.391907	
-0.391174	
-0.390869	
-0.390381	
-0.389648	
-0.391174	
-0.39093	
-0.391052	
-0.391235	
-0.390259	
-0.390381	
-0.390442	
-0.390198	
-0.390015	
-0.390198	
-0.389526	
-0.388672	
-0.38916	
-0.390076	
-0.389404	
-0.389648	
-0.389771	
-0.388184	
-0.388733	
-0.388428	
-0.388794	
-0.388733	
-0.388062	
-0.387878	
-0.386475	
-0.387695	
-0.388672	
-0.387512	
-0.387512	
-0.388428	
-0.387024	
-0.387634	
-0.387878	
-0.389038	
-0.387695	
-0.388062	
-0.387146	
-0.385925	
-0.386963	
-0.387817	
-0.387512	
-0.387329	
-0.387695	
-0.386597	
-0.386169	
-0.38623	
-0.386658	
-0.386169	
-0.386475	
-0.385559	
-0.383667	
-0.384644	
-0.385803	
-0.384888	
-0.385193	
-0.385071	
-0.384033	
-0.384033	
-0.384521	
-0.385559	
-0.385498	
-0.385437	
-0.384888	
-0.383728	
-0.385132	
-0.38562	
-0.385254	
-0.385254	
-0.386047	
-0.385376	
-0.385864	
-0.386047	
-0.386108	
-0.385986	
-0.38623	
-0.38562	
-0.384216	
-0.385986	
-0.386658	
-0.386292	
-0.386108	
-0.386475	
-0.38562	
-0.385986	
-0.385681	
-0.385681	
-0.385925	
-0.385803	
-0.384949	
-0.383972	
-0.384766	
-0.386047	
-0.385315	
-0.385193	
-0.38562	
-0.384399	
-0.384827	
-0.385376	
-0.385132	
-0.385803	
-0.385498	
-0.385437	
-0.384338	
-0.385864	
-0.38623	
-0.385864	
-0.385986	
-0.386414	
-0.385742	
-0.386169	
-0.386169	
-0.385376	
-0.385925	
-0.386414	
-0.385803	
-0.384644	
-0.386292	
-0.386108	
-0.386353	
-0.386292	
-0.387024	
-0.386169	
-0.386597	
-0.386108	
-0.386658	
-0.386597	
-0.38739	
-0.386047	
-0.385376	
-0.386658	
-0.386841	
-0.38623	
-0.386353	
-0.386597	
-0.385986	
-0.385498	
-0.385925	
-0.386292	
-0.386047	
-0.386597	
-0.385681	
-0.384399	
-0.386169	
-0.385803	
-0.38623	
-0.386169	
-0.387146	
-0.386719	
-0.387085	
-0.387573	
-0.389221	
-0.388062	
-0.388611	
-0.388062	
-0.387024	
-0.388855	
-0.387756	
-0.388733	
-0.389099	
-0.389343	
-0.388733	
-0.389221	
-0.389282	
-0.390381	
-0.389038	
-0.390015	
-0.388855	
-0.387695	
-0.389343	
-0.389221	
-0.388855	
-0.388733	
-0.389221	
-0.388794	
-0.388916	
-0.388916	
-0.390015	
-0.389099	
-0.389893	
-0.388489	
-0.387268	
-0.389038	
-0.388611	
-0.389221	
-0.389343	
-0.389526	
-0.389099	
-0.389221	
-0.388977	
-0.389709	
-0.388794	
-0.388428	
-0.388611	
-0.387024	
-0.388611	
-0.388123	
-0.388489	
-0.388672	
-0.387756	
-0.387573	
-0.387695	
-0.38739	
-0.387695	
-0.387146	
-0.387146	
-0.386963	
-0.385498	
-0.386658	
-0.385925	
-0.386292	
-0.387146	
-0.386719	
-0.38678	
-0.386475	
-0.386475	
-0.387085	
-0.386169	
-0.386536	
-0.386292	
-0.386047	
-0.387146	
-0.386719	
-0.386719	
-0.387329	
-0.386841	
-0.386719	
-0.386658	
-0.38678	
-0.387939	
-0.387085	
-0.387024	
-0.387207	
-0.385864	
-0.387817	
-0.386902	
-0.386963	
-0.387146	
-0.387024	
-0.386963	
-0.387268	
-0.387085	
-0.387939	
-0.386658	
-0.386353	
-0.385864	
-0.385193	
-0.386414	
-0.38562	
-0.385681	
-0.385742	
-0.385498	
-0.385437	
-0.385803	
-0.385681	
-0.386353	
-0.38562	
-0.385986	
-0.385986	
-0.385498	
-0.386536	
-0.38623	
-0.386597	
-0.386536	
-0.38678	
-0.386719	
-0.386902	
-0.387024	
-0.387329	
-0.38678	
-0.386963	
-0.386536	
-0.385803	
-0.387085	
-0.386353	
-0.386536	
-0.386902	
-0.387207	
-0.386414	
-0.386841	
-0.387024	
-0.386597	
-0.386108	
-0.386536	
-0.385925	
-0.385864	
-0.38678	
-0.386719	
-0.38623	
-0.386719	
-0.387024	
-0.387573	
-0.387817	
-0.387939	
-0.38739	
-0.388306	
-0.388977	
-0.388489	
-0.38855	
-0.389771	
-0.389587	
-0.38916	
-0.389832	
-0.389832	
-0.389404	
-0.389221	
-0.389648	
-0.389771	
-0.389465	
-0.389648	
-0.389648	
-0.389526	
-0.390442	
-0.390625	
-0.390259	
-0.389832	
-0.390625	
-0.390076	
-0.390564	
-0.390381	
-0.390503	
-0.390686	
-0.389954	
-0.38916	
-0.389221	
-0.389099	
-0.38916	
-0.388367	
-0.388672	
-0.388672	
-0.387878	
-0.387878	
-0.387634	
-0.388306	
-0.388184	
-0.388245	
-0.388306	
-0.387756	
-0.388184	
-0.387817	
-0.388062	
-0.388428	
-0.388611	
-0.38855	
-0.388245	
-0.388489	
-0.388367	
-0.389282	
-0.388855	
-0.389038	
-0.388245	
-0.389099	
-0.389038	
-0.389038	
-0.389221	
-0.389587	
-0.389404	
-0.389709	
-0.389832	
-0.390015	
-0.390442	
-0.390137	
-0.390503	
-0.389893	
-0.390442	
-0.390381	
-0.390503	
-0.391052	
-0.391357	
-0.391174	
-0.391174	
-0.391357	
-0.391785	
-0.391174	
-0.391418	
-0.391357	
-0.391357	
-0.391479	
-0.391296	
-0.390259	
-0.391846	
-0.391235	
-0.391663	
-0.391541	
-0.392578	
-0.391785	
-0.392395	
-0.391785	
-0.391846	
-0.390686	
-0.391785	
-0.391663	
-0.390564	
-0.391479	
-0.390259	
-0.390503	
-0.390442	
-0.390747	
-0.390503	
-0.390747	
-0.390564	
-0.390564	
-0.389893	
-0.390442	
-0.390015	
-0.389343	
-0.389709	
-0.389832	
-0.390259	
-0.389954	
-0.390625	
-0.390381	
-0.389771	
-0.389893	
-0.389709	
-0.389832	
-0.390137	
-0.389832	
-0.388672	
-0.389709	
-0.389221	
-0.389648	
-0.389832	
-0.390015	
-0.390076	
-0.390015	
-0.390076	
-0.389954	
-0.389221	
-0.390381	
-0.38916	
-0.388489	
-0.388916	
-0.388855	
-0.388489	
-0.388306	
-0.388245	
-0.388245	
-0.388306	
-0.387878	
-0.387878	
-0.387634	
-0.388611	
-0.387756	
-0.38678	
-0.387817	
-0.387817	
-0.388123	
-0.388123	
-0.387939	
-0.388245	
-0.388367	
-0.387878	
-0.388733	
-0.388245	
-0.388123	
-0.388245	
-0.387329	
-0.388245	
-0.388489	
-0.388611	
-0.388733	
-0.388794	
-0.38916	
-0.389343	
-0.388794	
-0.389465	
-0.389038	
-0.389832	
-0.389465	
-0.388855	
-0.389771	
-0.389771	
-0.389465	
-0.389221	
-0.389709	
-0.389526	
-0.390015	
-0.389099	
-0.389404	
-0.388489	
-0.388672	
-0.388489	
-0.387512	
-0.387695	
-0.387146	
-0.387146	
-0.387146	
-0.386902	
-0.387329	
-0.387756	
-0.386475	
-0.386902	
-0.38623	
-0.386475	
-0.386475	
-0.385864	
-0.386536	
-0.386414	
-0.386658	
-0.386292	
-0.386841	
-0.387085	
-0.387329	
-0.387085	
-0.387268	
-0.386902	
-0.386414	
-0.388245	
-0.386902	
-0.387756	
-0.387634	
-0.387451	
-0.387634	
-0.387329	
-0.387573	
-0.388245	
-0.387756	
-0.388611	
-0.387878	
-0.387634	
-0.388184	
-0.386353	
-0.387817	
-0.388	
-0.387573	
-0.388855	
-0.387756	
-0.389099	
-0.388977	
-0.389282	
-0.389648	
-0.388916	
-0.38916	
-0.389587	
-0.387817	
-0.389771	
-0.389526	
-0.389343	
-0.39032	
-0.389526	
-0.390808	
-0.391663	
-0.391052	
-0.390686	
-0.389893	
-0.389221	
-0.390625	
-0.389343	
-0.391418	
-0.390076	
-0.38916	
-0.389404	
-0.388184	
-0.389648	
-0.389709	
-0.388733	
-0.389709	
-0.388611	
-0.388367	
-0.389893	
-0.388	
-0.389587	
-0.388794	
-0.387512	
-0.388489	
-0.388977	
-0.389709	
-0.389465	
-0.388611	
-0.388977	
-0.388367	
-0.387634	
-0.389465	
-0.387329	
-0.388855	
-0.38916	
-0.387268	
-0.388672	
-0.38916	
-0.389709	
-0.389954	
-0.388733	
-0.389404	
-0.38855	
-0.387878	
-0.389465	
-0.387512	
-0.389587	
-0.388245	
-0.386719	
-0.387756	
-0.387939	
-0.388428	
-0.388428	
-0.387817	
-0.388184	
-0.386475	
-0.385803	
-0.387329	
-0.386169	
-0.387512	
-0.386597	
-0.38623	
-0.387207	
-0.386902	
-0.387695	
-0.388184	
-0.38739	
-0.388062	
-0.38739	
-0.387146	
-0.388123	
-0.386841	
-0.388672	
-0.388062	
-0.387207	
-0.388062	
-0.386902	
-0.388611	
-0.388489	
-0.387695	
-0.388	
-0.387207	
-0.386292	
-0.387512	
-0.385498	
-0.387329	
-0.386414	
-0.38562	
-0.38562	
-0.384583	
-0.385498	
-0.385681	
-0.38501	
-0.384705	
-0.384705	
-0.384827	
-0.385437	
-0.384338	
-0.386353	
-0.384766	
-0.384521	
-0.384827	
-0.384033	
-0.384766	
-0.385071	
-0.384094	
-0.384583	
-0.383911	
-0.38385	
-0.384583	
-0.383179	
-0.384338	
-0.383545	
-0.384399	
-0.384949	
-0.38446	
-0.38562	
-0.386719	
-0.385864	
-0.385925	
-0.385925	
-0.385437	
-0.386902	
-0.385437	
-0.386841	
-0.386353	
-0.385986	
-0.385925	
-0.385803	
-0.386475	
-0.387268	
-0.386475	
-0.386902	
-0.385803	
-0.38501	
-0.386353	
-0.385193	
-0.386902	
-0.38562	
-0.385071	
-0.385681	
-0.384949	
-0.385986	
-0.386719	
-0.385254	
-0.385559	
-0.385193	
-0.384644	
-0.384766	
-0.383606	
-0.385559	
-0.384583	
-0.384583	
-0.384766	
-0.384277	
-0.385315	
-0.38562	
-0.384888	
-0.385315	
-0.38501	
-0.38324	
-0.38446	
-0.384033	
-0.384705	
-0.383911	
-0.383911	
-0.384094	
-0.384277	
-0.384338	
-0.384644	
-0.38385	
-0.383301	
-0.383118	
-0.382996	
-0.384155	
-0.384644	
-0.384033	
-0.383667	
-0.384399	
-0.384094	
-0.383789	
-0.383728	
-0.384766	
-0.384216	
-0.384277	
-0.38446	
-0.384766	
-0.384766	
-0.385925	
-0.38562	
-0.385254	
-0.384399	
-0.384644	
-0.384888	
-0.385132	
-0.385681	
-0.385254	
-0.384155	
-0.384766	
-0.385193	
-0.384949	
-0.385071	
-0.385193	
-0.38501	
-0.384766	
-0.385376	
-0.385559	
-0.385376	
-0.386292	
-0.385071	
-0.384155	
-0.384949	
-0.384766	
-0.384705	
-0.385132	
-0.38562	
-0.384521	
-0.384155	
-0.384338	
-0.385376	
-0.385071	
-0.385742	
-0.385193	
-0.385437	
-0.385315	
-0.385498	
-0.385742	
-0.386536	
-0.386108	
-0.386108	
-0.386292	
-0.386414	
-0.387085	
-0.38678	
-0.386353	
-0.386658	
-0.386108	
-0.386047	
-0.38623	
-0.386414	
-0.386902	
-0.386108	
-0.386475	
-0.386353	
-0.38623	
-0.386597	
-0.386536	
-0.386169	
-0.386169	
-0.386353	
-0.386047	
-0.385925	
-0.385742	
-0.386292	
-0.38562	
-0.385803	
-0.385498	
-0.385132	
-0.386169	
-0.385071	
-0.384949	
-0.384399	
-0.384827	
-0.384338	
-0.384827	
-0.384338	
-0.385559	
-0.38501	
-0.385254	
-0.384888	
-0.384888	
-0.38623	
-0.385681	
-0.386047	
-0.385986	
-0.386353	
-0.386108	
-0.386108	
-0.386353	
-0.38739	
-0.387146	
-0.387817	
-0.387329	
-0.387329	
-0.387756	
-0.387268	
-0.387878	
-0.387451	
-0.387329	
-0.387878	
-0.388	
-0.387756	
-0.38739	
-0.387329	
-0.387695	
-0.387146	
-0.386658	
-0.388245	
-0.387207	
-0.387695	
-0.387146	
-0.386597	
-0.386902	
-0.387207	
-0.387146	
-0.386536	
-0.386963	
-0.387146	
-0.386414	
-0.386414	
-0.387939	
-0.38739	
-0.387451	
-0.38739	
-0.386902	
-0.387146	
-0.387573	
-0.386902	
-0.386841	
-0.386597	
-0.386536	
-0.386292	
-0.386597	
-0.387085	
-0.386963	
-0.386047	
-0.386169	
-0.386169	
-0.384705	
-0.38501	
-0.38501	
-0.384094	
-0.385437	
-0.385742	
-0.385132	
-0.385559	
-0.386047	
-0.38562	
-0.385437	
-0.385193	
-0.385498	
-0.384094	
-0.385376	
-0.385742	
-0.385254	
-0.386047	
-0.386475	
-0.385864	
-0.386719	
-0.386841	
-0.386414	
-0.385681	
-0.386353	
-0.386902	
-0.386047	
-0.386536	
-0.386963	
-0.385742	
-0.386414	
-0.387268	
-0.38623	
-0.386353	
-0.386841	
-0.38739	
-0.386902	
-0.386353	
-0.386414	
-0.385803	
-0.386353	
-0.386658	
-0.385559	
-0.38623	
-0.386719	
-0.385742	
-0.386292	
-0.38678	
-0.386658	
-0.386292	
-0.386536	
-0.386292	
-0.386169	
-0.386475	
-0.387268	
-0.385864	
-0.38678	
-0.387878	
-0.387146	
-0.38739	
-0.387939	
-0.386475	
-0.387756	
-0.38739	
-0.387634	
-0.387512	
-0.387573	
-0.387756	
-0.386169	
-0.38739	
-0.388794	
-0.386475	
-0.387085	
-0.387695	
-0.386169	
-0.386963	
-0.387085	
-0.38739	
-0.387207	
-0.386597	
-0.387024	
-0.385925	
-0.387085	
-0.387207	
-0.38623	
-0.386719	
-0.387268	
-0.386963	
-0.387085	
-0.387451	
-0.387634	
-0.387878	
-0.388184	
-0.388306	
-0.387329	
-0.388855	
-0.389282	
-0.38916	
-0.389465	
-0.390198	
-0.388977	
-0.389038	
-0.388428	
-0.389465	
-0.389099	
-0.389709	
-0.389587	
-0.389587	
-0.390198	
-0.390686	
-0.389893	
-0.390503	
-0.391174	
-0.390747	
-0.390503	
-0.390381	
-0.390991	
-0.390503	
-0.390625	
-0.390381	
-0.38916	
-0.389771	
-0.390015	
-0.388794	
-0.389221	
-0.389954	
-0.389038	
-0.388855	
-0.38855	
-0.388611	
-0.388672	
-0.388733	
-0.38855	
-0.388184	
-0.388794	
-0.388672	
-0.388306	
-0.388916	
-0.389893	
-0.389099	
-0.388977	
-0.388916	
-0.388428	
-0.389282	
-0.389709	
-0.389587	
-0.38916	
-0.389526	
-0.389587	
-0.389221	
-0.390137	
-0.390137	
-0.390381	
-0.390259	
-0.390442	
-0.389282	
-0.390137	
-0.390381	
-0.390747	
-0.390137	
-0.391296	
-0.391052	
-0.391296	
-0.391296	
-0.391663	
-0.391602	
-0.391968	
-0.391602	
-0.390686	
-0.391296	
-0.391663	
-0.391418	
-0.391235	
-0.392212	
-0.391235	
-0.39209	
-0.391968	
-0.391907	
-0.392029	
-0.391663	
-0.391296	
-0.391235	
-0.391663	
-0.392029	
-0.391724	
-0.391418	
-0.392456	
-0.391296	
-0.390564	
-0.390625	
-0.390625	
-0.390991	
-0.389954	
-0.389771	
-0.389832	
-0.390015	
-0.390198	
-0.39032	
-0.390015	
-0.39093	
-0.390259	
-0.389709	
-0.389954	
-0.389648	
-0.390686	
-0.390198	
-0.389648	
-0.389282	
-0.389954	
-0.390137	
-0.390503	
-0.389465	
-0.390808	
-0.389771	
-0.390015	
-0.389954	
-0.389709	
-0.390747	
-0.389771	
-0.389648	
-0.389099	
-0.389587	
-0.390564	
-0.390137	
-0.389954	
-0.390442	
-0.390137	
-0.389587	
-0.389465	
-0.389404	
-0.389771	
-0.388855	
-0.389099	
-0.387512	
-0.388123	
-0.388611	
-0.388672	
-0.388428	
-0.389587	
-0.389099	
-0.388	
-0.388489	
-0.388672	
-0.389893	
-0.388977	
-0.38855	
-0.388123	
-0.388062	
-0.388855	
-0.389343	
-0.389099	
-0.389954	
-0.388916	
-0.388794	
-0.388672	
-0.389038	
-0.389587	
-0.389221	
-0.389526	
-0.388672	
-0.388855	
-0.389587	
-0.389709	
-0.389771	
-0.390625	
-0.39032	
-0.390564	
-0.390808	
-0.390747	
-0.390747	
-0.390564	
-0.390076	
-0.389832	
-0.390381	
-0.390198	
-0.389832	
-0.390198	
-0.390076	
-0.389343	
-0.389038	
-0.389099	
-0.388672	
-0.388489	
-0.388123	
-0.388	
-0.386658	
-0.387939	
-0.387878	
-0.387695	
-0.388123	
-0.387817	
-0.387146	
-0.387024	
-0.386963	
-0.387207	
-0.387817	
-0.387756	
-0.387329	
-0.386475	
-0.387817	
-0.387878	
-0.388	
-0.388489	
-0.388	
-0.387329	
-0.387451	
-0.387756	
-0.387695	
-0.388123	
-0.387878	
-0.388123	
-0.387329	
-0.388	
-0.388184	
-0.387817	
-0.38855	
-0.388489	
-0.387451	
-0.387085	
-0.387573	
-0.387512	
-0.388184	
-0.388062	
-0.388428	
-0.387817	
-0.389221	
-0.38916	
-0.389343	
-0.390137	
-0.390015	
	
