E:\DOCUMENTS AND SETTINGS\JPOTAS\MEUS DOCUMENTOS\UFRJ\RSCI-BM 12 WK SERIES\070731-RSCI-BM-12\RSCI-BM-12-REMG\070731-RSCI-BM-12-REMG-0017.ACQ
0.025000 msec/sample
1 channel
Analog input
Volts
CH1	
2000	
-0.390076	
-0.391296	
-0.390869	
-0.390686	
-0.390381	
-0.390686	
-0.390137	
-0.39093	
-0.391479	
-0.390137	
-0.39093	
-0.391296	
-0.390625	
-0.391479	
-0.391418	
-0.390991	
-0.39093	
-0.39032	
-0.391846	
-0.391418	
-0.391846	
-0.391846	
-0.390686	
-0.391541	
-0.392273	
-0.390869	
-0.391541	
-0.391479	
-0.39093	
-0.390686	
-0.391357	
-0.389954	
-0.391113	
-0.390625	
-0.389954	
-0.389832	
-0.390564	
-0.389282	
-0.390198	
-0.389893	
-0.389343	
-0.388794	
-0.388062	
-0.389282	
-0.38916	
-0.389648	
-0.389771	
-0.388672	
-0.389893	
-0.390686	
-0.38916	
-0.390747	
-0.390503	
-0.389893	
-0.390137	
-0.39032	
-0.39032	
-0.390991	
-0.391174	
-0.391907	
-0.391602	
-0.392395	
-0.391602	
-0.392212	
-0.392334	
-0.390991	
-0.392029	
-0.391785	
-0.392822	
-0.392944	
-0.392822	
-0.393188	
-0.39209	
-0.393311	
-0.39325	
-0.391785	
-0.393494	
-0.39325	
-0.392151	
-0.392395	
-0.391907	
-0.392944	
-0.392578	
-0.393005	
-0.393311	
-0.39325	
-0.394043	
-0.393066	
-0.393311	
-0.393555	
-0.392212	
-0.39325	
-0.393188	
-0.392944	
-0.393677	
-0.393616	
-0.394653	
-0.393066	
-0.394226	
-0.394897	
-0.393555	
-0.39447	
-0.39447	
-0.394104	
-0.393921	
-0.391846	
-0.393066	
-0.391968	
-0.392029	
-0.391907	
-0.391113	
-0.391541	
-0.390381	
-0.390991	
-0.390686	
-0.388733	
-0.390015	
-0.389771	
-0.38916	
-0.389587	
-0.389709	
-0.389771	
-0.389282	
-0.389893	
-0.390625	
-0.389709	
-0.391418	
-0.391418	
-0.391235	
-0.391357	
-0.390808	
-0.392883	
-0.392273	
-0.3927	
-0.393188	
-0.392822	
-0.394409	
-0.393982	
-0.393127	
-0.395508	
-0.393372	
-0.394409	
-0.39447	
-0.393921	
-0.394775	
-0.39447	
-0.395264	
-0.39563	
-0.395752	
-0.39563	
-0.395264	
-0.395691	
-0.396179	
-0.395264	
-0.39502	
-0.394653	
-0.39624	
-0.395752	
-0.395691	
-0.395813	
-0.395081	
-0.396484	
-0.395813	
-0.395508	
-0.397095	
-0.394836	
-0.395874	
-0.395264	
-0.39447	
-0.395996	
-0.395081	
-0.395447	
-0.39563	
-0.395325	
-0.395691	
-0.394592	
-0.393616	
-0.394958	
-0.393921	
-0.394043	
-0.393066	
-0.39386	
-0.393677	
-0.393311	
-0.393311	
-0.393738	
-0.394775	
-0.393799	
-0.393494	
-0.394653	
-0.392517	
-0.393372	
-0.393372	
-0.391418	
-0.394348	
-0.393372	
-0.393738	
-0.39325	
-0.385925	
-0.385254	
-0.38562	
-0.38501	
-0.38623	
-0.38562	
-0.386169	
-0.384949	
-0.393311	
-0.394409	
-0.394836	
-0.394897	
-0.39447	
-0.394958	
-0.394531	
-0.394104	
-0.394836	
-0.392517	
-0.393677	
-0.39325	
-0.392151	
-0.393311	
-0.393127	
-0.3927	
-0.392883	
-0.391907	
-0.392761	
-0.392212	
-0.391907	
-0.3927	
-0.392273	
-0.39209	
-0.391541	
-0.392456	
-0.3927	
-0.392639	
-0.392761	
-0.3927	
-0.3927	
-0.392395	
-0.392456	
-0.393311	
-0.392151	
-0.391968	
-0.392212	
-0.391479	
-0.392639	
-0.392029	
-0.391968	
-0.391785	
-0.390747	
-0.391296	
-0.390808	
-0.390015	
-0.390747	
-0.390503	
-0.389832	
-0.389221	
-0.389954	
-0.39032	
-0.389221	
-0.38916	
-0.389404	
-0.388977	
-0.38855	
-0.388184	
-0.388977	
-0.387512	
-0.388062	
-0.387634	
-0.38678	
-0.388489	
-0.388733	
-0.388	
-0.388794	
-0.388123	
-0.388123	
-0.388306	
-0.388123	
-0.388794	
-0.388	
-0.388062	
-0.387268	
-0.388245	
-0.389221	
-0.388611	
-0.389587	
-0.390503	
-0.389709	
-0.390869	
-0.392029	
-0.393921	
-0.391907	
-0.394043	
-0.39502	
-0.394409	
-0.397278	
-0.398438	
-0.399597	
-0.401062	
-0.402283	
-0.404663	
-0.405884	
-0.407532	
-0.408447	
-0.4104	
-0.412292	
-0.411743	
-0.414917	
-0.417053	
-0.417969	
-0.419983	
-0.420471	
-0.421509	
-0.422791	
-0.425476	
-0.426208	
-0.428223	
-0.429932	
-0.429688	
-0.432495	
-0.432922	
-0.43396	
-0.435669	
-0.43573	
-0.437073	
-0.437988	
-0.439331	
-0.440308	
-0.44281	
-0.444458	
-0.444763	
-0.449036	
-0.452026	
-0.452698	
-0.454773	
-0.455383	
-0.457397	
-0.457642	
-0.457764	
-0.458496	
-0.458801	
-0.459412	
-0.459534	
-0.460266	
-0.461243	
-0.460754	
-0.460815	
-0.460938	
-0.459534	
-0.460632	
-0.460815	
-0.462769	
-0.460876	
-0.462097	
-0.462219	
-0.462463	
-0.462769	
-0.464111	
-0.464233	
-0.465576	
-0.464417	
-0.465149	
-0.464722	
-0.465698	
-0.46405	
-0.463501	
-0.463135	
-0.461914	
-0.462341	
-0.462708	
-0.46167	
-0.462036	
-0.461182	
-0.460571	
-0.459473	
-0.459045	
-0.458191	
-0.456726	
-0.4552	
-0.452576	
-0.452637	
-0.450989	
-0.448792	
-0.446594	
-0.444641	
-0.440674	
-0.438171	
-0.435486	
-0.433472	
-0.42981	
-0.427551	
-0.424805	
-0.422791	
-0.420105	
-0.418274	
-0.415466	
-0.414001	
-0.411072	
-0.409546	
-0.406555	
-0.404114	
-0.401062	
-0.398865	
-0.396729	
-0.391968	
-0.392212	
-0.391174	
-0.388977	
-0.388184	
-0.387939	
-0.386719	
-0.386169	
-0.384888	
-0.385376	
-0.383484	
-0.383362	
-0.382263	
-0.381775	
-0.381042	
-0.381104	
-0.379333	
-0.37854	
-0.376892	
-0.376709	
-0.375366	
-0.37561	
-0.373596	
-0.372742	
-0.372253	
-0.370056	
-0.371399	
-0.370972	
-0.370239	
-0.370422	
-0.369263	
-0.367676	
-0.367554	
-0.367126	
-0.366028	
-0.363892	
-0.364868	
-0.362488	
-0.363708	
-0.362671	
-0.362549	
-0.36145	
-0.361206	
-0.359985	
-0.358948	
-0.359497	
-0.359314	
-0.358765	
-0.359314	
-0.358398	
-0.359802	
-0.360291	
-0.360718	
-0.360718	
-0.36145	
-0.360962	
-0.361328	
-0.36261	
-0.363037	
-0.362915	
-0.363708	
-0.36322	
-0.364258	
-0.36499	
-0.365601	
-0.365356	
-0.365723	
-0.365784	
-0.366333	
-0.365601	
-0.366333	
-0.366028	
-0.366394	
-0.366882	
-0.367249	
-0.367798	
-0.368591	
-0.368774	
-0.369629	
-0.369141	
-0.369507	
-0.369873	
-0.370056	
-0.369629	
-0.370667	
-0.370728	
-0.369507	
-0.371033	
-0.371643	
-0.370911	
-0.371704	
-0.371094	
-0.371399	
-0.371826	
-0.37262	
-0.371948	
-0.371948	
-0.371704	
-0.371948	
-0.37323	
-0.373291	
-0.373535	
-0.374207	
-0.374146	
-0.374451	
-0.374146	
-0.374878	
-0.375427	
-0.375793	
-0.375977	
-0.375549	
-0.376587	
-0.377258	
-0.377014	
-0.377502	
-0.377563	
-0.378357	
-0.377869	
-0.378174	
-0.378113	
-0.378052	
-0.378113	
-0.377319	
-0.378296	
-0.379456	
-0.377991	
-0.378174	
-0.378784	
-0.379211	
-0.378357	
-0.379028	
-0.37915	
-0.378906	
-0.378845	
-0.379517	
-0.378662	
-0.379944	
-0.379395	
-0.379822	
-0.380737	
-0.379944	
-0.380554	
-0.38147	
-0.379456	
-0.380066	
-0.380615	
-0.380249	
-0.381592	
-0.382324	
-0.381775	
-0.382507	
-0.382507	
-0.381897	
-0.382935	
-0.38324	
-0.382935	
-0.384033	
-0.383484	
-0.382751	
-0.383789	
-0.384216	
-0.38501	
-0.384338	
-0.384399	
-0.38501	
-0.384949	
-0.38501	
-0.385803	
-0.384338	
-0.385376	
-0.38501	
-0.385132	
-0.385071	
-0.386902	
-0.385376	
-0.385681	
-0.385986	
-0.385559	
-0.38623	
-0.387207	
-0.385742	
-0.385986	
-0.386902	
-0.386475	
-0.38739	
-0.387634	
-0.388123	
-0.387817	
-0.388611	
-0.388916	
-0.388916	
-0.388977	
-0.389404	
-0.389465	
-0.389465	
-0.389587	
-0.389465	
-0.388611	
-0.390198	
-0.389587	
-0.389465	
-0.390198	
-0.39032	
-0.389648	
-0.389832	
-0.388794	
-0.390015	
-0.389282	
-0.388916	
-0.389343	
-0.390015	
-0.389282	
-0.389343	
-0.38916	
-0.388794	
-0.388611	
-0.388733	
-0.387878	
-0.388428	
-0.388184	
-0.387512	
-0.388062	
-0.388428	
-0.38855	
-0.387695	
-0.388123	
-0.388	
-0.388367	
-0.387146	
-0.387512	
-0.385315	
-0.385925	
-0.385986	
-0.385681	
-0.385193	
-0.386597	
-0.38562	
-0.385437	
-0.385559	
-0.38501	
-0.385376	
-0.385437	
-0.385193	
-0.384644	
-0.385376	
-0.384521	
-0.385376	
-0.385376	
-0.38623	
-0.386597	
-0.386963	
-0.388245	
-0.389099	
-0.388733	
-0.388489	
-0.386902	
-0.389038	
-0.388672	
-0.388489	
-0.38855	
-0.389648	
-0.389038	
-0.389099	
-0.389221	
-0.390442	
-0.389526	
-0.390076	
-0.388977	
-0.389221	
-0.389343	
-0.389221	
-0.389282	
-0.389221	
-0.389282	
-0.389526	
-0.389404	
-0.389587	
-0.389282	
-0.389343	
-0.389282	
-0.388489	
-0.389771	
-0.389648	
-0.389771	
-0.389404	
-0.390686	
-0.389893	
-0.389893	
-0.389771	
-0.390564	
-0.389954	
-0.390442	
-0.38916	
-0.390015	
-0.388977	
-0.389465	
-0.389221	
-0.389404	
-0.388794	
-0.388489	
-0.388489	
-0.388611	
-0.387695	
-0.388245	
-0.387878	
-0.386047	
-0.386902	
-0.386597	
-0.388	
-0.386902	
-0.388306	
-0.387451	
-0.388184	
-0.38855	
-0.389221	
-0.388428	
-0.387756	
-0.388306	
-0.38855	
-0.388306	
-0.389038	
-0.389343	
-0.390198	
-0.390015	
-0.390137	
-0.390076	
-0.390015	
-0.390259	
-0.390991	
-0.390137	
-0.390076	
-0.390259	
-0.390747	
-0.390381	
-0.390625	
-0.391846	
-0.391296	
-0.390686	
-0.39093	
-0.390869	
-0.390808	
-0.390442	
-0.390198	
-0.390686	
-0.389954	
-0.390747	
-0.390442	
-0.391357	
-0.390869	
-0.390991	
-0.391235	
-0.391907	
-0.391602	
-0.391602	
-0.39093	
-0.390198	
-0.391479	
-0.391724	
-0.391785	
-0.391357	
-0.392944	
-0.3927	
-0.392761	
-0.392639	
-0.392273	
-0.393677	
-0.392273	
-0.39209	
-0.39209	
-0.391174	
-0.391174	
-0.390503	
-0.39093	
-0.390503	
-0.390076	
-0.389709	
-0.39093	
-0.389343	
-0.389893	
-0.388672	
-0.388	
-0.388428	
-0.388672	
-0.38855	
-0.388855	
-0.389465	
-0.389038	
-0.390076	
-0.389954	
-0.388733	
-0.391418	
-0.390381	
-0.390381	
-0.390991	
-0.390747	
-0.391663	
-0.391968	
-0.392456	
-0.3927	
-0.393066	
-0.393311	
-0.394348	
-0.393921	
-0.394348	
-0.394836	
-0.394226	
-0.394226	
-0.394348	
-0.39447	
-0.394409	
-0.395447	
-0.394653	
-0.395081	
-0.395752	
-0.395752	
-0.395752	
-0.394836	
-0.394897	
-0.395386	
-0.394531	
-0.395447	
-0.395325	
-0.39624	
-0.395325	
-0.395325	
-0.395508	
-0.395752	
-0.39563	
-0.395752	
-0.395142	
-0.394653	
-0.394592	
-0.39502	
-0.394897	
-0.393921	
-0.394409	
-0.394958	
-0.395081	
-0.394897	
-0.394836	
-0.394714	
-0.393799	
-0.393433	
-0.393372	
-0.39325	
-0.393555	
-0.3927	
-0.393921	
-0.393372	
-0.393433	
-0.393555	
-0.392761	
-0.393677	
-0.392883	
-0.391663	
-0.391724	
-0.392273	
-0.393311	
-0.393494	
-0.392212	
-0.393372	
-0.393127	
-0.393677	
-0.393494	
-0.39386	
-0.393982	
-0.393005	
-0.393738	
-0.393799	
-0.393494	
-0.393982	
-0.393616	
-0.394043	
-0.393494	
-0.393677	
-0.394714	
-0.393677	
-0.393188	
-0.39209	
-0.392639	
-0.391907	
-0.391357	
-0.392029	
-0.391785	
-0.391602	
-0.392151	
-0.391479	
-0.391479	
-0.391296	
-0.391785	
-0.391663	
-0.390564	
-0.390991	
-0.391968	
-0.390747	
-0.390747	
-0.390991	
-0.391602	
-0.391296	
-0.391235	
-0.391602	
-0.391724	
-0.392456	
-0.391113	
-0.391296	
-0.390198	
-0.391418	
-0.390991	
-0.391235	
-0.390747	
-0.391907	
-0.390747	
-0.390869	
-0.390381	
-0.390808	
-0.390137	
-0.389099	
-0.389343	
-0.39032	
-0.389893	
-0.388672	
-0.388184	
-0.388489	
-0.388672	
-0.388062	
-0.388	
-0.38739	
-0.38855	
-0.387695	
-0.387512	
-0.386841	
-0.387451	
-0.388062	
-0.387756	
-0.386475	
-0.388916	
-0.388123	
-0.38855	
-0.387817	
-0.388489	
-0.387756	
-0.387634	
-0.387634	
-0.387939	
-0.388	
-0.388062	
-0.387878	
-0.388855	
-0.388306	
-0.389099	
-0.389099	
-0.387756	
-0.389282	
-0.388489	
-0.389038	
-0.389038	
-0.387878	
-0.389526	
-0.389648	
-0.389404	
-0.390259	
-0.390625	
-0.391785	
-0.391052	
-0.392517	
-0.392395	
-0.391113	
-0.392029	
-0.392273	
-0.391785	
-0.392212	
-0.391907	
-0.392761	
-0.39209	
-0.392578	
-0.392517	
-0.391602	
-0.392761	
-0.391541	
-0.391846	
-0.391296	
-0.390259	
-0.390625	
-0.390259	
-0.389221	
-0.389832	
-0.389282	
-0.389832	
-0.389038	
-0.388855	
-0.38916	
-0.388123	
-0.387939	
-0.388733	
-0.387634	
-0.387634	
-0.388	
-0.388062	
-0.388184	
-0.388489	
-0.387512	
-0.387756	
-0.388123	
-0.387756	
-0.387878	
-0.387573	
-0.387634	
-0.388184	
-0.387878	
-0.387024	
-0.388062	
-0.387695	
-0.388306	
-0.387451	
-0.388672	
-0.388672	
-0.387573	
-0.387146	
-0.388184	
-0.387756	
-0.388672	
-0.388245	
-0.388245	
-0.388245	
-0.388672	
-0.388794	
-0.390076	
-0.389587	
-0.388123	
-0.389038	
-0.387939	
-0.388916	
-0.389404	
-0.389832	
-0.390015	
-0.390015	
-0.390198	
-0.391602	
-0.389221	
-0.390442	
-0.391113	
-0.390747	
-0.39032	
-0.39209	
-0.389893	
-0.391052	
-0.390747	
-0.389404	
-0.390259	
-0.391479	
-0.389648	
-0.390808	
-0.389404	
-0.389221	
-0.388916	
-0.387817	
-0.389099	
-0.388733	
-0.389099	
-0.388977	
-0.388123	
-0.388733	
-0.388245	
-0.387573	
-0.387756	
-0.388	
-0.387451	
-0.386597	
-0.387878	
-0.38739	
-0.387451	
-0.388	
-0.387817	
-0.388184	
-0.388306	
-0.387573	
-0.388672	
-0.387939	
-0.387695	
-0.387451	
-0.386902	
-0.388245	
-0.387634	
-0.387573	
-0.387634	
-0.386475	
-0.387573	
-0.387085	
-0.38623	
-0.387146	
-0.386658	
-0.386169	
-0.386292	
-0.386353	
-0.385742	
-0.385803	
-0.386047	
-0.385315	
-0.385986	
-0.386719	
-0.385986	
-0.387329	
-0.387268	
-0.387817	
-0.388123	
-0.387329	
-0.388489	
-0.389038	
-0.389465	
-0.390137	
-0.388733	
-0.390442	
-0.389954	
-0.389648	
-0.390747	
-0.390869	
-0.390198	
-0.39032	
-0.390259	
-0.389893	
-0.390198	
-0.390381	
-0.388855	
-0.389221	
-0.389771	
-0.38855	
-0.388733	
-0.388184	
-0.387878	
-0.387878	
-0.385925	
-0.387207	
-0.386841	
-0.386658	
-0.38739	
-0.384644	
-0.385498	
-0.386169	
-0.386047	
-0.385193	
-0.385498	
-0.385803	
-0.38562	
-0.385742	
-0.385437	
-0.385132	
-0.385376	
-0.385132	
-0.38501	
-0.385254	
-0.384583	
-0.385315	
-0.384338	
-0.384216	
-0.384766	
-0.384155	
-0.384216	
-0.383606	
-0.384277	
-0.38501	
-0.383545	
-0.384521	
-0.38446	
-0.384338	
-0.385193	
-0.384216	
-0.384888	
-0.385254	
-0.385132	
-0.384644	
-0.384949	
-0.385193	
-0.38501	
-0.385681	
-0.386169	
-0.385315	
-0.387024	
-0.385559	
-0.386353	
-0.385803	
-0.385559	
-0.387268	
-0.386353	
-0.386719	
-0.387207	
-0.385437	
-0.386719	
-0.386414	
-0.385193	
-0.386414	
-0.386353	
-0.386108	
-0.385864	
-0.386597	
-0.385559	
-0.386414	
-0.386414	
-0.386536	
-0.385986	
-0.386475	
-0.38562	
-0.386719	
-0.386169	
-0.385803	
-0.385498	
-0.385681	
-0.387268	
-0.387024	
-0.387268	
-0.387451	
-0.385742	
-0.387695	
-0.387939	
-0.386841	
-0.387512	
-0.388367	
-0.388367	
-0.38739	
-0.387878	
-0.387695	
-0.388062	
-0.388062	
-0.388123	
-0.387939	
-0.38855	
-0.388245	
-0.388916	
-0.388062	
-0.388489	
-0.387573	
-0.38739	
-0.387756	
-0.387939	
-0.387817	
-0.388733	
-0.387634	
-0.388245	
-0.388855	
-0.387451	
-0.388611	
-0.388	
-0.387756	
-0.387451	
-0.38855	
-0.388733	
-0.388611	
-0.388855	
-0.388916	
-0.389038	
-0.390015	
-0.389465	
-0.390747	
-0.390076	
-0.389709	
-0.390625	
-0.390625	
-0.390869	
-0.390625	
-0.391418	
-0.391968	
-0.390625	
-0.391663	
-0.392029	
-0.391235	
-0.391724	
-0.391174	
-0.391357	
-0.390747	
-0.391052	
-0.391785	
-0.391052	
-0.391418	
-0.391235	
-0.390198	
-0.391479	
-0.390625	
-0.391907	
-0.391479	
-0.390991	
-0.390991	
-0.389648	
-0.390564	
-0.389526	
-0.39093	
-0.391113	
-0.39032	
-0.390259	
-0.390808	
-0.389465	
-0.390259	
-0.389648	
-0.389954	
-0.389221	
-0.389343	
-0.390076	
-0.388855	
-0.388489	
-0.388306	
-0.386963	
-0.38739	
-0.38678	
-0.387451	
-0.386963	
-0.387451	
-0.38678	
-0.385925	
-0.387085	
-0.387451	
-0.386963	
-0.387146	
-0.387085	
-0.387634	
-0.388062	
-0.387085	
-0.388184	
-0.388	
-0.388367	
-0.389343	
-0.389832	
-0.389954	
-0.389893	
-0.390625	
-0.391357	
-0.390137	
-0.390503	
-0.39032	
-0.390808	
-0.390686	
-0.39093	
-0.390808	
-0.390076	
-0.39093	
-0.391174	
-0.391113	
-0.390991	
-0.391724	
-0.390869	
-0.391724	
-0.391113	
-0.391357	
-0.390991	
-0.390259	
-0.390381	
-0.390808	
-0.390869	
-0.390869	
-0.391052	
-0.391663	
-0.390381	
-0.391541	
-0.391357	
-0.390686	
-0.391907	
-0.391602	
-0.391174	
-0.390381	
-0.391296	
-0.390686	
-0.390747	
-0.391235	
-0.391174	
-0.390747	
-0.391724	
-0.390564	
-0.390625	
-0.390686	
-0.388794	
-0.389038	
-0.388977	
-0.389038	
-0.388855	
-0.388916	
-0.388977	
-0.388611	
-0.38916	
-0.389404	
-0.389221	
-0.389282	
-0.389709	
-0.389282	
-0.389221	
-0.389465	
-0.389832	
-0.389526	
-0.389526	
-0.390503	
-0.389954	
-0.391235	
-0.390808	
-0.391052	
-0.391052	
-0.390747	
-0.39093	
-0.39093	
-0.391174	
-0.391602	
-0.391785	
-0.39209	
-0.391357	
-0.391846	
-0.39209	
-0.392456	
-0.392212	
-0.392944	
-0.391907	
-0.390747	
-0.391724	
-0.392517	
-0.392029	
-0.392212	
-0.392151	
-0.391052	
-0.392944	
-0.391846	
-0.391785	
-0.391541	
-0.391602	
-0.391602	
-0.392273	
-0.391785	
-0.392456	
-0.392517	
-0.39325	
-0.392456	
-0.392761	
-0.393799	
-0.393677	
-0.393433	
-0.393982	
-0.393433	
-0.392822	
-0.39325	
-0.393494	
-0.393005	
-0.393616	
-0.39325	
-0.391479	
-0.392639	
-0.392029	
-0.391357	
-0.390564	
-0.390503	
-0.390137	
-0.390015	
-0.389099	
-0.390442	
-0.389404	
-0.389587	
-0.388794	
-0.389221	
-0.388489	
-0.389465	
-0.389343	
-0.389404	
-0.389465	
-0.389343	
-0.390137	
-0.390686	
-0.390625	
-0.39093	
-0.391785	
-0.390747	
-0.391785	
-0.391541	
-0.392761	
-0.392944	
-0.392578	
-0.392578	
-0.39325	
-0.392639	
-0.394714	
-0.393799	
-0.394531	
-0.393921	
-0.394775	
-0.39447	
-0.393738	
-0.394348	
-0.394958	
-0.394592	
-0.39325	
-0.394653	
-0.395142	
-0.394958	
-0.394897	
-0.39563	
-0.395142	
-0.395325	
-0.39502	
-0.39563	
-0.395569	
-0.395325	
-0.395142	
-0.395081	
-0.394043	
-0.39563	
-0.394958	
-0.395142	
-0.39502	
-0.395264	
-0.395264	
-0.394287	
-0.394531	
-0.394836	
-0.394409	
-0.393921	
-0.393982	
-0.394043	
-0.394348	
-0.393555	
-0.394043	
-0.393127	
-0.392944	
-0.392761	
-0.393738	
-0.392578	
-0.392761	
-0.392822	
-0.392029	
-0.392334	
-0.393494	
-0.3927	
-0.393555	
-0.393127	
-0.393066	
-0.393127	
-0.39209	
-0.393311	
-0.39325	
-0.392761	
-0.3927	
-0.393616	
-0.393494	
-0.394043	
-0.393555	
-0.394104	
-0.394226	
-0.393677	
-0.393555	
-0.394409	
-0.393494	
-0.394104	
-0.39325	
-0.392883	
-0.391968	
-0.39325	
-0.392639	
-0.393005	
-0.392212	
-0.391296	
-0.391785	
-0.391602	
-0.391724	
-0.391846	
-0.391113	
-0.390625	
-0.390503	
-0.391113	
-0.392151	
-0.391052	
-0.391785	
-0.391541	
-0.391296	
-0.390991	
-0.391052	
-0.391296	
-0.391113	
-0.390808	
-0.390015	
-0.390198	
-0.391479	
-0.391296	
-0.391357	
-0.392151	
-0.39093	
-0.391113	
-0.390686	
-0.39032	
-0.391052	
-0.390442	
-0.389954	
-0.389587	
-0.389709	
-0.390198	
-0.389343	
-0.389893	
-0.389343	
-0.388489	
-0.389099	
-0.387329	
-0.388916	
-0.387817	
-0.387695	
-0.386841	
-0.387451	
-0.388306	
-0.388	
-0.388306	
-0.388306	
-0.387512	
-0.387939	
-0.387817	
-0.387451	
-0.388123	
-0.388062	
-0.388184	
-0.386841	
-0.388123	
-0.388977	
-0.388428	
-0.389038	
-0.388245	
-0.388	
-0.388428	
-0.388733	
-0.390076	
-0.389099	
-0.388855	
-0.388428	
-0.388489	
-0.389038	
-0.389587	
-0.390259	
-0.390747	
-0.388855	
-0.389771	
-0.389404	
-0.390503	
-0.391113	
-0.391479	
-0.391663	
-0.391174	
-0.3927	
-0.393372	
-0.392639	
-0.39325	
-0.392639	
-0.391541	
-0.392456	
-0.392761	
-0.392944	
-0.392639	
-0.392883	
-0.392334	
-0.391235	
-0.392883	
-0.392761	
-0.392212	
-0.392334	
-0.391174	
-0.39032	
-0.388916	
-0.391174	
-0.390503	
-0.389343	
-0.389282	
-0.388428	
-0.389099	
-0.389404	
-0.388977	
-0.388733	
-0.388123	
-0.387329	
-0.388	
-0.388123	
-0.388855	
-0.388123	
-0.388245	
-0.387207	
-0.387268	
-0.388062	
-0.389221	
-0.38916	
-0.388916	
-0.388062	
-0.387817	
-0.388	
-0.387817	
-0.388428	
-0.388184	
-0.388	
-0.386963	
-0.387695	
-0.387878	
-0.388184	
-0.387817	
-0.387939	
-0.387695	
-0.387329	
-0.387268	
-0.388733	
-0.388794	
-0.388611	
-0.388611	
-0.388062	
-0.389221	
-0.389709	
-0.389099	
-0.389587	
-0.389343	
-0.389587	
-0.39032	
-0.389465	
-0.39032	
-0.390015	
-0.390076	
-0.388855	
-0.389526	
-0.390869	
-0.391418	
-0.390869	
-0.390686	
-0.390137	
-0.389038	
-0.390015	
-0.390808	
-0.39032	
-0.389832	
-0.389648	
-0.389038	
-0.389038	
-0.389404	
-0.389282	
-0.389648	
-0.388428	
-0.386902	
-0.387817	
-0.388794	
-0.38855	
-0.387878	
-0.387634	
-0.386536	
-0.386597	
-0.387878	
-0.388062	
-0.387451	
-0.38678	
-0.386841	
-0.386658	
-0.38739	
-0.388428	
-0.388489	
-0.387878	
-0.387756	
-0.387573	
-0.388123	
-0.388245	
-0.388367	
-0.388123	
-0.387634	
-0.386292	
-0.386841	
-0.387329	
-0.38739	
-0.386963	
-0.387085	
-0.386292	
-0.386108	
-0.387024	
-0.387207	
-0.385803	
-0.386292	
-0.385986	
-0.38562	
-0.38562	
-0.38678	
-0.386841	
-0.386475	
-0.386658	
-0.386841	
-0.387268	
-0.388855	
-0.389526	
-0.389526	
-0.389221	
-0.388733	
-0.389282	
-0.389404	
-0.389648	
-0.390625	
-0.389771	
-0.388916	
-0.389587	
-0.39032	
-0.391541	
-0.390381	
-0.390137	
-0.389404	
-0.388245	
-0.388794	
-0.389587	
-0.389526	
-0.388	
-0.387573	
-0.387451	
-0.386169	
-0.387451	
-0.387878	
-0.387512	
-0.386475	
-0.385315	
-0.386047	
-0.385437	
-0.385681	
-0.385803	
-0.385254	
-0.384155	
-0.384766	
-0.385315	
-0.386841	
-0.385193	
-0.386719	
-0.38446	
-0.383972	
-0.384888	
-0.38562	
-0.384888	
-0.384338	
-0.384277	
-0.384583	
-0.383789	
-0.38501	
-0.384949	
-0.385071	
-0.383972	
-0.382874	
-0.383911	
-0.383179	
-0.384583	
-0.384949	
-0.384521	
-0.384155	
-0.384338	
-0.384216	
-0.38623	
-0.384888	
-0.385132	
-0.384644	
-0.38446	
-0.384583	
-0.386108	
-0.385925	
-0.386047	
-0.385498	
-0.384766	
-0.385193	
-0.387451	
-0.387268	
-0.386719	
-0.386414	
-0.384644	
-0.384766	
-0.385132	
-0.386108	
-0.386536	
-0.38562	
-0.385315	
-0.386108	
-0.386658	
-0.387024	
-0.386292	
-0.38678	
-0.385681	
-0.385498	
-0.385742	
-0.385437	
-0.385986	
-0.38562	
-0.385864	
-0.38501	
-0.385132	
-0.387207	
-0.387878	
-0.386963	
-0.386658	
-0.385132	
-0.386719	
-0.386414	
-0.387085	
-0.387634	
-0.387268	
-0.387268	
-0.387695	
-0.387878	
-0.388062	
-0.387634	
-0.38855	
-0.387817	
-0.38739	
-0.388	
-0.388367	
-0.388123	
-0.387817	
-0.387817	
-0.387268	
-0.387451	
-0.388672	
-0.388672	
-0.387817	
-0.388245	
-0.386475	
-0.388062	
-0.388184	
-0.388367	
-0.388489	
-0.388184	
-0.387756	
-0.388306	
-0.387268	
-0.389343	
-0.388367	
-0.38916	
-0.388977	
-0.388	
-0.388794	
-0.38855	
-0.389648	
-0.389587	
-0.389587	
-0.388855	
-0.390198	
-0.390991	
-0.391907	
-0.391357	
-0.391846	
-0.390808	
-0.390137	
-0.391052	
-0.391907	
-0.391907	
-0.391357	
-0.391113	
-0.391479	
-0.390259	
-0.392456	
-0.391357	
-0.391541	
-0.390869	
-0.39032	
-0.391113	
-0.390381	
-0.391235	
-0.392273	
-0.390991	
-0.389404	
-0.390747	
-0.391296	
-0.391418	
-0.390503	
-0.390686	
-0.389832	
-0.389954	
-0.389832	
-0.390869	
-0.390686	
-0.390015	
-0.389709	
-0.389648	
-0.389526	
-0.39093	
-0.39032	
-0.389404	
-0.388306	
-0.387695	
-0.387573	
-0.387268	
-0.387024	
-0.387939	
-0.387207	
-0.386108	
-0.38678	
-0.387451	
-0.387512	
-0.388123	
-0.387634	
-0.386292	
-0.38678	
-0.38678	
-0.387512	
-0.38739	
-0.387573	
-0.388184	
-0.387939	
-0.388611	
-0.390442	
-0.390686	
-0.390869	
-0.389954	
-0.389954	
-0.390625	
-0.389526	
-0.391296	
-0.391357	
-0.390564	
-0.390564	
-0.390808	
-0.390808	
	
