E:\DOCUMENTS AND SETTINGS\JPOTAS\MEUS DOCUMENTOS\UFRJ\RSCI-BM 12 WK SERIES\070731-RSCI-BM-12\RSCI-BM-12-REMG\070731-RSCI-BM-12-REMG-0014.ACQ
0.025000 msec/sample
1 channel
Analog input
Volts
CH1	
2000	
-0.388	
-0.387939	
-0.387207	
-0.386597	
-0.387756	
-0.388245	
-0.388977	
-0.389465	
-0.390076	
-0.389648	
-0.390015	
-0.389282	
-0.389893	
-0.389771	
-0.389832	
-0.388733	
-0.389404	
-0.390015	
-0.391174	
-0.39093	
-0.391541	
-0.391663	
-0.391357	
-0.391846	
-0.391052	
-0.392212	
-0.392273	
-0.391357	
-0.391479	
-0.391479	
-0.391113	
-0.391968	
-0.392273	
-0.392883	
-0.391602	
-0.391846	
-0.392273	
-0.392151	
-0.392151	
-0.392761	
-0.391479	
-0.391541	
-0.391846	
-0.390625	
-0.391541	
-0.392029	
-0.391357	
-0.391113	
-0.390686	
-0.391663	
-0.390259	
-0.39093	
-0.391113	
-0.390015	
-0.389465	
-0.390625	
-0.390503	
-0.390686	
-0.391479	
-0.391785	
-0.391357	
-0.391174	
-0.390381	
-0.391785	
-0.39093	
-0.390564	
-0.390442	
-0.390381	
-0.390259	
-0.390686	
-0.390686	
-0.392029	
-0.39032	
-0.390381	
-0.390503	
-0.388855	
-0.390503	
-0.390564	
-0.389282	
-0.390015	
-0.390015	
-0.388672	
-0.390442	
-0.39032	
-0.391418	
-0.389709	
-0.39032	
-0.390076	
-0.390198	
-0.390259	
-0.390198	
-0.389404	
-0.389648	
-0.39093	
-0.390625	
-0.390625	
-0.391968	
-0.391968	
-0.391663	
-0.391968	
-0.391907	
-0.393127	
-0.393311	
-0.392639	
-0.393066	
-0.393433	
-0.39325	
-0.393982	
-0.394043	
-0.394958	
-0.394104	
-0.393982	
-0.394897	
-0.3927	
-0.393799	
-0.394165	
-0.392456	
-0.393005	
-0.392822	
-0.391907	
-0.392944	
-0.392883	
-0.393616	
-0.391663	
-0.390991	
-0.390503	
-0.388733	
-0.389038	
-0.388062	
-0.386902	
-0.38562	
-0.386047	
-0.385925	
-0.385742	
-0.386169	
-0.386597	
-0.385437	
-0.385437	
-0.384583	
-0.384399	
-0.385193	
-0.384216	
-0.384216	
-0.38446	
-0.384338	
-0.384521	
-0.384705	
-0.385376	
-0.38501	
-0.384644	
-0.385193	
-0.38324	
-0.384277	
-0.385193	
-0.383179	
-0.383728	
-0.384399	
-0.384399	
-0.384827	
-0.384705	
-0.386353	
-0.386169	
-0.386475	
-0.387451	
-0.387451	
-0.387268	
-0.388306	
-0.387634	
-0.387329	
-0.388672	
-0.388794	
-0.388611	
-0.389771	
-0.390564	
-0.390259	
-0.389832	
-0.389954	
-0.389282	
-0.390564	
-0.389832	
-0.390015	
-0.390137	
-0.389709	
-0.390198	
-0.390076	
-0.390869	
-0.390869	
-0.390137	
-0.390686	
-0.389404	
-0.389709	
-0.390015	
-0.388672	
-0.387695	
-0.388062	
-0.388245	
-0.38855	
-0.387451	
-0.381226	
-0.380005	
-0.379333	
-0.379272	
-0.379272	
-0.380798	
-0.38623	
-0.387512	
-0.38678	
-0.386902	
-0.387695	
-0.38739	
-0.387573	
-0.388062	
-0.387512	
-0.387634	
-0.386902	
-0.388428	
-0.388428	
-0.387756	
-0.387329	
-0.387085	
-0.386414	
-0.387817	
-0.388123	
-0.388855	
-0.388	
-0.387939	
-0.388184	
-0.388306	
-0.388245	
-0.388245	
-0.387146	
-0.388306	
-0.388184	
-0.388672	
-0.388855	
-0.388855	
-0.388672	
-0.388794	
-0.388611	
-0.388	
-0.388245	
-0.389465	
-0.388611	
-0.388794	
-0.387695	
-0.388306	
-0.389954	
-0.390015	
-0.390869	
-0.391052	
-0.390564	
-0.390747	
-0.390625	
-0.391724	
-0.391846	
-0.391235	
-0.391602	
-0.391296	
-0.390686	
-0.391785	
-0.391907	
-0.391541	
-0.391235	
-0.390808	
-0.391541	
-0.390991	
-0.390808	
-0.390442	
-0.389404	
-0.389526	
-0.389526	
-0.389282	
-0.389587	
-0.390137	
-0.390198	
-0.389038	
-0.388672	
-0.387512	
-0.387024	
-0.387024	
-0.386169	
-0.385986	
-0.385498	
-0.385254	
-0.386108	
-0.38678	
-0.38739	
-0.388245	
-0.38855	
-0.388916	
-0.389954	
-0.391235	
-0.39209	
-0.391663	
-0.393372	
-0.394348	
-0.394836	
-0.397034	
-0.399353	
-0.400757	
-0.401733	
-0.403259	
-0.405029	
-0.405945	
-0.408386	
-0.410095	
-0.411743	
-0.412292	
-0.414856	
-0.417236	
-0.419922	
-0.421021	
-0.422607	
-0.424622	
-0.427124	
-0.42804	
-0.430115	
-0.431396	
-0.432678	
-0.434204	
-0.435059	
-0.436951	
-0.43866	
-0.439453	
-0.44043	
-0.442017	
-0.442871	
-0.444824	
-0.447693	
-0.4505	
-0.450867	
-0.452759	
-0.454529	
-0.455811	
-0.457397	
-0.458313	
-0.458984	
-0.458923	
-0.458984	
-0.459595	
-0.460938	
-0.460571	
-0.459412	
-0.460266	
-0.4599	
-0.459351	
-0.460388	
-0.46167	
-0.461304	
-0.460815	
-0.461243	
-0.461609	
-0.461121	
-0.461487	
-0.46228	
-0.46228	
-0.461243	
-0.461731	
-0.46228	
-0.462097	
-0.461548	
-0.460754	
-0.460083	
-0.459595	
-0.459106	
-0.459473	
-0.459351	
-0.457031	
-0.457397	
-0.457458	
-0.456238	
-0.45636	
-0.456604	
-0.455566	
-0.453308	
-0.452209	
-0.450867	
-0.449585	
-0.448242	
-0.445251	
-0.44342	
-0.440613	
-0.43927	
-0.437012	
-0.435425	
-0.4328	
-0.430664	
-0.428162	
-0.425415	
-0.423706	
-0.420959	
-0.418945	
-0.414917	
-0.41394	
-0.411804	
-0.409058	
-0.407898	
-0.406128	
-0.403687	
-0.400818	
-0.398804	
-0.395264	
-0.393127	
-0.392456	
-0.391479	
-0.389282	
-0.387451	
-0.387207	
-0.386108	
-0.385742	
-0.385376	
-0.385071	
-0.383545	
-0.383118	
-0.38208	
-0.38208	
-0.381287	
-0.379578	
-0.379089	
-0.377747	
-0.377808	
-0.37738	
-0.377319	
-0.376648	
-0.374878	
-0.374207	
-0.37439	
-0.372864	
-0.372803	
-0.37262	
-0.371277	
-0.369202	
-0.369141	
-0.368042	
-0.367004	
-0.365723	
-0.364319	
-0.363098	
-0.361877	
-0.360107	
-0.359802	
-0.358154	
-0.355469	
-0.355286	
-0.354675	
-0.353271	
-0.354065	
-0.354065	
-0.354614	
-0.354126	
-0.354431	
-0.354126	
-0.356384	
-0.356628	
-0.355957	
-0.357483	
-0.358643	
-0.359192	
-0.361511	
-0.363586	
-0.36554	
-0.366089	
-0.36731	
-0.368774	
-0.370239	
-0.371216	
-0.372009	
-0.372498	
-0.372009	
-0.372803	
-0.374329	
-0.375549	
-0.375671	
-0.375732	
-0.375916	
-0.376526	
-0.376587	
-0.378174	
-0.377747	
-0.378662	
-0.378113	
-0.379395	
-0.380371	
-0.381653	
-0.381409	
-0.381104	
-0.381348	
-0.381104	
-0.38092	
-0.38147	
-0.382019	
-0.381897	
-0.380615	
-0.381531	
-0.381592	
-0.382324	
-0.381348	
-0.380676	
-0.380554	
-0.379272	
-0.378845	
-0.380188	
-0.379822	
-0.379761	
-0.379211	
-0.379456	
-0.379028	
-0.3797	
-0.379761	
-0.379944	
-0.379456	
-0.379272	
-0.379395	
-0.380676	
-0.380859	
-0.3797	
-0.379395	
-0.380493	
-0.38031	
-0.381897	
-0.38208	
-0.382324	
-0.381714	
-0.382446	
-0.382446	
-0.383423	
-0.383057	
-0.383484	
-0.383362	
-0.382385	
-0.383728	
-0.384705	
-0.385681	
-0.385925	
-0.385376	
-0.38562	
-0.385559	
-0.385132	
-0.385864	
-0.385193	
-0.386353	
-0.386108	
-0.38623	
-0.386658	
-0.387939	
-0.387085	
-0.387207	
-0.386841	
-0.385986	
-0.38623	
-0.387756	
-0.387207	
-0.387329	
-0.387085	
-0.387451	
-0.386719	
-0.388184	
-0.388184	
-0.388977	
-0.388489	
-0.388794	
-0.387512	
-0.387207	
-0.387878	
-0.388977	
-0.388123	
-0.387878	
-0.388184	
-0.387329	
-0.389038	
-0.388489	
-0.388794	
-0.389343	
-0.387939	
-0.388428	
-0.388794	
-0.388306	
-0.388062	
-0.388062	
-0.387451	
-0.386963	
-0.387512	
-0.387512	
-0.387573	
-0.38678	
-0.386597	
-0.386475	
-0.386658	
-0.385559	
-0.38678	
-0.385742	
-0.384766	
-0.385559	
-0.385559	
-0.38678	
-0.386719	
-0.386597	
-0.386902	
-0.38562	
-0.38562	
-0.387024	
-0.386658	
-0.387573	
-0.386963	
-0.386963	
-0.38739	
-0.387817	
-0.388489	
-0.388367	
-0.388367	
-0.388428	
-0.388367	
-0.38916	
-0.390076	
-0.390625	
-0.390442	
-0.390137	
-0.390991	
-0.390442	
-0.391479	
-0.391968	
-0.391357	
-0.392273	
-0.391418	
-0.391418	
-0.391724	
-0.390991	
-0.3927	
-0.392151	
-0.392639	
-0.392395	
-0.3927	
-0.393066	
-0.393311	
-0.392151	
-0.391907	
-0.390686	
-0.39093	
-0.391479	
-0.391541	
-0.390747	
-0.38916	
-0.389587	
-0.388794	
-0.389038	
-0.387817	
-0.388	
-0.387146	
-0.385498	
-0.385437	
-0.385681	
-0.383789	
-0.385132	
-0.385071	
-0.384949	
-0.384521	
-0.385132	
-0.385559	
-0.385437	
-0.384888	
-0.384888	
-0.38446	
-0.384766	
-0.384521	
-0.385437	
-0.384949	
-0.384644	
-0.385132	
-0.384399	
-0.386047	
-0.385742	
-0.386597	
-0.387085	
-0.386047	
-0.386841	
-0.387024	
-0.386902	
-0.388428	
-0.387207	
-0.386292	
-0.387512	
-0.388245	
-0.388733	
-0.388733	
-0.388916	
-0.388245	
-0.388367	
-0.388184	
-0.388428	
-0.389282	
-0.388855	
-0.389099	
-0.388733	
-0.389709	
-0.390137	
-0.389771	
-0.39032	
-0.389954	
-0.388855	
-0.390015	
-0.390076	
-0.390686	
-0.390869	
-0.389893	
-0.389954	
-0.390259	
-0.390076	
-0.390625	
-0.390564	
-0.390808	
-0.389648	
-0.389648	
-0.38916	
-0.38916	
-0.390137	
-0.389648	
-0.389038	
-0.387451	
-0.38855	
-0.38916	
-0.389404	
-0.389648	
-0.389282	
-0.388184	
-0.389526	
-0.389221	
-0.390503	
-0.389648	
-0.389465	
-0.389648	
-0.388855	
-0.388428	
-0.389954	
-0.390503	
-0.390198	
-0.388672	
-0.388977	
-0.387634	
-0.388794	
-0.389282	
-0.389282	
-0.388306	
-0.388489	
-0.388306	
-0.38916	
-0.388672	
-0.388855	
-0.388489	
-0.387756	
-0.387939	
-0.388428	
-0.388977	
-0.388916	
-0.388428	
-0.388611	
-0.387878	
-0.387573	
-0.389648	
-0.389465	
-0.389771	
-0.388977	
-0.389221	
-0.388672	
-0.389526	
-0.390686	
-0.391296	
-0.390686	
-0.390808	
-0.391541	
-0.392273	
-0.392456	
-0.39386	
-0.392822	
-0.3927	
-0.392273	
-0.391663	
-0.393372	
-0.39386	
-0.392639	
-0.3927	
-0.392578	
-0.392761	
-0.393311	
-0.393066	
-0.393127	
-0.392273	
-0.390503	
-0.391541	
-0.390625	
-0.391785	
-0.391052	
-0.390015	
-0.38916	
-0.387634	
-0.387024	
-0.387207	
-0.386902	
-0.386353	
-0.385315	
-0.384888	
-0.38385	
-0.385498	
-0.385986	
-0.384827	
-0.38446	
-0.384399	
-0.38446	
-0.384949	
-0.384705	
-0.385742	
-0.383545	
-0.382568	
-0.383667	
-0.382629	
-0.384155	
-0.384827	
-0.384216	
-0.383911	
-0.383118	
-0.384033	
-0.384644	
-0.384644	
-0.385132	
-0.38385	
-0.384155	
-0.383728	
-0.384521	
-0.386292	
-0.38562	
-0.385986	
-0.38623	
-0.385742	
-0.38855	
-0.387939	
-0.389404	
-0.387634	
-0.387939	
-0.387817	
-0.387085	
-0.38916	
-0.389343	
-0.389282	
-0.389587	
-0.389221	
-0.389832	
-0.389832	
-0.390076	
-0.391113	
-0.389343	
-0.389709	
-0.389648	
-0.390259	
-0.391174	
-0.390076	
-0.389587	
-0.389221	
-0.387695	
-0.389587	
-0.388916	
-0.389221	
-0.388611	
-0.387451	
-0.388123	
-0.386475	
-0.388123	
-0.387878	
-0.387024	
-0.386658	
-0.386292	
-0.386902	
-0.386902	
-0.38678	
-0.387939	
-0.385986	
-0.386292	
-0.386169	
-0.384766	
-0.387756	
-0.386353	
-0.386841	
-0.386536	
-0.385437	
-0.387146	
-0.386658	
-0.386841	
-0.386963	
-0.386475	
-0.386475	
-0.38623	
-0.387268	
-0.387512	
-0.38678	
-0.386841	
-0.386292	
-0.387329	
-0.387146	
-0.387573	
-0.388489	
-0.386841	
-0.387268	
-0.38739	
-0.387085	
-0.388977	
-0.387451	
-0.387268	
-0.387329	
-0.387085	
-0.388184	
-0.387695	
-0.388	
-0.389404	
-0.388489	
-0.389099	
-0.38855	
-0.388	
-0.390381	
-0.389709	
-0.39032	
-0.389648	
-0.38916	
-0.390686	
-0.390747	
-0.391357	
-0.390747	
-0.391113	
-0.390991	
-0.390625	
-0.391724	
-0.391113	
-0.390503	
-0.390076	
-0.388733	
-0.391052	
-0.390198	
-0.389893	
-0.390991	
-0.389404	
-0.38916	
-0.388916	
-0.387329	
-0.390076	
-0.389099	
-0.388428	
-0.387939	
-0.387634	
-0.387207	
-0.386719	
-0.386353	
-0.386475	
-0.385315	
-0.385437	
-0.384521	
-0.385071	
-0.38562	
-0.384644	
-0.384338	
-0.383911	
-0.384827	
-0.384155	
-0.384338	
-0.384888	
-0.384521	
-0.384155	
-0.384888	
-0.384399	
-0.385986	
-0.384766	
-0.384949	
-0.384766	
-0.384277	
-0.385254	
-0.385742	
-0.385986	
-0.387695	
-0.386841	
-0.387207	
-0.387451	
-0.387024	
-0.389709	
-0.389771	
-0.390076	
-0.39032	
-0.39093	
-0.391357	
-0.391541	
-0.391663	
-0.392212	
-0.391663	
-0.391907	
-0.391174	
-0.392517	
-0.393188	
-0.392578	
-0.392151	
-0.390686	
-0.39209	
-0.39209	
-0.391846	
-0.392273	
-0.391479	
-0.391602	
-0.391174	
-0.390015	
-0.392639	
-0.391357	
-0.391418	
-0.390808	
-0.390015	
-0.390747	
-0.390442	
-0.390076	
-0.390381	
-0.389893	
-0.389404	
-0.389221	
-0.388123	
-0.390076	
-0.38916	
-0.38855	
-0.387817	
-0.388367	
-0.388123	
-0.388306	
-0.388306	
-0.388428	
-0.388062	
-0.38739	
-0.387512	
-0.388672	
-0.387634	
-0.38739	
-0.38739	
-0.387573	
-0.387207	
-0.38739	
-0.387756	
-0.387817	
-0.388062	
-0.387939	
-0.388123	
-0.387512	
-0.389343	
-0.388184	
-0.388306	
-0.387756	
-0.388794	
-0.388123	
-0.389099	
-0.388977	
-0.390137	
-0.388977	
-0.389282	
-0.388733	
-0.389282	
-0.389221	
-0.388977	
-0.388672	
-0.387085	
-0.389099	
-0.388977	
-0.388794	
-0.388794	
-0.388977	
-0.388855	
-0.388	
-0.388428	
-0.390137	
-0.388916	
-0.388733	
-0.388916	
-0.389648	
-0.388977	
-0.389099	
-0.389709	
-0.390198	
-0.388977	
-0.389099	
-0.389099	
-0.389038	
-0.389648	
-0.38916	
-0.38916	
-0.388245	
-0.389465	
-0.389465	
-0.389282	
-0.389648	
-0.390137	
-0.389832	
-0.389832	
-0.389038	
-0.390137	
-0.389404	
-0.389038	
-0.388367	
-0.387878	
-0.388489	
-0.388123	
-0.387817	
-0.388	
-0.387573	
-0.38623	
-0.386414	
-0.38562	
-0.385864	
-0.385559	
-0.385315	
-0.384644	
-0.385498	
-0.385193	
-0.38501	
-0.385376	
-0.386353	
-0.385437	
-0.385681	
-0.385498	
-0.38562	
-0.386169	
-0.386597	
-0.386475	
-0.386536	
-0.38739	
-0.38739	
-0.387756	
-0.387634	
-0.390015	
-0.389832	
-0.39032	
-0.390503	
-0.392822	
-0.392273	
-0.392639	
-0.392273	
-0.393188	
-0.393677	
-0.393616	
-0.393982	
-0.395874	
-0.394165	
-0.394531	
-0.39447	
-0.393982	
-0.394897	
-0.39502	
-0.394836	
-0.395447	
-0.394836	
-0.394958	
-0.395203	
-0.394104	
-0.395142	
-0.394958	
-0.395447	
-0.395081	
-0.395447	
-0.395081	
-0.395081	
-0.394714	
-0.394897	
-0.394592	
-0.394653	
-0.393921	
-0.394409	
-0.392944	
-0.3927	
-0.392151	
-0.390564	
-0.392639	
-0.390991	
-0.391174	
-0.390259	
-0.390503	
-0.390076	
-0.390076	
-0.389954	
-0.391418	
-0.389526	
-0.389954	
-0.389099	
-0.389526	
-0.389648	
-0.388672	
-0.388855	
-0.389954	
-0.389709	
-0.389709	
-0.390259	
-0.390198	
-0.390442	
-0.390137	
-0.390259	
-0.389465	
-0.390869	
-0.390503	
-0.391113	
-0.390686	
-0.391602	
-0.391724	
-0.392151	
-0.39209	
-0.393494	
-0.39209	
-0.391602	
-0.391968	
-0.392334	
-0.393311	
-0.392578	
-0.392151	
-0.391907	
-0.392944	
-0.392761	
-0.392395	
-0.39209	
-0.393127	
-0.392578	
-0.392517	
-0.392578	
-0.392883	
-0.392578	
-0.392151	
-0.392151	
-0.393005	
-0.392395	
-0.392273	
-0.392273	
-0.392334	
-0.392151	
-0.392212	
-0.391968	
-0.392029	
-0.392334	
-0.391663	
-0.391296	
-0.390747	
-0.390503	
-0.391785	
-0.391663	
-0.390991	
-0.391846	
-0.391052	
-0.390869	
-0.390686	
-0.389648	
-0.391663	
-0.390015	
-0.389771	
-0.390503	
-0.389465	
-0.389526	
-0.389648	
-0.389526	
-0.389099	
-0.388489	
-0.388184	
-0.387634	
-0.388672	
-0.388123	
-0.387634	
-0.386902	
-0.387573	
-0.388062	
-0.388	
-0.388306	
-0.388916	
-0.38855	
-0.388489	
-0.38855	
-0.388672	
-0.389282	
-0.388916	
-0.389221	
-0.389771	
-0.388245	
-0.389404	
-0.389832	
-0.389709	
-0.391296	
-0.390564	
-0.390991	
-0.391052	
-0.392822	
-0.394043	
-0.393799	
-0.393494	
-0.394409	
-0.393494	
-0.393738	
-0.393982	
-0.395203	
-0.393921	
-0.394104	
-0.393921	
-0.394226	
-0.394104	
-0.394348	
-0.39447	
-0.393677	
-0.394104	
-0.394165	
-0.39386	
-0.393738	
-0.394653	
-0.393494	
-0.392822	
-0.3927	
-0.391968	
-0.392944	
-0.391968	
-0.391357	
-0.392029	
-0.389893	
-0.390198	
-0.389526	
-0.388367	
-0.38916	
-0.388184	
-0.387451	
-0.385986	
-0.387207	
-0.387756	
-0.386292	
-0.385925	
-0.38678	
-0.386475	
-0.386719	
-0.386475	
-0.388	
-0.386658	
-0.386475	
-0.386108	
-0.386902	
-0.387939	
-0.387268	
-0.386963	
-0.386536	
-0.387146	
-0.387207	
-0.387207	
-0.387207	
-0.389587	
-0.388733	
-0.388306	
-0.388733	
-0.389893	
-0.390198	
-0.389221	
-0.388794	
-0.389893	
-0.388977	
-0.389465	
-0.389832	
-0.390442	
-0.390564	
-0.390503	
-0.390808	
-0.389465	
-0.391052	
-0.391663	
-0.390503	
-0.390381	
-0.390808	
-0.391235	
-0.391541	
-0.391174	
-0.393127	
-0.391418	
-0.391052	
-0.390808	
-0.391174	
-0.391235	
-0.391846	
-0.391724	
-0.391235	
-0.391052	
-0.391357	
-0.391174	
-0.390686	
-0.391113	
-0.39093	
-0.390381	
-0.389465	
-0.39093	
-0.391052	
-0.390137	
-0.389771	
-0.390442	
-0.388794	
-0.389832	
-0.390198	
-0.392029	
-0.390442	
-0.390259	
-0.390381	
-0.38916	
-0.390503	
-0.391174	
-0.39093	
-0.390991	
-0.390198	
-0.39032	
-0.390137	
-0.389221	
-0.390442	
-0.389893	
-0.389587	
-0.388916	
-0.389771	
-0.389771	
-0.389709	
-0.390259	
-0.389221	
-0.388977	
-0.389832	
-0.389526	
-0.391052	
-0.389465	
-0.389465	
-0.389587	
-0.387756	
-0.390259	
-0.390259	
-0.389038	
-0.389099	
-0.388733	
-0.388855	
-0.389221	
-0.389587	
-0.390991	
-0.390198	
-0.390686	
-0.390198	
-0.391296	
-0.392395	
-0.391846	
-0.392029	
-0.392883	
-0.392761	
-0.393066	
-0.393127	
-0.392761	
-0.393921	
-0.393433	
-0.393188	
-0.392578	
-0.394226	
-0.393921	
-0.393372	
-0.393005	
-0.392151	
-0.392151	
-0.392944	
-0.392578	
-0.393677	
-0.392212	
-0.391846	
-0.391357	
-0.389282	
-0.391663	
-0.391235	
-0.389526	
-0.388855	
-0.387146	
-0.386902	
-0.386597	
-0.385132	
-0.386047	
-0.384949	
-0.384949	
-0.384277	
-0.384705	
-0.386108	
-0.384705	
-0.384705	
-0.385193	
-0.383972	
-0.384216	
-0.384033	
-0.384705	
-0.384583	
-0.383728	
-0.383728	
-0.382324	
-0.384766	
-0.384766	
-0.383423	
-0.383972	
-0.382446	
-0.383667	
-0.383911	
-0.383667	
-0.38562	
-0.383728	
-0.38446	
-0.384521	
-0.384399	
-0.385986	
-0.386475	
-0.386536	
-0.387146	
-0.387146	
-0.388	
-0.387756	
-0.388306	
-0.388855	
-0.388062	
-0.388428	
-0.387207	
-0.388977	
-0.389954	
-0.38916	
-0.389709	
-0.389465	
-0.388733	
-0.389648	
-0.38916	
-0.390625	
-0.389893	
-0.389709	
-0.389221	
-0.389648	
-0.390503	
-0.389343	
-0.389465	
-0.389404	
-0.388062	
-0.388733	
-0.387878	
-0.388306	
-0.388489	
-0.387878	
-0.387512	
-0.387207	
-0.386719	
-0.387207	
-0.387085	
-0.387207	
-0.385986	
-0.385254	
-0.385925	
-0.386414	
-0.387207	
-0.387085	
-0.386108	
-0.385986	
-0.386536	
-0.386719	
-0.387024	
-0.38678	
-0.385986	
-0.38562	
-0.386597	
-0.38623	
-0.38739	
-0.386841	
-0.386963	
-0.386658	
-0.386108	
-0.387085	
-0.388123	
-0.386841	
-0.387695	
-0.386963	
-0.386475	
-0.387024	
-0.38739	
-0.388611	
-0.388611	
-0.388062	
-0.387451	
-0.386963	
-0.38739	
-0.388855	
-0.388306	
-0.388	
-0.387817	
-0.387451	
-0.387451	
-0.388855	
-0.388916	
-0.389465	
-0.389282	
-0.389526	
-0.389832	
-0.390808	
-0.390686	
-0.390747	
-0.390503	
-0.389893	
-0.390747	
-0.39093	
-0.391785	
-0.391785	
-0.391113	
-0.391174	
-0.390137	
-0.390869	
-0.392334	
-0.391541	
-0.390564	
-0.39032	
-0.389099	
-0.390015	
-0.390076	
-0.390991	
-0.390625	
-0.389893	
-0.389954	
-0.389526	
-0.389343	
-0.389709	
-0.388672	
-0.388123	
-0.387329	
-0.386963	
-0.38678	
-0.386414	
-0.386536	
-0.386902	
-0.385681	
-0.385071	
-0.385559	
-0.386658	
-0.385925	
-0.385071	
-0.384888	
-0.383667	
-0.385498	
-0.384888	
-0.385742	
-0.385986	
-0.385376	
-0.38501	
-0.385376	
-0.384827	
-0.387207	
-0.386047	
-0.385986	
-0.385681	
-0.384094	
-0.386719	
-0.387146	
-0.387878	
-0.388306	
-0.388367	
-0.388611	
-0.389465	
-0.39093	
-0.391357	
-0.390686	
-0.391174	
-0.390747	
-0.392029	
-0.392334	
-0.392334	
-0.392639	
-0.392578	
-0.392456	
-0.391907	
-0.39209	
-0.394348	
-0.392578	
-0.392029	
-0.392029	
-0.389648	
-0.392151	
-0.3927	
-0.393188	
-0.392883	
-0.391724	
-0.391785	
-0.39093	
-0.391357	
-0.39325	
-0.391418	
-0.391113	
-0.389893	
-0.390625	
-0.39032	
-0.390686	
-0.39093	
-0.390442	
-0.390381	
-0.389832	
-0.389282	
-0.390503	
-0.389099	
-0.388367	
-0.388	
-0.387146	
-0.38855	
-0.388367	
-0.388245	
-0.388916	
-0.388245	
-0.388245	
-0.387085	
-0.388123	
-0.389832	
-0.387756	
-0.388062	
-0.387268	
-0.386902	
-0.387756	
-0.387756	
-0.389221	
-0.388672	
-0.388245	
-0.388367	
-0.388062	
-0.389954	
-0.388794	
-0.388672	
-0.38855	
-0.387085	
-0.388672	
-0.389221	
-0.389893	
-0.389893	
-0.389099	
-0.389282	
-0.388977	
-0.388794	
-0.390869	
-0.389404	
-0.388733	
-0.388245	
-0.387268	
-0.38855	
-0.388672	
-0.389648	
-0.389404	
-0.388245	
-0.388489	
-0.387085	
-0.390076	
-0.389648	
-0.388794	
-0.388977	
-0.387695	
-0.389099	
-0.38916	
-0.388794	
-0.390137	
-0.389038	
-0.389221	
-0.388855	
-0.388794	
-0.390564	
-0.389221	
-0.389099	
-0.388855	
-0.387756	
-0.389038	
-0.389404	
-0.389648	
-0.390503	
-0.389221	
-0.389282	
-0.38855	
-0.388367	
-0.389832	
-0.388123	
-0.387939	
-0.386658	
-0.38739	
-0.387512	
-0.387268	
-0.387573	
-0.38739	
-0.386047	
-0.385803	
-0.385132	
-0.387207	
-0.38562	
-0.385681	
-0.384644	
-0.382751	
-0.385071	
-0.385254	
-0.385559	
-0.38678	
-0.38562	
-0.385498	
-0.38623	
-0.386169	
-0.386963	
-0.386353	
-0.386963	
-0.386658	
-0.386719	
-0.387817	
-0.38855	
-0.389465	
-0.391479	
-0.391052	
-0.391907	
-0.39209	
-0.392883	
-0.394104	
-0.393616	
-0.393616	
-0.391846	
-0.393127	
-0.393982	
-0.394348	
-0.395447	
-0.394592	
-0.394531	
-0.39502	
-0.394348	
-0.39679	
-0.396118	
-0.395386	
-0.394775	
-0.394531	
-0.395203	
-0.39563	
-0.396057	
-0.396606	
-0.395264	
-0.395142	
-0.395142	
-0.394531	
-0.395813	
-0.395203	
-0.394714	
-0.394226	
-0.394348	
-0.39447	
-0.393799	
-0.393799	
-0.393982	
-0.392517	
-0.392334	
-0.391663	
-0.393372	
-0.392639	
-0.391174	
-0.390442	
-0.389282	
-0.390381	
-0.389954	
-0.390076	
-0.390625	
-0.389709	
-0.389893	
-0.389526	
-0.387939	
-0.390686	
-0.390259	
-0.389587	
-0.388977	
-0.389465	
-0.390564	
-0.390564	
-0.390869	
-0.391907	
-0.390198	
-0.390686	
-0.390442	
-0.390747	
-0.391968	
-0.391602	
-0.391479	
-0.390869	
-0.39093	
-0.392517	
-0.392029	
-0.3927	
-0.392883	
-0.392761	
-0.392334	
-0.391357	
-0.394165	
-0.393188	
-0.392456	
-0.392151	
-0.390747	
-0.393005	
-0.392761	
-0.392578	
-0.393127	
-0.392273	
-0.392273	
-0.39209	
-0.391052	
-0.393494	
-0.392578	
-0.392639	
-0.39209	
-0.392212	
-0.392334	
-0.392395	
-0.392761	
-0.392578	
-0.391418	
-0.391907	
-0.390747	
-0.391602	
-0.391907	
-0.391296	
-0.39093	
-0.389343	
-0.390137	
-0.391418	
-0.391418	
-0.392151	
-0.391235	
-0.390991	
-0.390564	
-0.390259	
-0.392212	
-0.390259	
-0.389771	
-0.38916	
-0.387024	
-0.389404	
-0.389343	
-0.389099	
-0.389893	
-0.388367	
-0.388123	
-0.387695	
-0.388	
-0.388672	
-0.387695	
-0.387512	
-0.387329	
-0.387024	
-0.388367	
-0.388245	
-0.389771	
-0.389038	
-0.388489	
-0.388855	
-0.387878	
-0.389893	
-0.390259	
-0.389343	
-0.388855	
-0.387146	
-0.389648	
-0.389954	
-0.390503	
-0.392273	
-0.391357	
-0.39209	
-0.392151	
-0.392456	
-0.39502	
-0.393555	
-0.393372	
-0.393188	
-0.392761	
-0.393616	
-0.393616	
-0.394043	
-0.39447	
-0.39386	
-0.393555	
-0.393799	
-0.395386	
-0.395264	
-0.394165	
-0.393982	
-0.393066	
-0.393127	
-0.39386	
-0.393616	
-0.394348	
-0.39325	
-0.3927	
-0.392395	
-0.390869	
-0.393738	
-0.391968	
-0.391052	
-0.390686	
-0.387634	
-0.389343	
-0.388672	
-0.388489	
-0.388489	
-0.386963	
-0.387024	
-0.386475	
-0.385681	
-0.388611	
-0.38678	
-0.386658	
-0.386353	
-0.386475	
-0.386719	
-0.386841	
-0.387024	
-0.387268	
-0.387085	
-0.386963	
-0.385559	
-0.387573	
	
