E:\DOCUMENTS AND SETTINGS\JPOTAS\MEUS DOCUMENTOS\UFRJ\RSCI-BM 12 WK SERIES\070731-RSCI-BM-12\RSCI-BM-12-REMG\070731-RSCI-BM-12-REMG-0008.ACQ
0.025000 msec/sample
1 channel
Analog input
Volts
CH1	
2000	
-0.388672	
-0.387634	
-0.388	
-0.386963	
-0.387695	
-0.387512	
-0.387939	
-0.387207	
-0.387451	
-0.386719	
-0.385925	
-0.386902	
-0.38739	
-0.387634	
-0.387634	
-0.388306	
-0.387085	
-0.387268	
-0.387695	
-0.387268	
-0.387939	
-0.388306	
-0.388184	
-0.387451	
-0.388611	
-0.388672	
-0.38916	
-0.388916	
-0.389404	
-0.388489	
-0.389282	
-0.388733	
-0.388611	
-0.388245	
-0.388733	
-0.388184	
-0.38739	
-0.388367	
-0.387756	
-0.388489	
-0.388123	
-0.388184	
-0.38678	
-0.387695	
-0.388	
-0.387756	
-0.387329	
-0.388245	
-0.386841	
-0.387939	
-0.38739	
-0.387451	
-0.387451	
-0.387817	
-0.38739	
-0.385925	
-0.387634	
-0.388367	
-0.387939	
-0.387451	
-0.388062	
-0.387451	
-0.388306	
-0.388123	
-0.388123	
-0.388306	
-0.389404	
-0.388367	
-0.387634	
-0.388489	
-0.388977	
-0.38855	
-0.38855	
-0.388855	
-0.388123	
-0.388855	
-0.388611	
-0.389526	
-0.389404	
-0.389221	
-0.388062	
-0.387329	
-0.388794	
-0.390076	
-0.388	
-0.388367	
-0.38855	
-0.387329	
-0.38855	
-0.388	
-0.389587	
-0.388916	
-0.388428	
-0.388062	
-0.387207	
-0.388611	
-0.389343	
-0.389099	
-0.389099	
-0.388367	
-0.387878	
-0.390076	
-0.389648	
-0.390991	
-0.390564	
-0.390991	
-0.390381	
-0.39032	
-0.390381	
-0.391968	
-0.390808	
-0.391541	
-0.390991	
-0.390137	
-0.391357	
-0.391479	
-0.392273	
-0.392944	
-0.391968	
-0.391479	
-0.391724	
-0.390991	
-0.392212	
-0.391296	
-0.391357	
-0.391052	
-0.391113	
-0.391785	
-0.392273	
-0.393433	
-0.394043	
-0.393494	
-0.393677	
-0.393188	
-0.393555	
-0.394348	
-0.392944	
-0.393494	
-0.390686	
-0.390198	
-0.390686	
-0.390076	
-0.390137	
-0.390503	
-0.389954	
-0.389343	
-0.389343	
-0.389221	
-0.390747	
-0.38916	
-0.389893	
-0.387451	
-0.388428	
-0.388977	
-0.38855	
-0.388855	
-0.390015	
-0.389648	
-0.388855	
-0.389648	
-0.390747	
-0.390808	
-0.39032	
-0.390747	
-0.389282	
-0.389343	
-0.390259	
-0.390564	
-0.390503	
-0.391663	
-0.390564	
-0.390503	
-0.390869	
-0.391296	
-0.392029	
-0.391357	
-0.392029	
-0.390564	
-0.390808	
-0.391541	
-0.391479	
-0.391724	
-0.391968	
-0.392273	
-0.391113	
-0.39209	
-0.393188	
-0.394043	
-0.393677	
-0.394348	
-0.393555	
-0.393738	
-0.394226	
-0.39447	
-0.39447	
-0.394714	
-0.395081	
-0.393127	
-0.388611	
-0.388245	
-0.387512	
-0.38739	
-0.388306	
-0.388672	
-0.394653	
-0.39563	
-0.396118	
-0.395447	
-0.394531	
-0.393982	
-0.392822	
-0.392761	
-0.393677	
-0.393433	
-0.39325	
-0.393005	
-0.392761	
-0.393066	
-0.393188	
-0.393921	
-0.393799	
-0.393311	
-0.393127	
-0.392395	
-0.392761	
-0.393066	
-0.392395	
-0.39325	
-0.391785	
-0.392456	
-0.393005	
-0.393433	
-0.394104	
-0.393982	
-0.392883	
-0.393188	
-0.391968	
-0.393921	
-0.393982	
-0.393921	
-0.393799	
-0.393433	
-0.393372	
-0.393982	
-0.393738	
-0.395386	
-0.393738	
-0.393188	
-0.392761	
-0.392517	
-0.393311	
-0.393494	
-0.392029	
-0.392639	
-0.392395	
-0.390869	
-0.392456	
-0.392395	
-0.393005	
-0.392212	
-0.392578	
-0.391907	
-0.391541	
-0.393005	
-0.393494	
-0.392212	
-0.392273	
-0.392212	
-0.392456	
-0.392273	
-0.392334	
-0.393188	
-0.392334	
-0.3927	
-0.392273	
-0.392517	
-0.393005	
-0.393494	
-0.392944	
-0.392517	
-0.392456	
-0.392944	
-0.3927	
-0.392761	
-0.393982	
-0.393738	
-0.393494	
-0.394226	
-0.394958	
-0.395569	
-0.397034	
-0.397461	
-0.398438	
-0.399719	
-0.401184	
-0.402222	
-0.403015	
-0.405945	
-0.405579	
-0.406921	
-0.408447	
-0.40979	
-0.412537	
-0.414063	
-0.415588	
-0.417297	
-0.417664	
-0.420044	
-0.42041	
-0.421753	
-0.421997	
-0.422974	
-0.423706	
-0.425232	
-0.427368	
-0.42804	
-0.429443	
-0.430359	
-0.430176	
-0.43219	
-0.432983	
-0.434204	
-0.435486	
-0.43573	
-0.436829	
-0.437988	
-0.439514	
-0.441589	
-0.443054	
-0.444519	
-0.445313	
-0.446716	
-0.447571	
-0.448181	
-0.449097	
-0.448914	
-0.449524	
-0.448608	
-0.450562	
-0.45166	
-0.451965	
-0.453613	
-0.454529	
-0.455261	
-0.456604	
-0.457825	
-0.4599	
-0.461609	
-0.461426	
-0.461792	
-0.463074	
-0.463196	
-0.465088	
-0.464417	
-0.465088	
-0.46344	
-0.463135	
-0.462952	
-0.455872	
-0.455261	
-0.454895	
-0.453308	
-0.451233	
-0.452759	
-0.45813	
-0.458191	
-0.45697	
-0.455933	
-0.454651	
-0.454712	
-0.453186	
-0.452698	
-0.451843	
-0.4505	
-0.448669	
-0.446411	
-0.446228	
-0.445068	
-0.442566	
-0.440552	
-0.437866	
-0.435974	
-0.434998	
-0.433044	
-0.431458	
-0.429749	
-0.42688	
-0.425293	
-0.424194	
-0.421753	
-0.421082	
-0.418335	
-0.416016	
-0.414429	
-0.411743	
-0.410706	
-0.408081	
-0.406616	
-0.404602	
-0.401489	
-0.399231	
-0.398132	
-0.396118	
-0.395264	
-0.393555	
-0.392517	
-0.391296	
-0.390381	
-0.389648	
-0.388062	
-0.388062	
-0.387451	
-0.38678	
-0.38501	
-0.38446	
-0.384216	
-0.383728	
-0.381531	
-0.380798	
-0.379272	
-0.377686	
-0.377136	
-0.376221	
-0.375854	
-0.37439	
-0.37384	
-0.372681	
-0.372986	
-0.372742	
-0.371338	
-0.370544	
-0.368469	
-0.367371	
-0.366516	
-0.365601	
-0.364868	
-0.363098	
-0.361389	
-0.360535	
-0.35968	
-0.359253	
-0.358154	
-0.357483	
-0.357361	
-0.356445	
-0.356812	
-0.356812	
-0.357056	
-0.358521	
-0.358826	
-0.359253	
-0.359619	
-0.361633	
-0.364441	
-0.364746	
-0.366882	
-0.367554	
-0.369019	
-0.372131	
-0.373352	
-0.375854	
-0.376892	
-0.37854	
-0.379089	
-0.382141	
-0.383789	
-0.385132	
-0.386597	
-0.388123	
-0.389954	
-0.393127	
-0.394775	
-0.397644	
-0.398987	
-0.398865	
-0.400208	
-0.400085	
-0.401611	
-0.402466	
-0.402039	
-0.402344	
-0.403503	
-0.40448	
-0.405945	
-0.406921	
-0.409058	
-0.409363	
-0.409973	
-0.410217	
-0.41156	
-0.413147	
-0.414063	
-0.4151	
-0.416443	
-0.417542	
-0.419312	
-0.41925	
-0.42041	
-0.422485	
-0.423035	
-0.423035	
-0.42334	
-0.425537	
-0.427429	
-0.42749	
-0.428772	
-0.429565	
-0.431396	
-0.433716	
-0.435242	
-0.436829	
-0.437805	
-0.438599	
-0.438965	
-0.439941	
-0.440735	
-0.441284	
-0.441833	
-0.441406	
-0.440613	
-0.440491	
-0.440491	
-0.43988	
-0.440186	
-0.43866	
-0.437988	
-0.436462	
-0.436646	
-0.436584	
-0.43512	
-0.434143	
-0.431946	
-0.430176	
-0.42981	
-0.428589	
-0.427612	
-0.426697	
-0.424133	
-0.422607	
-0.420227	
-0.419312	
-0.417419	
-0.415344	
-0.413574	
-0.411255	
-0.410034	
-0.408325	
-0.406128	
-0.405029	
-0.402893	
-0.401428	
-0.39978	
-0.398926	
-0.39856	
-0.396973	
-0.395508	
-0.394409	
-0.393066	
-0.392944	
-0.392212	
-0.392212	
-0.391846	
-0.390442	
-0.389587	
-0.388245	
-0.388794	
-0.387695	
-0.385986	
-0.384583	
-0.384155	
-0.382141	
-0.381714	
-0.38031	
-0.380188	
-0.379089	
-0.37677	
-0.375366	
-0.374146	
-0.374084	
-0.372864	
-0.371582	
-0.371216	
-0.370056	
-0.369568	
-0.369263	
-0.369141	
-0.369202	
-0.368164	
-0.367981	
-0.367615	
-0.367981	
-0.367554	
-0.366943	
-0.36676	
-0.366272	
-0.364197	
-0.365356	
-0.364685	
-0.363647	
-0.364136	
-0.363281	
-0.361816	
-0.360901	
-0.361328	
-0.360718	
-0.359436	
-0.358643	
-0.358521	
-0.357544	
-0.357239	
-0.357117	
-0.357056	
-0.356934	
-0.357239	
-0.357361	
-0.357483	
-0.358643	
-0.359009	
-0.359131	
-0.360291	
-0.360229	
-0.362061	
-0.362915	
-0.36438	
-0.365173	
-0.36554	
-0.366089	
-0.366028	
-0.367432	
-0.368286	
-0.368591	
-0.369263	
-0.369812	
-0.370544	
-0.370483	
-0.370361	
-0.372498	
-0.371338	
-0.371826	
-0.371765	
-0.373474	
-0.373962	
-0.373901	
-0.373901	
-0.374695	
-0.374756	
-0.375183	
-0.375366	
-0.375854	
-0.375061	
-0.375549	
-0.374817	
-0.375244	
-0.376099	
-0.375671	
-0.376282	
-0.375671	
-0.374756	
-0.37616	
-0.375977	
-0.377441	
-0.377563	
-0.377136	
-0.37738	
-0.377197	
-0.377808	
-0.377808	
-0.378052	
-0.378601	
-0.378296	
-0.379272	
-0.378845	
-0.378662	
-0.379761	
-0.379211	
-0.379211	
-0.378296	
-0.379089	
-0.380127	
-0.379761	
-0.379761	
-0.380676	
-0.380554	
-0.380981	
-0.381165	
-0.383057	
-0.382751	
-0.382507	
-0.382813	
-0.383911	
-0.384277	
-0.384399	
-0.384766	
-0.385681	
-0.385803	
-0.385986	
-0.385925	
-0.385742	
-0.385742	
-0.38623	
-0.386963	
-0.387268	
-0.387695	
-0.388489	
-0.387878	
-0.387634	
-0.387878	
-0.386902	
-0.388245	
-0.388977	
-0.390381	
-0.390503	
-0.389771	
-0.390503	
-0.389709	
-0.391479	
-0.391663	
-0.391357	
-0.391968	
-0.392273	
-0.392639	
-0.392578	
-0.392273	
-0.39447	
-0.394592	
-0.394226	
-0.394531	
-0.39447	
-0.396057	
-0.395569	
-0.396179	
-0.39563	
-0.39563	
-0.396423	
-0.396118	
-0.397949	
-0.397278	
-0.397034	
-0.397095	
-0.39679	
-0.398071	
-0.397278	
-0.396545	
-0.396057	
-0.394958	
-0.395569	
-0.394531	
-0.394836	
-0.39502	
-0.393738	
-0.393616	
-0.393005	
-0.393005	
-0.393188	
-0.392334	
-0.392639	
-0.391785	
-0.391663	
-0.391296	
-0.390686	
-0.391724	
-0.391479	
-0.391235	
-0.391235	
-0.390686	
-0.392517	
-0.391174	
-0.391296	
-0.390747	
-0.390808	
-0.391663	
-0.391968	
-0.392517	
-0.392761	
-0.391907	
-0.392395	
-0.392151	
-0.392395	
-0.392761	
-0.392395	
-0.392578	
-0.392212	
-0.392822	
-0.392639	
-0.391357	
-0.393188	
-0.393066	
-0.391785	
-0.391907	
-0.391174	
-0.390442	
-0.391357	
-0.391907	
-0.391785	
-0.391907	
-0.3927	
-0.391846	
-0.391846	
-0.394043	
-0.393433	
-0.392883	
-0.393127	
-0.391541	
-0.391052	
-0.390747	
-0.389771	
-0.388	
-0.387512	
-0.387817	
-0.387024	
-0.386963	
-0.387878	
-0.386841	
-0.38678	
-0.386475	
-0.386536	
-0.387512	
-0.38678	
-0.38678	
-0.387329	
-0.38623	
-0.387939	
-0.388245	
-0.38855	
-0.388611	
-0.388916	
-0.388916	
-0.389771	
-0.389709	
-0.391235	
-0.390564	
-0.390198	
-0.391296	
-0.391296	
-0.391785	
-0.392212	
-0.393372	
-0.393066	
-0.392395	
-0.392029	
-0.392456	
-0.390686	
-0.39209	
-0.391602	
-0.391418	
-0.391785	
-0.392029	
-0.392822	
-0.392822	
-0.3927	
-0.393372	
-0.393311	
-0.393738	
-0.393555	
-0.393005	
-0.394287	
-0.394592	
-0.394775	
-0.394775	
-0.395203	
-0.39563	
-0.395447	
-0.395752	
-0.39679	
-0.396118	
-0.395386	
-0.396423	
-0.39563	
-0.395813	
-0.394958	
-0.396423	
-0.394714	
-0.394775	
-0.394714	
-0.394836	
-0.394836	
-0.393982	
-0.394043	
-0.394531	
-0.393921	
-0.394409	
-0.393066	
-0.393433	
-0.393372	
-0.391724	
-0.392944	
-0.39325	
-0.39386	
-0.393799	
-0.393616	
-0.392883	
-0.393677	
-0.391663	
-0.393433	
-0.392029	
-0.392456	
-0.392761	
-0.392029	
-0.391785	
-0.392273	
-0.392151	
-0.393433	
-0.392029	
-0.391846	
-0.392456	
-0.392151	
-0.3927	
-0.391663	
-0.392456	
-0.391602	
-0.391663	
-0.391663	
-0.391724	
-0.390991	
-0.390991	
-0.390076	
-0.38916	
-0.389404	
-0.389954	
-0.389099	
-0.388306	
-0.389648	
-0.388672	
-0.389099	
-0.388672	
-0.388672	
-0.389771	
-0.38855	
-0.388916	
-0.389893	
-0.38916	
-0.389771	
-0.389099	
-0.388489	
-0.390137	
-0.388062	
-0.389282	
-0.389404	
-0.388611	
-0.390137	
-0.389771	
-0.389343	
-0.390381	
-0.389221	
-0.390198	
-0.389404	
-0.388977	
-0.390198	
-0.389404	
-0.389465	
-0.389221	
-0.388062	
-0.389709	
-0.388367	
-0.386841	
-0.388245	
-0.386292	
-0.38678	
-0.386108	
-0.386597	
-0.386353	
-0.386108	
-0.386292	
-0.385986	
-0.385437	
-0.386353	
-0.385437	
-0.386292	
-0.385742	
-0.386597	
-0.38623	
-0.38623	
-0.386536	
-0.386108	
-0.386597	
-0.386841	
-0.386658	
-0.387207	
-0.387146	
-0.38678	
-0.388306	
-0.387146	
-0.388611	
-0.387756	
-0.387756	
-0.388489	
-0.387817	
-0.388611	
-0.389343	
-0.388123	
-0.388916	
-0.388672	
-0.388245	
-0.389526	
-0.387695	
-0.38916	
-0.388794	
-0.388184	
-0.389893	
-0.389221	
-0.390625	
-0.390747	
-0.390137	
-0.390991	
-0.390076	
-0.389221	
-0.390808	
-0.389526	
-0.390015	
-0.389771	
-0.389954	
-0.390991	
-0.390747	
-0.390503	
-0.391113	
-0.390564	
-0.39093	
-0.389709	
-0.389526	
-0.39032	
-0.389221	
-0.389465	
-0.38916	
-0.389343	
-0.390076	
-0.390259	
-0.390625	
-0.390137	
-0.389893	
-0.389893	
-0.389709	
-0.390747	
-0.388794	
-0.390808	
-0.390198	
-0.389404	
-0.390076	
-0.389526	
-0.39032	
-0.390564	
-0.39032	
-0.391235	
-0.390442	
-0.390198	
-0.391357	
-0.390442	
-0.391174	
-0.389648	
-0.389893	
-0.390503	
-0.389893	
-0.390259	
-0.391113	
-0.390076	
-0.391052	
-0.390198	
-0.389526	
-0.390442	
-0.390259	
-0.390259	
-0.389465	
-0.389587	
-0.390503	
-0.389526	
-0.389893	
-0.389771	
-0.388489	
-0.388977	
-0.389099	
-0.388062	
-0.387268	
-0.388428	
-0.388184	
-0.387085	
-0.387451	
-0.387878	
-0.387756	
-0.387573	
-0.388428	
-0.388611	
-0.387329	
-0.387512	
-0.387146	
-0.387512	
-0.38739	
-0.386963	
-0.386841	
-0.387146	
-0.387207	
-0.386841	
-0.386841	
-0.387146	
-0.387146	
-0.387024	
-0.386963	
-0.387634	
-0.386658	
-0.387573	
-0.386963	
-0.385925	
-0.385864	
-0.385315	
-0.38562	
-0.385437	
-0.385193	
-0.385437	
-0.384644	
-0.384583	
-0.384949	
-0.384644	
-0.38501	
-0.384705	
-0.384705	
-0.384155	
-0.383545	
-0.38385	
-0.38385	
-0.383789	
-0.383118	
-0.383118	
-0.383301	
-0.383057	
-0.384155	
-0.383667	
-0.383484	
-0.383423	
-0.382813	
-0.382324	
-0.382385	
-0.381958	
-0.38147	
-0.381104	
-0.381165	
-0.38031	
-0.38031	
-0.381897	
-0.38208	
-0.38269	
-0.383728	
-0.384216	
-0.384399	
-0.385437	
-0.386475	
-0.385071	
-0.385925	
-0.38623	
-0.385498	
-0.386047	
-0.386414	
-0.386902	
-0.385864	
-0.386841	
-0.387329	
-0.387024	
-0.387268	
-0.387695	
-0.386353	
-0.386841	
-0.386414	
-0.38678	
-0.386658	
-0.387146	
-0.385986	
-0.385925	
-0.386047	
-0.386169	
-0.385803	
-0.385742	
-0.385925	
-0.385376	
-0.385681	
-0.385132	
-0.385803	
-0.385315	
-0.38623	
-0.384949	
-0.38501	
-0.385559	
-0.384888	
-0.384949	
-0.38501	
-0.385376	
-0.384521	
-0.383911	
-0.384338	
-0.38385	
-0.384033	
-0.384216	
-0.383057	
-0.383362	
-0.383606	
-0.38324	
-0.382935	
-0.382446	
-0.382629	
-0.38208	
-0.38269	
-0.382813	
-0.381531	
-0.382629	
-0.381592	
-0.380371	
-0.381714	
-0.381958	
-0.381836	
-0.38208	
-0.382874	
-0.38208	
-0.382935	
-0.382996	
-0.382385	
-0.383179	
-0.384399	
-0.383545	
-0.383789	
-0.383545	
-0.383118	
-0.383789	
-0.383362	
-0.38446	
-0.382751	
-0.383789	
-0.383789	
-0.383301	
-0.383728	
-0.384216	
-0.383484	
-0.383301	
-0.383301	
-0.383972	
-0.383484	
-0.383667	
-0.384094	
-0.38324	
-0.383057	
-0.383179	
-0.38269	
-0.382507	
-0.382446	
-0.382019	
-0.381714	
-0.381653	
-0.381653	
-0.381531	
-0.381531	
-0.382751	
-0.38208	
-0.382263	
-0.382629	
-0.381592	
-0.383484	
-0.383728	
-0.383423	
-0.383606	
-0.383423	
-0.384033	
-0.383728	
-0.384338	
-0.384277	
-0.383972	
-0.383606	
-0.383545	
-0.383423	
-0.383972	
-0.383362	
-0.38269	
-0.383423	
-0.382324	
-0.383545	
-0.383667	
-0.384094	
-0.382751	
-0.383057	
-0.382996	
-0.382568	
-0.383057	
-0.383606	
-0.382874	
-0.383118	
-0.383179	
-0.383545	
-0.383118	
-0.38385	
-0.384521	
-0.382996	
-0.384521	
-0.384766	
-0.384888	
-0.386108	
-0.386169	
-0.386169	
-0.387146	
-0.386841	
-0.387756	
-0.387329	
-0.387817	
-0.388489	
-0.386475	
-0.387756	
-0.387878	
-0.386841	
-0.387451	
-0.386963	
-0.38623	
-0.386414	
-0.385986	
-0.386597	
-0.38623	
-0.386597	
-0.386597	
-0.384583	
-0.385498	
-0.386597	
-0.384949	
-0.385681	
-0.385559	
-0.384155	
-0.384949	
-0.384583	
-0.385803	
-0.385193	
-0.385498	
-0.38562	
-0.384766	
-0.384766	
-0.384705	
-0.383545	
-0.38501	
-0.384094	
-0.384705	
-0.38501	
-0.384155	
-0.384827	
-0.384705	
-0.38562	
-0.384949	
-0.384338	
-0.384888	
-0.384094	
-0.383728	
-0.385132	
-0.383972	
-0.384399	
-0.384399	
-0.383057	
-0.384216	
-0.384155	
-0.385193	
-0.384705	
-0.38446	
-0.384216	
-0.384705	
-0.384644	
-0.385559	
-0.384827	
-0.385437	
-0.385437	
-0.386108	
-0.38562	
-0.385864	
-0.386475	
-0.386047	
-0.38623	
-0.385986	
-0.385559	
-0.385193	
-0.385559	
-0.385315	
-0.385437	
-0.385193	
-0.386658	
-0.385803	
-0.386047	
-0.384949	
-0.384033	
-0.384583	
-0.384338	
-0.384399	
-0.384766	
-0.384521	
-0.38385	
-0.384583	
-0.384094	
-0.385925	
-0.385376	
-0.385193	
-0.384766	
-0.384399	
-0.384033	
-0.385132	
-0.384399	
-0.384827	
-0.384705	
-0.383667	
-0.384827	
-0.385132	
-0.385742	
-0.385437	
-0.385559	
-0.385254	
-0.385498	
-0.384766	
-0.386414	
-0.385254	
-0.385681	
-0.385376	
-0.384888	
-0.385437	
-0.386353	
-0.385986	
-0.386108	
-0.385254	
-0.385742	
-0.385437	
-0.384949	
-0.386108	
-0.385864	
-0.385376	
-0.384949	
-0.385437	
-0.38501	
-0.386047	
-0.385986	
-0.387024	
-0.38562	
-0.385193	
-0.385376	
-0.385193	
-0.385498	
-0.385864	
-0.385559	
-0.385681	
-0.38623	
-0.385376	
-0.387207	
-0.387085	
-0.387634	
-0.387024	
-0.386719	
-0.387451	
-0.387878	
-0.387817	
-0.387878	
-0.388062	
-0.387573	
-0.388062	
-0.387756	
-0.389404	
-0.389404	
-0.38916	
-0.388855	
-0.388794	
-0.388794	
-0.389709	
-0.389038	
-0.388245	
-0.388672	
-0.387573	
-0.388428	
-0.389221	
-0.390564	
-0.390259	
-0.390503	
-0.390503	
-0.391113	
-0.390808	
-0.391968	
-0.39093	
-0.391174	
-0.39032	
-0.389465	
-0.389038	
-0.389648	
-0.388245	
-0.388489	
-0.387573	
-0.387268	
-0.387512	
-0.386597	
-0.386963	
-0.387329	
-0.386719	
-0.386475	
-0.386475	
-0.385986	
-0.386536	
-0.386414	
-0.386963	
-0.385681	
-0.386414	
-0.387024	
-0.385925	
-0.386719	
-0.38739	
-0.387512	
-0.386658	
-0.387573	
-0.387207	
-0.388184	
-0.388245	
-0.387939	
-0.387878	
-0.387817	
-0.388	
-0.388733	
-0.388184	
-0.388367	
-0.388	
-0.388123	
-0.388489	
-0.388428	
-0.388977	
-0.389343	
-0.388794	
-0.389038	
-0.388611	
-0.388123	
-0.389465	
-0.389648	
-0.389587	
-0.390259	
-0.390564	
-0.390503	
-0.389465	
-0.391785	
-0.391785	
-0.391113	
-0.391235	
-0.391235	
-0.391724	
-0.391907	
-0.392456	
-0.392944	
-0.39209	
-0.391663	
-0.391296	
-0.391785	
-0.393005	
-0.39209	
-0.392151	
-0.391357	
-0.390625	
-0.391663	
-0.389709	
-0.389832	
-0.390198	
-0.390503	
-0.389893	
-0.389648	
-0.389587	
-0.391602	
-0.389526	
-0.389282	
-0.389221	
-0.388367	
-0.390503	
-0.389771	
-0.389771	
-0.389771	
-0.389709	
-0.389832	
-0.389648	
-0.389893	
-0.391113	
-0.389709	
-0.389282	
-0.389832	
-0.390198	
-0.389954	
-0.390259	
-0.390686	
-0.390259	
-0.390869	
-0.391174	
-0.390869	
-0.391479	
-0.391663	
-0.390991	
-0.390686	
-0.390442	
-0.390686	
-0.390198	
-0.389771	
-0.389893	
-0.388428	
-0.389221	
-0.389465	
-0.388184	
-0.389526	
-0.389343	
-0.389282	
-0.389465	
-0.388916	
-0.390198	
-0.389832	
-0.389404	
-0.389221	
-0.388855	
-0.389771	
-0.389587	
-0.388733	
-0.390808	
-0.389709	
-0.389587	
-0.389526	
-0.38855	
-0.390625	
-0.390076	
-0.389709	
-0.389099	
-0.390076	
-0.39032	
-0.389771	
-0.389099	
-0.391418	
-0.389832	
-0.389404	
-0.389038	
-0.388	
-0.388672	
-0.388245	
-0.387695	
-0.386902	
-0.387024	
-0.386902	
-0.386353	
-0.385864	
-0.387085	
-0.385925	
-0.385925	
-0.385681	
-0.384949	
-0.385437	
-0.386353	
-0.385864	
-0.38623	
-0.385925	
-0.387024	
-0.386536	
-0.38678	
-0.388306	
-0.387207	
-0.386719	
-0.38678	
-0.38678	
-0.387512	
-0.387085	
-0.386963	
-0.387329	
-0.388062	
-0.388062	
-0.387939	
-0.388428	
-0.389099	
-0.388367	
-0.388245	
-0.388367	
-0.388794	
-0.388428	
-0.388123	
-0.387817	
-0.387817	
-0.388306	
-0.388123	
-0.387756	
-0.388794	
-0.389038	
-0.388123	
-0.38855	
-0.387939	
-0.389404	
-0.388489	
-0.388611	
-0.387756	
-0.389099	
-0.388977	
-0.388611	
-0.388428	
-0.389709	
-0.389343	
-0.38855	
-0.388916	
-0.389587	
-0.389526	
-0.388733	
-0.388428	
-0.387939	
-0.388428	
-0.387634	
-0.387695	
-0.387146	
-0.388977	
-0.388855	
-0.388367	
-0.388367	
-0.388733	
-0.389038	
-0.38855	
-0.388367	
-0.388306	
-0.388184	
-0.387939	
-0.388062	
-0.387268	
-0.389282	
-0.388489	
-0.388489	
-0.388611	
-0.388977	
-0.388611	
-0.388611	
-0.388733	
-0.388	
-0.388489	
-0.388062	
-0.38855	
-0.388794	
-0.389038	
-0.388611	
-0.38855	
-0.388733	
-0.389099	
-0.388611	
-0.388672	
-0.387817	
-0.388062	
-0.388855	
-0.388489	
-0.388062	
-0.388306	
-0.388977	
-0.388	
-0.388	
-0.388123	
-0.387573	
-0.387939	
-0.387817	
-0.386658	
-0.387512	
-0.387085	
-0.387268	
-0.387207	
-0.387878	
-0.387878	
-0.387817	
-0.387878	
-0.388	
-0.38739	
-0.387939	
-0.387512	
-0.387085	
-0.387695	
-0.387634	
-0.38739	
-0.386902	
-0.388062	
-0.387939	
-0.387451	
-0.387329	
-0.386536	
-0.387634	
-0.38739	
-0.387329	
-0.387573	
-0.387024	
-0.386719	
-0.386658	
-0.385742	
-0.387024	
-0.38623	
-0.385498	
-0.385803	
-0.385925	
-0.385376	
-0.385376	
-0.385559	
-0.384705	
-0.384766	
-0.38501	
-0.38501	
-0.384216	
-0.385376	
-0.384705	
-0.384705	
-0.38385	
-0.384888	
-0.384766	
-0.38446	
-0.38446	
-0.383911	
-0.384277	
-0.383972	
-0.384399	
-0.384094	
-0.383972	
-0.38324	
-0.382751	
-0.382202	
-0.382141	
-0.382141	
-0.381897	
-0.381714	
-0.382019	
-0.382874	
-0.38385	
-0.384521	
-0.385559	
-0.385986	
-0.385742	
-0.386353	
-0.386353	
-0.38623	
-0.38678	
-0.386169	
-0.386047	
-0.38562	
-0.386841	
-0.386536	
-0.386597	
-0.387939	
-0.387817	
-0.386719	
-0.387085	
-0.386841	
-0.387085	
-0.386597	
-0.386902	
-0.387451	
-0.386292	
-0.386047	
-0.385925	
-0.384827	
-0.386658	
-0.386047	
-0.384827	
-0.385437	
-0.385376	
-0.384888	
-0.385315	
-0.38501	
-0.385315	
-0.384827	
-0.385437	
-0.384766	
-0.384949	
-0.385071	
-0.384338	
-0.384338	
-0.384155	
-0.384033	
-0.384155	
-0.384033	
-0.383179	
-0.38385	
-0.383606	
-0.382874	
-0.382935	
-0.383789	
-0.383301	
-0.382263	
-0.382324	
-0.38269	
-0.38208	
-0.38269	
-0.382996	
-0.381836	
-0.381775	
-0.382019	
-0.381592	
-0.381226	
-0.383179	
-0.382507	
-0.381836	
-0.382141	
-0.381958	
-0.381653	
-0.383179	
-0.38324	
-0.384155	
-0.382996	
-0.383728	
-0.383606	
-0.383179	
-0.384521	
-0.384216	
-0.383057	
-0.383545	
-0.383423	
-0.383484	
-0.383179	
-0.38324	
-0.383911	
-0.383484	
-0.38385	
-0.383728	
-0.383789	
-0.38385	
-0.384705	
-0.383728	
-0.383545	
-0.383362	
-0.383057	
-0.38385	
-0.382141	
-0.38269	
-0.382751	
-0.382813	
-0.382874	
-0.383728	
-0.382507	
-0.383423	
-0.382813	
-0.382446	
-0.383118	
-0.382874	
-0.383789	
-0.383484	
-0.383423	
-0.383972	
-0.384216	
-0.383545	
-0.385193	
-0.384155	
-0.384949	
-0.384155	
-0.384033	
-0.384094	
-0.384338	
-0.384033	
-0.384766	
-0.383545	
-0.38385	
-0.38385	
-0.382935	
-0.384399	
-0.383911	
-0.384155	
-0.383972	
-0.383423	
-0.383362	
-0.383423	
-0.382996	
-0.38385	
-0.382813	
-0.383423	
-0.38324	
-0.383545	
-0.384094	
-0.384094	
-0.383972	
-0.384277	
-0.38446	
-0.384827	
-0.385193	
-0.385681	
-0.386169	
-0.385803	
-0.386658	
-0.386719	
-0.387756	
-0.387634	
-0.388367	
-0.387634	
-0.387939	
-0.387756	
-0.387512	
-0.387634	
-0.386902	
-0.387024	
-0.38678	
-0.386902	
-0.38623	
-0.386902	
-0.38678	
-0.386841	
-0.386292	
-0.386536	
-0.386658	
-0.38623	
-0.385864	
-0.385498	
-0.385742	
-0.385193	
-0.385559	
-0.385193	
-0.386719	
-0.385315	
-0.38562	
-0.38562	
-0.385742	
-0.385559	
-0.385193	
-0.385437	
-0.385193	
-0.384399	
-0.384888	
-0.384644	
-0.384338	
-0.385864	
-0.385254	
	
