E:\DOCUMENTS AND SETTINGS\JPOTAS\MEUS DOCUMENTOS\UFRJ\RSCI-BM 12 WK SERIES\070731-RSCI-BM-12\RSCI-BM-12-REMG\070731-RSCI-BM-12-REMG-0009.ACQ
0.025000 msec/sample
1 channel
Analog input
Volts
CH1	
2000	
-0.386292	
-0.386292	
-0.386414	
-0.384949	
-0.386169	
-0.385742	
-0.385742	
-0.385376	
-0.384216	
-0.384949	
-0.384583	
-0.385132	
-0.38562	
-0.384644	
-0.385254	
-0.384888	
-0.383789	
-0.385559	
-0.385071	
-0.385803	
-0.385071	
-0.384827	
-0.385742	
-0.384888	
-0.386536	
-0.387512	
-0.386963	
-0.387268	
-0.387329	
-0.386169	
-0.388245	
-0.386169	
-0.388123	
-0.387085	
-0.385437	
-0.386536	
-0.387085	
-0.386902	
-0.387146	
-0.386841	
-0.387573	
-0.38623	
-0.385742	
-0.387268	
-0.385498	
-0.386047	
-0.385803	
-0.384827	
-0.386597	
-0.387085	
-0.387817	
-0.388	
-0.387939	
-0.388916	
-0.388489	
-0.388977	
-0.389954	
-0.38916	
-0.389099	
-0.388611	
-0.387634	
-0.389465	
-0.389648	
-0.39032	
-0.389893	
-0.39032	
-0.390503	
-0.389404	
-0.389648	
-0.391541	
-0.389893	
-0.38916	
-0.388306	
-0.387329	
-0.387207	
-0.388123	
-0.388245	
-0.388	
-0.387634	
-0.387207	
-0.386841	
-0.387817	
-0.387085	
-0.387939	
-0.387085	
-0.386414	
-0.386292	
-0.385742	
-0.387207	
-0.388367	
-0.386841	
-0.387451	
-0.386719	
-0.385986	
-0.386719	
-0.386414	
-0.387146	
-0.386292	
-0.38562	
-0.386169	
-0.385803	
-0.386353	
-0.387573	
-0.386414	
-0.386841	
-0.385559	
-0.38501	
-0.38678	
-0.387085	
-0.386353	
-0.386536	
-0.385437	
-0.386658	
-0.386475	
-0.386902	
-0.387695	
-0.387878	
-0.387756	
-0.388245	
-0.388733	
-0.389282	
-0.389404	
-0.389771	
-0.389404	
-0.388184	
-0.388245	
-0.390015	
-0.390564	
-0.39032	
-0.391663	
-0.390686	
-0.390198	
-0.39093	
-0.389771	
-0.39093	
-0.39032	
-0.389771	
-0.389648	
-0.388855	
-0.389465	
-0.390015	
-0.389771	
-0.389648	
-0.388489	
-0.388123	
-0.389343	
-0.388184	
-0.388916	
-0.388611	
-0.388367	
-0.387268	
-0.388184	
-0.388123	
-0.389038	
-0.388733	
-0.389343	
-0.388672	
-0.388733	
-0.389954	
-0.390259	
-0.389709	
-0.389282	
-0.389038	
-0.389099	
-0.390137	
-0.390686	
-0.390442	
-0.390625	
-0.390991	
-0.389587	
-0.390869	
-0.391846	
-0.392334	
-0.390991	
-0.391235	
-0.389587	
-0.389587	
-0.391357	
-0.391907	
-0.390747	
-0.391174	
-0.390625	
-0.389648	
-0.390625	
-0.391663	
-0.392395	
-0.390747	
-0.390808	
-0.389648	
-0.39032	
-0.391602	
-0.391785	
-0.391113	
-0.391541	
-0.390686	
-0.390991	
-0.391541	
-0.390747	
-0.386597	
-0.384583	
-0.38446	
-0.384705	
-0.383911	
-0.387085	
-0.392456	
-0.392517	
-0.393127	
-0.391602	
-0.391235	
-0.39093	
-0.391052	
-0.391357	
-0.390564	
-0.389832	
-0.38916	
-0.390198	
-0.390015	
-0.390076	
-0.389954	
-0.390564	
-0.389221	
-0.389709	
-0.389221	
-0.390869	
-0.390381	
-0.390381	
-0.390076	
-0.39032	
-0.391724	
-0.392517	
-0.392822	
-0.392517	
-0.392639	
-0.392334	
-0.3927	
-0.392944	
-0.394287	
-0.393799	
-0.393616	
-0.393188	
-0.392334	
-0.393616	
-0.393921	
-0.39386	
-0.394348	
-0.393982	
-0.393921	
-0.393555	
-0.392822	
-0.393616	
-0.392883	
-0.392395	
-0.391663	
-0.391235	
-0.392456	
-0.392517	
-0.392456	
-0.393066	
-0.392212	
-0.391052	
-0.39209	
-0.393372	
-0.393311	
-0.392517	
-0.392517	
-0.391846	
-0.391602	
-0.392822	
-0.393188	
-0.392639	
-0.392395	
-0.392334	
-0.39093	
-0.391602	
-0.392212	
-0.392212	
-0.390808	
-0.390686	
-0.390564	
-0.390015	
-0.390564	
-0.391846	
-0.392151	
-0.391968	
-0.392273	
-0.392761	
-0.393188	
-0.395813	
-0.397217	
-0.397461	
-0.398438	
-0.399536	
-0.401367	
-0.403748	
-0.405579	
-0.407532	
-0.408813	
-0.410095	
-0.411743	
-0.414551	
-0.415833	
-0.416809	
-0.418152	
-0.419373	
-0.421448	
-0.423584	
-0.425476	
-0.426758	
-0.42688	
-0.42749	
-0.427673	
-0.429626	
-0.431091	
-0.431335	
-0.432007	
-0.431519	
-0.433228	
-0.434387	
-0.435364	
-0.436646	
-0.436707	
-0.43689	
-0.437439	
-0.437927	
-0.44043	
-0.441284	
-0.441162	
-0.442017	
-0.443542	
-0.446045	
-0.44751	
-0.449768	
-0.449707	
-0.450073	
-0.450745	
-0.450867	
-0.453552	
-0.454468	
-0.454468	
-0.455139	
-0.455261	
-0.457153	
-0.459778	
-0.460266	
-0.462524	
-0.462708	
-0.463623	
-0.464111	
-0.464294	
-0.466797	
-0.467468	
-0.467773	
-0.467529	
-0.467407	
-0.466553	
-0.467712	
-0.467712	
-0.46698	
-0.465759	
-0.464478	
-0.463013	
-0.463257	
-0.462646	
-0.461426	
-0.460327	
-0.459045	
-0.457092	
-0.457642	
-0.457275	
-0.45752	
-0.455688	
-0.455139	
-0.453796	
-0.450867	
-0.452698	
-0.451538	
-0.448608	
-0.446655	
-0.444214	
-0.442627	
-0.441711	
-0.439087	
-0.438293	
-0.434021	
-0.432251	
-0.429077	
-0.426636	
-0.425903	
-0.424744	
-0.421448	
-0.418945	
-0.417297	
-0.414551	
-0.412964	
-0.411865	
-0.409912	
-0.406982	
-0.404724	
-0.39563	
-0.393066	
-0.391968	
-0.390259	
-0.388	
-0.387573	
-0.392578	
-0.392883	
-0.392395	
-0.392517	
-0.391907	
-0.390503	
-0.389587	
-0.388611	
-0.38855	
-0.388306	
-0.387024	
-0.385254	
-0.383362	
-0.382324	
-0.381897	
-0.381104	
-0.380737	
-0.378845	
-0.377991	
-0.377563	
-0.375854	
-0.377258	
-0.377014	
-0.375244	
-0.374573	
-0.374023	
-0.372803	
-0.373047	
-0.372253	
-0.371826	
-0.369568	
-0.368958	
-0.367737	
-0.367615	
-0.36676	
-0.365784	
-0.364441	
-0.362976	
-0.363342	
-0.363342	
-0.362427	
-0.36322	
-0.361877	
-0.361877	
-0.361511	
-0.361023	
-0.361694	
-0.362366	
-0.361572	
-0.361084	
-0.36145	
-0.361816	
-0.363037	
-0.364685	
-0.364136	
-0.364197	
-0.364685	
-0.36438	
-0.366882	
-0.367676	
-0.367615	
-0.367249	
-0.368042	
-0.366943	
-0.368835	
-0.369629	
-0.370605	
-0.370117	
-0.370728	
-0.371094	
-0.372437	
-0.37262	
-0.373352	
-0.373657	
-0.372803	
-0.374023	
-0.374878	
-0.375854	
-0.37677	
-0.377197	
-0.377563	
-0.378723	
-0.379456	
-0.381104	
-0.382507	
-0.382324	
-0.382507	
-0.38385	
-0.383789	
-0.387024	
-0.387939	
-0.388977	
-0.390015	
-0.390869	
-0.392517	
-0.394592	
-0.396301	
-0.396912	
-0.398132	
-0.399902	
-0.399536	
-0.403809	
-0.405396	
-0.406738	
-0.407166	
-0.407959	
-0.408752	
-0.409668	
-0.411316	
-0.412842	
-0.412048	
-0.412048	
-0.413025	
-0.414001	
-0.415588	
-0.416016	
-0.417236	
-0.417542	
-0.417847	
-0.419556	
-0.420776	
-0.422668	
-0.422424	
-0.421997	
-0.424072	
-0.424622	
-0.427429	
-0.428101	
-0.429382	
-0.42981	
-0.429016	
-0.430603	
-0.43158	
-0.432983	
-0.4328	
-0.433472	
-0.434875	
-0.43512	
-0.438171	
-0.439453	
-0.441528	
-0.442383	
-0.44342	
-0.444885	
-0.446655	
-0.448547	
-0.44928	
-0.449219	
-0.449646	
-0.449707	
-0.450134	
-0.450867	
-0.450195	
-0.449341	
-0.448242	
-0.446899	
-0.446411	
-0.445068	
-0.444885	
-0.442871	
-0.441223	
-0.440918	
-0.439636	
-0.438721	
-0.437317	
-0.437256	
-0.434998	
-0.433228	
-0.432922	
-0.431946	
-0.430847	
-0.429382	
-0.426514	
-0.423523	
-0.422485	
-0.420654	
-0.419678	
-0.417603	
-0.416931	
-0.413879	
-0.41156	
-0.41095	
-0.409851	
-0.407715	
-0.405701	
-0.403442	
-0.401306	
-0.400452	
-0.39917	
-0.396973	
-0.396606	
-0.394043	
-0.392639	
-0.391846	
-0.390625	
-0.389954	
-0.389465	
-0.387756	
-0.38623	
-0.385193	
-0.38501	
-0.384888	
-0.382996	
-0.382874	
-0.381165	
-0.379578	
-0.380249	
-0.378967	
-0.378906	
-0.377686	
-0.375549	
-0.373596	
-0.373047	
-0.372925	
-0.373352	
-0.372375	
-0.372375	
-0.370911	
-0.370178	
-0.369751	
-0.369812	
-0.369141	
-0.368164	
-0.36792	
-0.366211	
-0.365601	
-0.365906	
-0.364441	
-0.363892	
-0.362671	
-0.361755	
-0.361206	
-0.359863	
-0.359924	
-0.358887	
-0.357971	
-0.35675	
-0.356079	
-0.355896	
-0.355347	
-0.354858	
-0.355591	
-0.35498	
-0.355225	
-0.355286	
-0.356079	
-0.356812	
-0.356262	
-0.356689	
-0.357056	
-0.357361	
-0.360229	
-0.359497	
-0.359924	
-0.360352	
-0.361084	
-0.361389	
-0.362	
-0.362671	
-0.363037	
-0.363464	
-0.362427	
-0.36438	
-0.365845	
-0.36554	
-0.365601	
-0.366211	
-0.366272	
-0.367004	
-0.367615	
-0.368408	
-0.368408	
-0.368469	
-0.367737	
-0.369507	
-0.3703	
-0.3703	
-0.370544	
-0.371399	
-0.370422	
-0.371216	
-0.371521	
-0.372192	
-0.372742	
-0.37262	
-0.372498	
-0.373047	
-0.374023	
-0.374512	
-0.375244	
-0.375	
-0.375793	
-0.37561	
-0.376038	
-0.377197	
-0.377502	
-0.376465	
-0.376343	
-0.37616	
-0.376587	
-0.377258	
-0.377502	
-0.377747	
-0.377808	
-0.377197	
-0.37738	
-0.378418	
-0.377991	
-0.377625	
-0.378052	
-0.376709	
-0.378357	
-0.380615	
-0.380493	
-0.380676	
-0.38147	
-0.380676	
-0.382019	
-0.382446	
-0.382751	
-0.382996	
-0.382935	
-0.38324	
-0.383118	
-0.384033	
-0.384155	
-0.384094	
-0.38446	
-0.384949	
-0.385071	
-0.384827	
-0.385742	
-0.385803	
-0.384583	
-0.384827	
-0.384033	
-0.384033	
-0.385315	
-0.385132	
-0.385437	
-0.385803	
-0.38501	
-0.386353	
-0.386841	
-0.388306	
-0.387634	
-0.387329	
-0.387146	
-0.386719	
-0.388855	
-0.389709	
-0.389832	
-0.390564	
-0.391052	
-0.390869	
-0.391052	
-0.391663	
-0.391357	
-0.391174	
-0.391541	
-0.390015	
-0.391296	
-0.393188	
-0.392761	
-0.393127	
-0.393127	
-0.3927	
-0.393127	
-0.393433	
-0.393372	
-0.393799	
-0.393372	
-0.393127	
-0.393188	
-0.39386	
-0.393188	
-0.393555	
-0.393677	
-0.393188	
-0.394531	
-0.39447	
-0.395691	
-0.393738	
-0.393738	
-0.393921	
-0.393738	
-0.393555	
-0.394348	
-0.394226	
-0.394592	
-0.394775	
-0.394165	
-0.39447	
-0.394104	
-0.393311	
-0.394531	
-0.393616	
-0.392639	
-0.393005	
-0.392517	
-0.3927	
-0.391846	
-0.391541	
-0.391541	
-0.391357	
-0.390015	
-0.390808	
-0.389954	
-0.390259	
-0.388672	
-0.387024	
-0.388489	
-0.38855	
-0.388184	
-0.388062	
-0.388123	
-0.387756	
-0.387756	
-0.387817	
-0.388489	
-0.387939	
-0.388123	
-0.387451	
-0.388	
-0.388855	
-0.388367	
-0.388733	
-0.388672	
-0.388489	
-0.388794	
-0.389282	
-0.389893	
-0.389221	
-0.389771	
-0.389343	
-0.388489	
-0.389832	
-0.389954	
-0.389465	
-0.389709	
-0.389343	
-0.389893	
-0.38916	
-0.389099	
-0.389404	
-0.388977	
-0.38916	
-0.388672	
-0.387756	
-0.389221	
-0.387878	
-0.389038	
-0.389221	
-0.388611	
-0.388611	
-0.388916	
-0.389526	
-0.389954	
-0.389587	
-0.390686	
-0.390015	
-0.388977	
-0.391052	
-0.390808	
-0.391541	
-0.391296	
-0.39093	
-0.391235	
-0.390747	
-0.390503	
-0.390259	
-0.389771	
-0.388855	
-0.388733	
-0.38916	
-0.389526	
-0.389038	
-0.389099	
-0.389038	
-0.387634	
-0.388428	
-0.388428	
-0.388855	
-0.38916	
-0.389099	
-0.388672	
-0.389038	
-0.389099	
-0.38916	
-0.390503	
-0.391174	
-0.391235	
-0.392029	
-0.393066	
-0.392578	
-0.392456	
-0.393494	
-0.393555	
-0.393494	
-0.392761	
-0.394043	
-0.393799	
-0.393616	
-0.394104	
-0.393677	
-0.393982	
-0.393921	
-0.394165	
-0.394714	
-0.394592	
-0.393555	
-0.393188	
-0.391785	
-0.393372	
-0.392883	
-0.393005	
-0.393127	
-0.393127	
-0.392944	
-0.393005	
-0.393311	
-0.394775	
-0.394409	
-0.393982	
-0.394226	
-0.393188	
-0.39386	
-0.394592	
-0.394104	
-0.39325	
-0.394104	
-0.394165	
-0.393799	
-0.392822	
-0.394165	
-0.393188	
-0.392578	
-0.391785	
-0.392639	
-0.391479	
-0.391052	
-0.390869	
-0.391052	
-0.390076	
-0.390259	
-0.390076	
-0.388916	
-0.389771	
-0.389771	
-0.388855	
-0.387512	
-0.388794	
-0.389221	
-0.388794	
-0.389221	
-0.389893	
-0.389587	
-0.389404	
-0.390137	
-0.39093	
-0.391357	
-0.390869	
-0.390808	
-0.391113	
-0.391174	
-0.391968	
-0.39209	
-0.391296	
-0.392212	
-0.392151	
-0.392517	
-0.392517	
-0.393738	
-0.393066	
-0.391541	
-0.391296	
-0.391052	
-0.390747	
-0.391113	
-0.390747	
-0.391357	
-0.390503	
-0.389587	
-0.389465	
-0.389038	
-0.389587	
-0.389099	
-0.389282	
-0.387756	
-0.388428	
-0.388672	
-0.388733	
-0.387939	
-0.389282	
-0.388855	
-0.389343	
-0.388977	
-0.390137	
-0.390869	
-0.390015	
-0.390076	
-0.390015	
-0.389954	
-0.390137	
-0.391052	
-0.390747	
-0.391296	
-0.39093	
-0.391235	
-0.391357	
-0.3927	
-0.392029	
-0.391357	
-0.391479	
-0.391052	
-0.390076	
-0.391418	
-0.390686	
-0.391113	
-0.390442	
-0.390503	
-0.390076	
-0.389282	
-0.391296	
-0.390076	
-0.389648	
-0.390076	
-0.388245	
-0.390076	
-0.390015	
-0.389465	
-0.391235	
-0.390625	
-0.390808	
-0.39032	
-0.391296	
-0.391174	
-0.391052	
-0.390686	
-0.390686	
-0.390686	
-0.391235	
-0.391052	
-0.390991	
-0.390747	
-0.390564	
-0.390198	
-0.389282	
-0.390808	
-0.389709	
-0.388489	
-0.38855	
-0.387085	
-0.387817	
-0.388306	
-0.388428	
-0.388489	
-0.387939	
-0.387634	
-0.387573	
-0.387268	
-0.389343	
-0.387939	
-0.387146	
-0.387573	
-0.386719	
-0.387207	
-0.388306	
-0.388306	
-0.389709	
-0.389404	
-0.389404	
-0.389587	
-0.389099	
-0.390381	
-0.390137	
-0.389648	
-0.390564	
-0.389587	
-0.389954	
-0.389771	
-0.388977	
-0.390442	
-0.389648	
-0.390015	
-0.389709	
-0.39032	
-0.389832	
-0.390381	
-0.389771	
-0.389954	
-0.389038	
-0.390503	
-0.390259	
-0.390442	
-0.390686	
-0.39032	
-0.390198	
-0.390137	
-0.39209	
-0.391541	
-0.390381	
-0.390503	
-0.389038	
-0.390381	
-0.390747	
-0.390625	
-0.391357	
-0.390015	
-0.389526	
-0.389832	
-0.388794	
-0.391357	
-0.389038	
-0.388733	
-0.389221	
-0.386353	
-0.387878	
-0.387146	
-0.387573	
-0.387268	
-0.38739	
-0.387268	
-0.386658	
-0.387878	
-0.388733	
-0.387268	
-0.387329	
-0.386414	
-0.385498	
-0.386841	
-0.387268	
-0.388367	
-0.387756	
-0.387329	
-0.387695	
-0.387329	
-0.389404	
-0.389221	
-0.388611	
-0.388611	
-0.387451	
-0.388367	
-0.388733	
-0.388794	
-0.389526	
-0.388916	
-0.389099	
-0.389404	
-0.389404	
-0.390442	
-0.389282	
-0.388916	
-0.389343	
-0.386597	
-0.387939	
-0.388306	
-0.386597	
-0.387146	
-0.387512	
-0.387573	
-0.386902	
-0.387329	
-0.387939	
-0.386719	
-0.386414	
-0.386902	
-0.385376	
-0.386108	
-0.385742	
-0.386353	
-0.385559	
-0.386108	
-0.385864	
-0.385071	
-0.386353	
-0.388245	
-0.386658	
-0.386475	
-0.385864	
-0.384338	
-0.38623	
-0.385742	
-0.387024	
-0.385925	
-0.386108	
-0.385803	
-0.386536	
-0.386658	
-0.387146	
-0.385681	
-0.385681	
-0.383728	
-0.384277	
-0.384766	
-0.384277	
-0.384888	
-0.384216	
-0.383972	
-0.383972	
-0.384399	
-0.386108	
-0.385559	
-0.38562	
-0.386902	
-0.38562	
-0.386597	
-0.386658	
-0.386169	
-0.386169	
-0.386902	
-0.387085	
-0.386353	
-0.386963	
-0.387878	
-0.387085	
-0.387573	
-0.388	
-0.386047	
-0.387207	
-0.387207	
-0.385986	
-0.385986	
-0.385559	
-0.385132	
-0.383667	
-0.38501	
-0.385986	
-0.384094	
-0.38385	
-0.383484	
-0.381531	
-0.383179	
-0.382751	
-0.382813	
-0.38269	
-0.382385	
-0.382202	
-0.382751	
-0.383423	
-0.383972	
-0.381897	
-0.382446	
-0.382446	
-0.382874	
-0.383728	
-0.38385	
-0.384338	
-0.383667	
-0.383728	
-0.383789	
-0.384766	
-0.38501	
-0.384155	
-0.383545	
-0.383606	
-0.38385	
-0.384277	
-0.38385	
-0.384033	
-0.383911	
-0.38385	
-0.384338	
-0.383972	
-0.384399	
-0.385437	
-0.384521	
-0.38446	
-0.38385	
-0.383301	
-0.384216	
-0.384949	
-0.385986	
-0.385498	
-0.385559	
-0.38501	
-0.384583	
-0.386047	
-0.387512	
-0.385986	
-0.386108	
-0.385742	
-0.384338	
-0.385925	
-0.385925	
-0.384705	
-0.384827	
-0.384705	
-0.384521	
-0.384399	
-0.385132	
-0.384338	
-0.383423	
-0.382751	
-0.382141	
-0.382507	
-0.382324	
-0.381958	
-0.381409	
-0.38147	
-0.381714	
-0.38147	
-0.382385	
-0.382935	
-0.381592	
-0.381531	
-0.381409	
-0.380005	
-0.381348	
-0.382263	
-0.382507	
-0.38208	
-0.382507	
-0.382568	
-0.382568	
-0.383972	
-0.385437	
-0.384094	
-0.383423	
-0.383545	
-0.381592	
-0.383728	
-0.383484	
-0.384094	
-0.384216	
-0.383911	
-0.383728	
-0.38385	
-0.384338	
-0.385437	
-0.383789	
-0.383301	
-0.38269	
-0.381226	
-0.38269	
-0.382629	
-0.381836	
-0.382263	
-0.381775	
-0.382141	
-0.381958	
-0.383118	
-0.382385	
-0.381775	
-0.381775	
-0.380798	
-0.382141	
-0.381897	
-0.382446	
-0.382385	
-0.382446	
-0.382751	
-0.382324	
-0.383972	
-0.385437	
-0.384216	
-0.384338	
-0.384094	
-0.383545	
-0.384644	
-0.384827	
-0.384583	
-0.38446	
-0.384583	
-0.384399	
-0.383179	
-0.384583	
-0.385315	
-0.384033	
-0.384277	
-0.38385	
-0.382507	
-0.383423	
-0.383606	
-0.382629	
-0.38324	
-0.383606	
-0.383911	
-0.384216	
-0.38501	
-0.38623	
-0.385193	
-0.385254	
-0.385864	
-0.384827	
-0.385681	
-0.386169	
-0.385193	
-0.386292	
-0.386719	
-0.385742	
-0.387268	
-0.388733	
-0.387634	
-0.387085	
-0.387451	
-0.386108	
-0.387146	
-0.386658	
-0.387268	
-0.385864	
-0.385803	
-0.385559	
-0.384827	
-0.385193	
-0.386414	
-0.384827	
-0.384644	
-0.384033	
-0.38208	
-0.384949	
-0.38446	
-0.384155	
-0.384094	
-0.383911	
-0.383911	
-0.383423	
-0.384644	
-0.38562	
-0.384277	
-0.383667	
-0.383789	
-0.382813	
-0.383362	
-0.38324	
-0.383301	
-0.383423	
-0.383667	
-0.383118	
-0.38324	
-0.383728	
-0.383911	
-0.382996	
-0.382813	
-0.382385	
-0.382385	
-0.383484	
-0.383423	
-0.382935	
-0.38385	
-0.383911	
-0.384155	
-0.384521	
-0.385254	
-0.384949	
-0.384644	
-0.38501	
-0.385437	
-0.38446	
-0.386353	
-0.386841	
-0.386353	
-0.386658	
-0.387085	
-0.386658	
-0.387512	
-0.388367	
-0.387817	
-0.387756	
-0.388428	
-0.387329	
-0.387878	
-0.387695	
-0.387878	
-0.38739	
-0.387512	
-0.387024	
-0.386658	
-0.387939	
-0.387634	
-0.386597	
-0.386719	
-0.384766	
-0.385986	
-0.386047	
-0.385986	
-0.385864	
-0.385986	
-0.385498	
-0.385742	
-0.384888	
-0.386658	
-0.386292	
-0.385986	
-0.385681	
-0.386292	
-0.385986	
-0.386658	
-0.387329	
-0.386475	
-0.387268	
-0.387146	
-0.386902	
-0.387817	
-0.387939	
-0.387695	
-0.387756	
-0.388123	
-0.388733	
-0.387634	
-0.388367	
-0.388855	
-0.387695	
-0.388733	
-0.388733	
-0.387451	
-0.389404	
-0.389587	
-0.389282	
-0.387817	
-0.387268	
-0.387634	
-0.387146	
-0.388428	
-0.389404	
-0.387939	
-0.387939	
-0.388062	
-0.387817	
-0.389221	
-0.389282	
-0.388977	
-0.388184	
-0.388306	
-0.387817	
-0.388855	
-0.389038	
-0.388977	
-0.389282	
-0.389404	
-0.389404	
-0.390137	
-0.389832	
-0.390625	
-0.389526	
-0.388428	
-0.388306	
-0.387329	
-0.387329	
-0.387146	
-0.386841	
-0.387268	
-0.38678	
-0.386414	
-0.387146	
-0.386841	
-0.387146	
-0.38678	
-0.386658	
-0.386597	
-0.385681	
-0.386292	
-0.386841	
-0.386353	
-0.387024	
-0.387207	
-0.386475	
-0.388855	
-0.388916	
-0.389771	
-0.389587	
-0.388611	
-0.389221	
-0.388855	
-0.389771	
-0.390503	
-0.389893	
-0.390015	
-0.390259	
-0.389709	
-0.391785	
-0.391418	
-0.391479	
-0.390381	
-0.390442	
-0.389771	
-0.388977	
-0.390015	
-0.389709	
-0.389587	
-0.390015	
-0.389038	
-0.389587	
-0.390015	
-0.390259	
-0.389587	
-0.388733	
-0.389587	
-0.388489	
-0.388916	
-0.389404	
-0.388184	
-0.389465	
-0.389221	
-0.389282	
-0.389526	
-0.389832	
-0.390625	
-0.389832	
-0.38916	
-0.389587	
-0.388855	
-0.388855	
-0.388855	
-0.38855	
-0.388184	
-0.388	
-0.387512	
-0.388489	
-0.387817	
-0.387939	
-0.387634	
-0.387512	
-0.388062	
-0.387512	
-0.388123	
-0.388245	
-0.388184	
-0.388245	
-0.388855	
-0.388245	
-0.390137	
-0.389893	
-0.390259	
-0.390076	
-0.390869	
-0.390747	
-0.390442	
-0.390686	
-0.391174	
-0.391541	
-0.391724	
-0.391785	
-0.391113	
-0.392578	
-0.392944	
-0.393372	
-0.392639	
-0.393311	
-0.39209	
-0.391541	
-0.392456	
-0.392456	
-0.39209	
-0.391846	
-0.391479	
-0.391296	
-0.390869	
-0.391357	
-0.391357	
-0.389465	
-0.390076	
-0.388794	
-0.389893	
-0.390198	
-0.390137	
-0.389832	
-0.389587	
-0.389587	
-0.390564	
-0.389771	
-0.391724	
-0.390686	
-0.390198	
-0.390381	
-0.390381	
-0.391113	
-0.389771	
-0.391235	
-0.391479	
-0.391479	
-0.391235	
-0.391724	
-0.392212	
-0.392944	
-0.392273	
-0.392822	
-0.391846	
-0.391235	
-0.391418	
-0.391602	
-0.391907	
-0.391113	
-0.391174	
-0.390686	
-0.390625	
-0.390442	
-0.39032	
-0.389404	
-0.389709	
-0.389343	
-0.388855	
-0.389099	
-0.389709	
-0.389709	
-0.389832	
-0.389282	
-0.38916	
-0.390015	
-0.390259	
-0.390625	
-0.390198	
-0.389954	
-0.389648	
-0.389343	
-0.389893	
-0.391357	
-0.390747	
-0.390869	
-0.390503	
-0.390442	
-0.390015	
-0.390381	
-0.390198	
-0.389221	
-0.388306	
-0.387207	
-0.387756	
-0.387207	
-0.388428	
-0.387878	
-0.387573	
-0.387695	
-0.387268	
-0.387512	
-0.387817	
-0.387146	
-0.387085	
-0.386658	
-0.385742	
-0.387024	
-0.386658	
-0.388	
-0.388184	
-0.388245	
-0.388306	
-0.389343	
-0.389282	
-0.390198	
-0.389038	
-0.389832	
-0.389587	
-0.389343	
-0.388794	
-0.389893	
-0.390015	
-0.389648	
-0.389648	
-0.389526	
-0.390137	
-0.390259	
-0.390076	
-0.390015	
-0.389771	
-0.389404	
-0.390076	
-0.390381	
-0.390503	
-0.390259	
-0.390198	
-0.390686	
-0.390564	
-0.390991	
-0.391235	
-0.39093	
-0.390686	
-0.390564	
-0.390381	
-0.389893	
-0.389648	
-0.391357	
-0.390808	
-0.390686	
-0.390808	
-0.390503	
-0.390564	
-0.39093	
-0.391113	
-0.389832	
-0.388977	
-0.387329	
-0.387512	
-0.388184	
-0.388428	
-0.387756	
-0.387573	
-0.387207	
-0.386597	
-0.387207	
-0.387756	
-0.388123	
-0.386841	
-0.386597	
-0.385498	
-0.386963	
-0.387268	
-0.387451	
-0.386536	
-0.386902	
-0.386841	
-0.387573	
-0.387817	
-0.388672	
-0.388428	
-0.388245	
-0.387817	
-0.387146	
-0.387146	
-0.388306	
-0.388794	
-0.388428	
-0.38855	
-0.388367	
-0.388855	
-0.389038	
-0.390076	
-0.389099	
-0.388062	
-0.387939	
-0.387146	
-0.387512	
-0.387817	
-0.387451	
-0.387939	
-0.387268	
-0.387085	
-0.387085	
-0.387207	
-0.387695	
-0.386536	
-0.385986	
-0.38562	
-0.384949	
-0.385986	
-0.386353	
-0.38562	
-0.385376	
-0.385803	
-0.385498	
-0.385498	
-0.386292	
-0.386902	
-0.385681	
-0.386108	
-0.384888	
-0.385925	
-0.386292	
-0.387024	
-0.386353	
-0.385925	
-0.386169	
-0.386047	
-0.386169	
-0.386902	
-0.386658	
-0.385559	
-0.385681	
-0.384277	
-0.383911	
-0.384949	
-0.385986	
-0.384644	
-0.384399	
-0.384338	
-0.384583	
-0.384216	
-0.385925	
-0.385315	
-0.385132	
-0.385437	
-0.384277	
-0.386047	
-0.387085	
-0.387512	
-0.386658	
-0.387268	
-0.387085	
-0.386841	
-0.387329	
-0.388794	
-0.387268	
-0.387329	
-0.387146	
-0.386658	
-0.387817	
-0.388062	
-0.387634	
-0.387268	
-0.386719	
-0.38678	
-0.385925	
-0.385803	
-0.385925	
-0.384521	
-0.384399	
-0.383728	
-0.383728	
-0.383972	
-0.384277	
-0.383667	
-0.382996	
-0.383179	
-0.383179	
-0.383179	
-0.383545	
-0.384277	
-0.382263	
-0.383118	
-0.382019	
-0.38324	
-0.38385	
-0.384705	
-0.384155	
-0.384277	
-0.384338	
-0.385071	
-0.384705	
-0.385864	
-0.384888	
-0.384399	
-0.384216	
-0.38269	
-0.383972	
-0.384521	
-0.385315	
-0.384094	
-0.384521	
-0.38446	
-0.384888	
-0.384888	
-0.385742	
-0.385315	
-0.384705	
-0.384033	
-0.383606	
-0.384521	
-0.386108	
-0.384949	
-0.385315	
-0.385864	
-0.385742	
-0.385986	
-0.386353	
-0.387024	
-0.386658	
-0.385498	
-0.384827	
-0.386108	
-0.386353	
-0.387024	
-0.385986	
-0.385681	
-0.385132	
-0.385071	
-0.384949	
-0.385559	
-0.384766	
-0.384216	
-0.383545	
-0.382141	
-0.382996	
-0.382813	
-0.383057	
-0.382324	
-0.382385	
-0.381653	
-0.382324	
-0.382263	
-0.382813	
-0.382263	
-0.380676	
-0.381531	
-0.380981	
-0.381531	
-0.382385	
-0.382202	
-0.382507	
-0.382629	
-0.382263	
-0.383911	
-0.384277	
-0.384583	
-0.384399	
-0.382935	
-0.382874	
-0.382935	
-0.383118	
-0.385315	
-0.384155	
-0.384216	
-0.384399	
-0.383423	
-0.385193	
-0.385132	
-0.38446	
-0.384155	
	
