E:\DOCUMENTS AND SETTINGS\JPOTAS\MEUS DOCUMENTOS\UFRJ\RSCI-BM 12 WK SERIES\070731-RSCI-BM-12\RSCI-BM-12-REMG\070731-RSCI-BM-12-REMG-0010.ACQ
0.025000 msec/sample
1 channel
Analog input
Volts
CH1	
2000	
-0.385071	
-0.384949	
-0.385864	
-0.385925	
-0.386292	
-0.386536	
-0.386719	
-0.386658	
-0.387207	
-0.38623	
-0.386658	
-0.386841	
-0.386658	
-0.388062	
-0.389099	
-0.388428	
-0.388916	
-0.38916	
-0.389221	
-0.390198	
-0.389954	
-0.389648	
-0.389587	
-0.388977	
-0.388916	
-0.39032	
-0.389709	
-0.389648	
-0.389648	
-0.388916	
-0.390625	
-0.389709	
-0.390198	
-0.390625	
-0.389099	
-0.389099	
-0.389038	
-0.388428	
-0.390137	
-0.388733	
-0.388672	
-0.388916	
-0.388855	
-0.38916	
-0.388123	
-0.38855	
-0.388977	
-0.387817	
-0.387634	
-0.387024	
-0.386963	
-0.387146	
-0.386841	
-0.386719	
-0.38623	
-0.386353	
-0.386475	
-0.386414	
-0.385742	
-0.385681	
-0.385254	
-0.38446	
-0.384888	
-0.38501	
-0.385071	
-0.38501	
-0.38446	
-0.383545	
-0.385315	
-0.385071	
-0.385498	
-0.385437	
-0.385376	
-0.384949	
-0.384033	
-0.384155	
-0.385193	
-0.385437	
-0.385437	
-0.385254	
-0.386108	
-0.386902	
-0.386963	
-0.387451	
-0.387024	
-0.38678	
-0.38623	
-0.385376	
-0.385315	
-0.386047	
-0.386047	
-0.385742	
-0.385559	
-0.385681	
-0.385803	
-0.38562	
-0.385864	
-0.38562	
-0.385376	
-0.384521	
-0.383972	
-0.385132	
-0.38501	
-0.385071	
-0.384888	
-0.384705	
-0.385132	
-0.384644	
-0.384399	
-0.385742	
-0.383972	
-0.384521	
-0.384338	
-0.383911	
-0.38385	
-0.384766	
-0.384583	
-0.385071	
-0.385315	
-0.386292	
-0.386108	
-0.386292	
-0.387024	
-0.385864	
-0.385986	
-0.386353	
-0.38562	
-0.386169	
-0.386292	
-0.386536	
-0.386292	
-0.386536	
-0.386902	
-0.387085	
-0.38739	
-0.387268	
-0.387207	
-0.386597	
-0.385986	
-0.385803	
-0.38739	
-0.387024	
-0.38678	
-0.386719	
-0.38739	
-0.386963	
-0.387451	
-0.387634	
-0.387024	
-0.387146	
-0.386963	
-0.386108	
-0.386536	
-0.387085	
-0.387024	
-0.387756	
-0.387024	
-0.387695	
-0.387268	
-0.38739	
-0.387817	
-0.386719	
-0.386658	
-0.385742	
-0.385864	
-0.38562	
-0.385925	
-0.385559	
-0.385559	
-0.385071	
-0.385864	
-0.384827	
-0.384888	
-0.385071	
-0.384216	
-0.384521	
-0.384583	
-0.384277	
-0.385559	
-0.385071	
-0.385681	
-0.385498	
-0.384583	
-0.38623	
-0.386169	
-0.38678	
-0.386536	
-0.386414	
-0.386658	
-0.385498	
-0.385925	
-0.387573	
-0.387146	
-0.387146	
-0.387512	
-0.388	
-0.388062	
-0.386963	
-0.381836	
-0.380493	
-0.380432	
-0.380493	
-0.380371	
-0.38147	
-0.388489	
-0.389221	
-0.389343	
-0.389038	
-0.390076	
-0.389526	
-0.390015	
-0.390259	
-0.391235	
-0.389893	
-0.390015	
-0.390198	
-0.388855	
-0.390686	
-0.391174	
-0.390808	
-0.391174	
-0.39209	
-0.391174	
-0.391113	
-0.391235	
-0.391357	
-0.391785	
-0.391235	
-0.391541	
-0.392517	
-0.392456	
-0.391907	
-0.391724	
-0.390991	
-0.391357	
-0.391357	
-0.391296	
-0.391846	
-0.391846	
-0.39093	
-0.391174	
-0.390259	
-0.39209	
-0.391296	
-0.390869	
-0.391235	
-0.391479	
-0.391479	
-0.391602	
-0.391663	
-0.391479	
-0.391541	
-0.391479	
-0.391052	
-0.389893	
-0.392822	
-0.392029	
-0.392212	
-0.391418	
-0.392822	
-0.392639	
-0.392395	
-0.392578	
-0.392273	
-0.392151	
-0.391418	
-0.389709	
-0.389832	
-0.391785	
-0.39093	
-0.390625	
-0.39032	
-0.390503	
-0.389587	
-0.389832	
-0.390137	
-0.389893	
-0.389465	
-0.388855	
-0.387695	
-0.388123	
-0.389282	
-0.389648	
-0.389954	
-0.39093	
-0.391907	
-0.392212	
-0.39325	
-0.394958	
-0.395752	
-0.396057	
-0.397278	
-0.397095	
-0.400818	
-0.402283	
-0.403442	
-0.404724	
-0.405762	
-0.407654	
-0.40863	
-0.410645	
-0.413391	
-0.412964	
-0.414917	
-0.416077	
-0.417969	
-0.419983	
-0.421204	
-0.422852	
-0.424133	
-0.424683	
-0.426025	
-0.42749	
-0.429688	
-0.430115	
-0.431458	
-0.432373	
-0.432983	
-0.434998	
-0.436096	
-0.437073	
-0.438049	
-0.439209	
-0.440308	
-0.441711	
-0.443787	
-0.444824	
-0.446167	
-0.44751	
-0.446167	
-0.450623	
-0.451782	
-0.452209	
-0.452698	
-0.453552	
-0.453735	
-0.453674	
-0.453735	
-0.454529	
-0.45575	
-0.45636	
-0.457214	
-0.457825	
-0.45929	
-0.460693	
-0.461182	
-0.460754	
-0.462341	
-0.462646	
-0.463562	
-0.465088	
-0.464172	
-0.464722	
-0.464661	
-0.463501	
-0.464478	
-0.463745	
-0.46344	
-0.462524	
-0.46228	
-0.46106	
-0.460022	
-0.459473	
-0.458984	
-0.457214	
-0.45636	
-0.455627	
-0.453491	
-0.454651	
-0.453369	
-0.453369	
-0.452271	
-0.453308	
-0.450562	
-0.449463	
-0.449219	
-0.446655	
-0.443909	
-0.442688	
-0.439636	
-0.440002	
-0.436829	
-0.435242	
-0.433105	
-0.431274	
-0.430359	
-0.427795	
-0.426636	
-0.426086	
-0.423462	
-0.421387	
-0.419678	
-0.41803	
-0.417114	
-0.414795	
-0.412903	
-0.410522	
-0.409363	
-0.406372	
-0.404297	
-0.403259	
-0.401855	
-0.398926	
-0.397705	
-0.39502	
-0.393616	
-0.394714	
-0.393372	
-0.392334	
-0.391785	
-0.391479	
-0.390137	
-0.388794	
-0.388977	
-0.387024	
-0.385193	
-0.383789	
-0.38208	
-0.380432	
-0.380249	
-0.378723	
-0.378357	
-0.376709	
-0.377869	
-0.376587	
-0.376465	
-0.376282	
-0.376709	
-0.375183	
-0.374512	
-0.372803	
-0.373535	
-0.371826	
-0.370911	
-0.369507	
-0.368713	
-0.367981	
-0.36731	
-0.366882	
-0.365906	
-0.364746	
-0.36377	
-0.363281	
-0.362549	
-0.363159	
-0.362976	
-0.36261	
-0.362	
-0.36322	
-0.363098	
-0.363892	
-0.363647	
-0.363403	
-0.363281	
-0.362549	
-0.364014	
-0.365234	
-0.365662	
-0.365967	
-0.365845	
-0.368286	
-0.368103	
-0.369568	
-0.369812	
-0.370178	
-0.369995	
-0.369934	
-0.3703	
-0.370605	
-0.371704	
-0.372131	
-0.372742	
-0.37384	
-0.373169	
-0.373413	
-0.374573	
-0.373718	
-0.374084	
-0.367737	
-0.36676	
-0.36792	
-0.368958	
-0.369446	
-0.370483	
-0.37677	
-0.37793	
-0.378601	
-0.378357	
-0.377258	
-0.379211	
-0.378296	
-0.377808	
-0.378845	
-0.379517	
-0.379211	
-0.37915	
-0.378662	
-0.380249	
-0.380615	
-0.381287	
-0.381287	
-0.382202	
-0.381592	
-0.381348	
-0.38269	
-0.382874	
-0.382996	
-0.383301	
-0.383118	
-0.384277	
-0.384155	
-0.384949	
-0.384705	
-0.384521	
-0.384033	
-0.382874	
-0.383789	
-0.384216	
-0.38385	
-0.383972	
-0.384216	
-0.384094	
-0.383911	
-0.383667	
-0.38385	
-0.381958	
-0.38324	
-0.382385	
-0.382568	
-0.382629	
-0.382874	
-0.382874	
-0.382935	
-0.382751	
-0.382935	
-0.382568	
-0.383423	
-0.382874	
-0.383484	
-0.38269	
-0.382568	
-0.382324	
-0.383423	
-0.382324	
-0.382507	
-0.382629	
-0.382324	
-0.382324	
-0.382996	
-0.382629	
-0.381897	
-0.382263	
-0.381287	
-0.38269	
-0.382751	
-0.38324	
-0.383484	
-0.383545	
-0.382935	
-0.383606	
-0.382935	
-0.384094	
-0.384399	
-0.384949	
-0.385315	
-0.386169	
-0.386292	
-0.389709	
-0.389954	
-0.39093	
-0.392334	
-0.393494	
-0.395935	
-0.397339	
-0.399414	
-0.40033	
-0.401428	
-0.402283	
-0.402466	
-0.405762	
-0.406494	
-0.40802	
-0.409973	
-0.41156	
-0.41333	
-0.414185	
-0.415222	
-0.415344	
-0.415833	
-0.415344	
-0.416443	
-0.418335	
-0.41803	
-0.418396	
-0.419678	
-0.4198	
-0.421631	
-0.423157	
-0.424927	
-0.425293	
-0.425781	
-0.426514	
-0.427246	
-0.430054	
-0.430664	
-0.432434	
-0.433594	
-0.434753	
-0.437561	
-0.439453	
-0.440857	
-0.441589	
-0.442017	
-0.442505	
-0.442627	
-0.442749	
-0.445007	
-0.444946	
-0.445374	
-0.446716	
-0.448914	
-0.449829	
-0.450928	
-0.453369	
-0.452576	
-0.455078	
-0.454468	
-0.456055	
-0.457947	
-0.457886	
-0.457764	
-0.457031	
-0.456238	
-0.456543	
-0.455566	
-0.455078	
-0.453674	
-0.452637	
-0.451172	
-0.449158	
-0.448303	
-0.447815	
-0.446045	
-0.445313	
-0.44342	
-0.443726	
-0.442017	
-0.440857	
-0.439514	
-0.437439	
-0.435852	
-0.4328	
-0.43103	
-0.429932	
-0.427673	
-0.425903	
-0.423828	
-0.421204	
-0.420288	
-0.418579	
-0.41748	
-0.415466	
-0.414063	
-0.411804	
-0.410156	
-0.408264	
-0.407532	
-0.405151	
-0.40332	
-0.4021	
-0.401184	
-0.398438	
-0.397522	
-0.395691	
-0.393127	
-0.391296	
-0.389282	
-0.389343	
-0.389893	
-0.388489	
-0.387817	
-0.38739	
-0.385803	
-0.385803	
-0.385071	
-0.38501	
-0.383484	
-0.381775	
-0.380676	
-0.379578	
-0.378357	
-0.377808	
-0.376343	
-0.374695	
-0.373474	
-0.372375	
-0.372253	
-0.371704	
-0.37085	
-0.370239	
-0.369263	
-0.368286	
-0.368958	
-0.367676	
-0.36792	
-0.36731	
-0.36676	
-0.365845	
-0.365051	
-0.365051	
-0.364441	
-0.363525	
-0.361938	
-0.360962	
-0.359192	
-0.358704	
-0.359436	
-0.357849	
-0.357361	
-0.356873	
-0.357178	
-0.356262	
-0.356323	
-0.355652	
-0.355469	
-0.355225	
-0.35498	
-0.354309	
-0.355347	
-0.356628	
-0.356445	
-0.357178	
-0.357361	
-0.358215	
-0.359009	
-0.359375	
-0.359924	
-0.360535	
-0.360413	
-0.361633	
-0.361511	
-0.362976	
-0.363525	
-0.364075	
-0.36499	
-0.365295	
-0.36676	
-0.366455	
-0.367249	
-0.367493	
-0.36676	
-0.368225	
-0.368774	
-0.369629	
-0.369568	
-0.369446	
-0.369751	
-0.370972	
-0.3703	
-0.370117	
-0.370667	
-0.370361	
-0.369934	
-0.370056	
-0.370667	
-0.371399	
-0.371033	
-0.371277	
-0.371338	
-0.371826	
-0.371521	
-0.371826	
-0.371765	
-0.371948	
-0.371826	
-0.372131	
-0.371338	
-0.372681	
-0.372803	
-0.37262	
-0.372681	
-0.372375	
-0.37384	
-0.375244	
-0.374451	
-0.374451	
-0.375366	
-0.376587	
-0.375916	
-0.376343	
-0.37738	
-0.377319	
-0.377014	
-0.377319	
-0.377991	
-0.378296	
-0.377869	
-0.378296	
-0.378357	
-0.377197	
-0.37793	
-0.378845	
-0.379639	
-0.379211	
-0.379211	
-0.379578	
-0.380432	
-0.380615	
-0.38031	
-0.380859	
-0.379272	
-0.379822	
-0.380249	
-0.380066	
-0.380249	
-0.380676	
-0.380859	
-0.380981	
-0.381042	
-0.382507	
-0.382446	
-0.382446	
-0.38208	
-0.382813	
-0.381165	
-0.38208	
-0.382385	
-0.38269	
-0.382019	
-0.38147	
-0.381226	
-0.381714	
-0.381348	
-0.381592	
-0.381775	
-0.381042	
-0.38031	
-0.380432	
-0.379822	
-0.380188	
-0.380676	
-0.380615	
-0.381104	
-0.380981	
-0.382385	
-0.38324	
-0.382263	
-0.382935	
-0.382996	
-0.382507	
-0.382629	
-0.382874	
-0.384033	
-0.384583	
-0.384644	
-0.384521	
-0.385132	
-0.385925	
-0.385559	
-0.386414	
-0.385193	
-0.385132	
-0.385986	
-0.385315	
-0.385742	
-0.38623	
-0.385864	
-0.386719	
-0.386475	
-0.387817	
-0.387085	
-0.38739	
-0.387451	
-0.387085	
-0.386902	
-0.387024	
-0.38739	
-0.388306	
-0.388	
-0.388489	
-0.388184	
-0.38739	
-0.388672	
-0.388672	
-0.388733	
-0.388489	
-0.387695	
-0.388123	
-0.387451	
-0.387512	
-0.388672	
-0.389099	
-0.389465	
-0.388672	
-0.390381	
-0.390076	
-0.389832	
-0.390015	
-0.389099	
-0.388916	
-0.388794	
-0.387817	
-0.388794	
-0.389282	
-0.389038	
-0.388245	
-0.388123	
-0.390015	
-0.389282	
-0.389526	
-0.389648	
-0.388733	
-0.389221	
-0.389221	
-0.38916	
-0.389954	
-0.389404	
-0.388977	
-0.389587	
-0.389648	
-0.390442	
-0.390015	
-0.390442	
-0.389893	
-0.389282	
-0.389771	
-0.38916	
-0.388977	
-0.389587	
-0.389709	
-0.389343	
-0.389343	
-0.390076	
-0.389038	
-0.388733	
-0.389587	
-0.388916	
-0.388733	
-0.388	
-0.387695	
-0.388245	
-0.387573	
-0.386902	
-0.386963	
-0.38678	
-0.387085	
-0.386353	
-0.387085	
-0.385437	
-0.386353	
-0.386719	
-0.38623	
-0.386841	
-0.387329	
-0.387146	
-0.386963	
-0.386963	
-0.388123	
-0.38739	
-0.387451	
-0.388	
-0.387573	
-0.387756	
-0.387329	
-0.388123	
-0.388367	
-0.388123	
-0.387756	
-0.388245	
-0.388428	
-0.389282	
-0.388245	
-0.388611	
-0.388733	
-0.389404	
-0.389526	
-0.389343	
-0.390259	
-0.390259	
-0.390991	
-0.39093	
-0.390442	
-0.390503	
-0.391418	
-0.390991	
-0.391479	
-0.390503	
-0.392029	
-0.391357	
-0.390503	
-0.391357	
-0.391052	
-0.392029	
-0.392212	
-0.391357	
-0.392517	
-0.392029	
-0.392029	
-0.391846	
-0.392456	
-0.393066	
-0.391907	
-0.392212	
-0.392334	
-0.39209	
-0.392151	
-0.391724	
-0.391602	
-0.392822	
-0.392273	
-0.39209	
-0.390442	
-0.39093	
-0.389526	
-0.388794	
-0.390259	
-0.389709	
-0.389709	
-0.389282	
-0.389771	
-0.390381	
-0.389282	
-0.389099	
-0.389526	
-0.386719	
-0.389343	
-0.388428	
-0.388367	
-0.38855	
-0.387634	
-0.388367	
-0.388794	
-0.38855	
-0.39093	
-0.389282	
-0.389587	
-0.38916	
-0.388916	
-0.389893	
-0.388977	
-0.389221	
-0.389648	
-0.389099	
-0.389099	
-0.389282	
-0.389832	
-0.390991	
-0.389893	
-0.391663	
-0.389893	
-0.391479	
-0.390625	
-0.390625	
-0.392029	
-0.392151	
-0.391846	
-0.392639	
-0.392761	
-0.393555	
-0.393372	
-0.393677	
-0.393005	
-0.392456	
-0.393799	
-0.393555	
-0.393982	
-0.394104	
-0.393433	
-0.394409	
-0.394226	
-0.394409	
-0.395142	
-0.394409	
-0.394958	
-0.393433	
-0.392822	
-0.393555	
-0.392456	
-0.39325	
-0.394165	
-0.393494	
-0.393005	
-0.392273	
-0.393311	
-0.393066	
-0.392517	
-0.392944	
-0.391663	
-0.392578	
-0.392761	
-0.392944	
-0.393433	
-0.392334	
-0.392883	
-0.392944	
-0.393127	
-0.393799	
-0.393188	
-0.393311	
-0.393188	
-0.393188	
-0.393982	
-0.39209	
-0.392944	
-0.393555	
-0.392029	
-0.393433	
-0.3927	
-0.393188	
-0.394104	
-0.393616	
-0.39386	
-0.39325	
-0.393311	
-0.393616	
-0.3927	
-0.393982	
-0.393799	
-0.393005	
-0.392334	
-0.392334	
-0.392822	
-0.393005	
-0.391724	
-0.39209	
-0.390259	
-0.390442	
-0.391418	
-0.391785	
-0.391052	
-0.390869	
-0.391418	
-0.391602	
-0.390808	
-0.39209	
-0.391846	
-0.39093	
-0.390564	
-0.39093	
-0.391235	
-0.390137	
-0.390686	
-0.391541	
-0.389282	
-0.390198	
-0.390564	
-0.389771	
-0.391235	
-0.391052	
-0.390625	
-0.389587	
-0.390503	
-0.391052	
-0.389648	
-0.390564	
-0.390442	
-0.390076	
-0.390381	
-0.390076	
-0.391418	
-0.390808	
-0.391113	
-0.391724	
-0.390442	
-0.392151	
-0.392334	
-0.391418	
-0.39325	
-0.392517	
-0.393372	
-0.39325	
-0.393311	
-0.394287	
-0.394653	
-0.393982	
-0.394775	
-0.394226	
-0.394287	
-0.393677	
-0.393677	
-0.394348	
-0.393188	
-0.393188	
-0.393066	
-0.393372	
-0.392822	
-0.39325	
-0.392456	
-0.390991	
-0.391174	
-0.392029	
-0.390137	
-0.391418	
-0.390442	
-0.389832	
-0.389954	
-0.389404	
-0.390747	
-0.390686	
-0.39032	
-0.390747	
-0.388306	
-0.389709	
-0.390198	
-0.389343	
-0.389282	
-0.388794	
-0.389099	
-0.38855	
-0.388611	
-0.388977	
-0.388733	
-0.38855	
-0.388184	
-0.387634	
-0.388062	
-0.387512	
-0.387939	
-0.387329	
-0.387268	
-0.387451	
-0.386719	
-0.387756	
-0.387268	
-0.387756	
-0.387146	
-0.385986	
-0.386108	
-0.386597	
-0.385193	
-0.385315	
-0.385132	
-0.384216	
-0.385437	
-0.385132	
-0.385559	
-0.385193	
-0.385315	
-0.385437	
-0.383606	
-0.383728	
-0.384521	
-0.384094	
-0.384155	
-0.383179	
-0.382324	
-0.383118	
-0.383423	
-0.383911	
-0.383423	
-0.382874	
-0.382751	
-0.381836	
-0.381226	
-0.382629	
-0.382202	
-0.381897	
-0.38147	
-0.381104	
-0.380371	
-0.381409	
-0.381958	
-0.381775	
-0.381348	
-0.381897	
-0.381592	
-0.382385	
-0.382324	
-0.38324	
-0.382446	
-0.382996	
-0.383301	
-0.382996	
-0.384644	
-0.384216	
-0.384705	
-0.385559	
-0.38385	
-0.384949	
-0.385559	
-0.384583	
-0.385986	
-0.385742	
-0.385193	
-0.385315	
-0.384949	
-0.386414	
-0.386536	
-0.386047	
-0.385925	
-0.385559	
-0.385193	
-0.386292	
-0.385803	
-0.385742	
-0.385559	
-0.384521	
-0.385498	
-0.38562	
-0.386169	
-0.386536	
-0.385559	
-0.385254	
-0.385254	
-0.385559	
-0.385681	
-0.384949	
-0.384094	
-0.383911	
-0.383667	
-0.383606	
-0.38446	
-0.383301	
-0.383057	
-0.383484	
-0.382019	
-0.382813	
-0.38324	
-0.381714	
-0.382385	
-0.381836	
-0.381836	
-0.381409	
-0.381104	
-0.382751	
-0.382446	
-0.382019	
-0.382263	
-0.382324	
-0.380981	
-0.382935	
-0.38208	
-0.382813	
-0.38208	
-0.381104	
-0.382751	
-0.382324	
-0.383423	
-0.384277	
-0.383728	
-0.383179	
-0.383057	
-0.383423	
-0.384949	
-0.385132	
-0.385254	
-0.385071	
-0.385498	
-0.385742	
-0.386719	
-0.38623	
-0.387024	
-0.386536	
-0.385742	
-0.386536	
-0.387024	
-0.386719	
-0.38739	
-0.387207	
-0.386536	
-0.386841	
-0.387268	
-0.388367	
-0.387207	
-0.386841	
-0.387329	
-0.386292	
-0.386169	
-0.387146	
-0.385315	
-0.387085	
-0.38623	
-0.385376	
-0.385376	
-0.385559	
-0.386536	
-0.387024	
-0.385559	
-0.385376	
-0.384949	
-0.384644	
-0.385254	
-0.38446	
-0.384705	
-0.384277	
-0.383606	
-0.383301	
-0.383362	
-0.383179	
-0.383423	
-0.382874	
-0.38269	
-0.382263	
-0.382507	
-0.38208	
-0.383057	
-0.382324	
-0.381226	
-0.381592	
-0.380859	
-0.382263	
-0.382019	
-0.381836	
-0.382324	
-0.380493	
-0.381714	
-0.382629	
-0.381287	
-0.383545	
-0.382935	
-0.382568	
-0.382568	
-0.38269	
-0.38385	
-0.384033	
-0.38385	
-0.383789	
-0.382996	
-0.384094	
-0.384094	
-0.382568	
-0.383301	
-0.383057	
-0.381531	
-0.382568	
-0.382996	
-0.382996	
-0.382813	
-0.382751	
-0.382019	
-0.381531	
-0.38208	
-0.382874	
-0.381836	
-0.382141	
-0.382019	
-0.38147	
-0.381348	
-0.382507	
-0.382507	
-0.381958	
-0.381775	
-0.380737	
-0.380371	
-0.382202	
-0.381226	
-0.381958	
-0.381226	
-0.381409	
-0.381531	
-0.381714	
-0.383179	
-0.383545	
-0.382751	
-0.383301	
-0.383301	
-0.38324	
-0.383606	
-0.383179	
-0.384216	
-0.383362	
-0.382629	
-0.383728	
-0.383911	
-0.38385	
-0.38385	
-0.384094	
-0.38385	
-0.383423	
-0.384094	
-0.384766	
-0.383179	
-0.384338	
-0.383911	
-0.382507	
-0.38385	
-0.38446	
-0.384644	
-0.384094	
-0.384216	
-0.383484	
-0.383118	
-0.384521	
-0.384583	
-0.384338	
-0.384216	
-0.384277	
-0.38446	
-0.383667	
-0.385864	
-0.385498	
-0.384644	
-0.384888	
-0.38446	
-0.384033	
-0.384216	
-0.383484	
-0.383911	
-0.383118	
-0.382141	
-0.382629	
-0.382629	
-0.382874	
-0.382263	
-0.382019	
-0.381897	
-0.382263	
-0.382141	
-0.383301	
-0.382263	
-0.382874	
-0.382385	
-0.381958	
-0.382446	
-0.383545	
-0.382935	
-0.382751	
-0.382813	
-0.383667	
-0.383362	
-0.384033	
-0.384766	
-0.383667	
-0.384155	
-0.384094	
-0.384583	
-0.383667	
-0.385437	
-0.385681	
-0.384644	
-0.384521	
-0.386047	
-0.384888	
-0.386108	
-0.385376	
-0.385193	
-0.38562	
-0.385559	
-0.386292	
-0.386536	
-0.386108	
-0.387207	
-0.386536	
-0.385742	
-0.38678	
-0.386719	
-0.387634	
-0.386658	
-0.386902	
-0.387268	
-0.386169	
-0.387451	
-0.388245	
-0.388306	
-0.388184	
-0.387695	
-0.388245	
-0.388	
-0.388123	
-0.388977	
-0.388733	
-0.388733	
-0.388916	
-0.38855	
-0.388123	
-0.388489	
-0.389465	
-0.388428	
-0.387207	
-0.388489	
-0.38739	
-0.388123	
-0.389221	
-0.388123	
-0.388794	
-0.387939	
-0.388123	
-0.388367	
-0.388428	
-0.38916	
-0.388489	
-0.387634	
-0.389221	
-0.38855	
-0.389038	
-0.389099	
-0.387878	
-0.388611	
-0.38855	
-0.388733	
-0.389404	
-0.389587	
-0.390015	
-0.389038	
-0.389404	
-0.389954	
-0.389282	
-0.389282	
-0.389526	
-0.387451	
-0.388	
-0.388062	
-0.387756	
-0.388245	
-0.388	
-0.387085	
-0.386658	
-0.387573	
-0.386902	
-0.386841	
-0.386963	
-0.387207	
-0.386108	
-0.386597	
-0.385376	
-0.387024	
-0.386353	
-0.387634	
-0.386353	
-0.385864	
-0.386841	
-0.386108	
-0.386658	
-0.387085	
-0.38623	
-0.387268	
-0.386841	
-0.38623	
-0.387695	
-0.387512	
-0.387817	
-0.386963	
-0.387024	
-0.387573	
-0.387695	
-0.387817	
-0.38855	
-0.386169	
-0.38739	
-0.387756	
-0.388062	
-0.388916	
-0.389465	
-0.389465	
-0.389099	
-0.390076	
-0.390198	
-0.390076	
-0.390381	
-0.390808	
-0.390198	
-0.390869	
-0.390747	
-0.391663	
-0.391541	
-0.392029	
-0.391541	
-0.391907	
-0.392151	
-0.391296	
-0.391663	
-0.392212	
-0.391541	
-0.391235	
-0.391724	
-0.39032	
-0.391724	
-0.391357	
-0.392029	
-0.390076	
-0.389893	
-0.39032	
-0.389038	
-0.390564	
-0.390991	
-0.388672	
-0.388977	
-0.388611	
-0.387817	
-0.387817	
-0.387512	
-0.388062	
-0.386169	
-0.386902	
-0.387451	
-0.386658	
-0.387268	
-0.388	
-0.38623	
-0.386169	
-0.386047	
-0.385803	
-0.386597	
-0.387024	
-0.386597	
-0.386719	
-0.38678	
-0.38678	
-0.387024	
-0.387451	
-0.387573	
-0.387268	
-0.387207	
-0.387329	
-0.387878	
-0.388	
-0.388	
-0.387573	
-0.387573	
-0.388489	
-0.387756	
-0.388794	
-0.389709	
-0.387573	
-0.388916	
-0.388977	
-0.388428	
-0.389648	
-0.389648	
-0.390198	
-0.389099	
-0.390625	
-0.391357	
-0.389954	
-0.390808	
-0.392212	
-0.391113	
-0.390747	
-0.391052	
-0.390686	
-0.391479	
-0.391602	
-0.392151	
-0.391846	
-0.39209	
-0.391724	
-0.390808	
-0.392029	
-0.392212	
-0.391357	
-0.391602	
-0.391541	
-0.391235	
-0.390808	
-0.390808	
-0.391052	
-0.390991	
-0.390503	
-0.389893	
-0.389648	
-0.390503	
-0.389648	
-0.390198	
-0.390076	
-0.389282	
-0.390442	
-0.390869	
-0.390564	
-0.390259	
-0.391052	
-0.39093	
-0.390503	
-0.391113	
-0.392456	
-0.391174	
-0.391357	
-0.391052	
-0.391174	
-0.391357	
-0.391785	
-0.391357	
-0.391418	
-0.391846	
-0.391296	
-0.391724	
-0.392212	
-0.392151	
-0.391663	
-0.391968	
-0.391785	
-0.390625	
-0.391968	
-0.392151	
-0.391235	
-0.391174	
-0.391418	
-0.390381	
-0.389954	
-0.390381	
-0.389221	
-0.389648	
-0.389526	
-0.389465	
-0.389404	
-0.389832	
-0.389343	
-0.389343	
-0.389709	
-0.389954	
-0.38916	
-0.388794	
-0.390076	
-0.388428	
-0.388916	
-0.389221	
-0.388489	
-0.388977	
-0.388855	
-0.388916	
-0.388855	
-0.389282	
-0.389404	
-0.389099	
-0.388916	
-0.389893	
-0.388611	
-0.389038	
-0.388733	
-0.388428	
-0.388489	
-0.388611	
-0.38855	
-0.388977	
-0.388733	
-0.388184	
-0.388428	
-0.388977	
-0.389038	
-0.389221	
-0.389404	
-0.389587	
-0.390015	
-0.389954	
-0.390259	
-0.39032	
-0.390991	
-0.390686	
-0.391174	
-0.39032	
-0.391357	
-0.389648	
-0.391113	
-0.39093	
-0.39093	
-0.390747	
-0.391174	
-0.390991	
-0.390869	
-0.390747	
-0.391357	
-0.390259	
-0.389343	
-0.39093	
-0.388916	
-0.388916	
-0.389648	
-0.38739	
-0.38916	
-0.388977	
-0.388733	
-0.389282	
-0.388184	
-0.388062	
-0.387756	
-0.387695	
-0.388977	
-0.387817	
-0.387329	
-0.386963	
-0.387512	
-0.387207	
-0.38678	
-0.38678	
-0.387695	
-0.386963	
-0.386597	
-0.386414	
-0.386902	
-0.386414	
-0.386292	
-0.385986	
-0.38562	
-0.385925	
-0.385376	
-0.385864	
-0.385986	
-0.385559	
-0.386536	
-0.385986	
-0.385864	
-0.386597	
-0.384644	
-0.385071	
-0.384827	
-0.384094	
-0.38446	
-0.384521	
-0.384399	
-0.384766	
-0.385315	
-0.38562	
-0.384644	
-0.384033	
-0.386841	
-0.385193	
-0.38501	
-0.384888	
-0.385193	
-0.385559	
-0.385803	
-0.385071	
-0.384277	
-0.384827	
-0.385071	
-0.384338	
-0.384277	
-0.384949	
-0.384766	
-0.38446	
-0.384155	
-0.384949	
-0.384277	
-0.384155	
-0.384338	
-0.383789	
-0.384949	
-0.384216	
-0.384155	
-0.384827	
-0.382935	
-0.384705	
-0.384583	
-0.383484	
-0.385925	
-0.385193	
-0.384949	
-0.385376	
-0.385315	
-0.386719	
-0.386047	
-0.385925	
-0.387207	
-0.386658	
-0.386658	
-0.386963	
-0.385681	
-0.387634	
-0.386841	
-0.387085	
-0.38678	
-0.387146	
-0.386719	
-0.387024	
-0.38678	
-0.386902	
-0.386169	
-0.387085	
-0.386108	
-0.386719	
-0.386353	
-0.386475	
-0.38623	
-0.386597	
-0.386414	
-0.386597	
-0.386169	
-0.385681	
-0.385986	
-0.385925	
-0.385681	
-0.384827	
-0.386108	
-0.385376	
-0.38501	
-0.384583	
-0.384827	
-0.384705	
-0.384216	
-0.383545	
-0.384399	
-0.382507	
-0.383606	
-0.38324	
-0.380798	
-0.383362	
-0.382751	
-0.382385	
-0.382141	
-0.382019	
-0.383179	
-0.382019	
-0.382141	
-0.383301	
-0.381592	
-0.382385	
-0.382507	
-0.382629	
-0.38324	
-0.382446	
-0.382751	
	
