E:\DOCUMENTS AND SETTINGS\JPOTAS\MEUS DOCUMENTOS\UFRJ\RSCI-BM 12 WK SERIES\070731-RSCI-BM-12\RSCI-BM-12-REMG\070731-RSCI-BM-12-REMG-0001.ACQ
0.025000 msec/sample
1 channel
Analog input
Volts
CH1	
2000	
-0.396606	
-0.398376	
-0.397278	
-0.397278	
-0.396545	
-0.396301	
-0.398865	
-0.397949	
-0.398682	
-0.398193	
-0.396973	
-0.3974	
-0.397888	
-0.398071	
-0.398376	
-0.398499	
-0.397888	
-0.396606	
-0.396545	
-0.394226	
-0.397034	
-0.395935	
-0.396301	
-0.395569	
-0.394531	
-0.395935	
-0.396484	
-0.396179	
-0.39624	
-0.396179	
-0.396362	
-0.395325	
-0.394592	
-0.393127	
-0.395081	
-0.394592	
-0.394287	
-0.393494	
-0.392639	
-0.393555	
-0.392944	
-0.39325	
-0.393188	
-0.3927	
-0.392883	
-0.392029	
-0.391785	
-0.391174	
-0.391663	
-0.391602	
-0.391663	
-0.391541	
-0.391357	
-0.391235	
-0.391235	
-0.392212	
-0.392578	
-0.392151	
-0.39209	
-0.391479	
-0.391357	
-0.391724	
-0.390991	
-0.391602	
-0.391724	
-0.392334	
-0.392578	
-0.392822	
-0.392822	
-0.394226	
-0.393982	
-0.393799	
-0.394165	
-0.392578	
-0.393066	
-0.394592	
-0.392822	
-0.39386	
-0.393494	
-0.392883	
-0.394836	
-0.394531	
-0.394531	
-0.394897	
-0.395508	
-0.394531	
-0.39502	
-0.393311	
-0.392944	
-0.394287	
-0.393005	
-0.393494	
-0.393677	
-0.392212	
-0.393616	
-0.39325	
-0.393372	
-0.393005	
-0.394653	
-0.392517	
-0.392578	
-0.391724	
-0.390381	
-0.39209	
-0.390442	
-0.391785	
-0.391357	
-0.390869	
-0.391846	
-0.391541	
-0.392334	
-0.391968	
-0.392517	
-0.391785	
-0.391663	
-0.391296	
-0.390198	
-0.391357	
-0.390869	
-0.391357	
-0.391418	
-0.390625	
-0.391296	
-0.391357	
-0.392517	
-0.392517	
-0.391602	
-0.391724	
-0.391418	
-0.391724	
-0.390259	
-0.391724	
-0.391724	
-0.392151	
-0.392212	
-0.39209	
-0.393188	
-0.39386	
-0.394836	
-0.395813	
-0.394897	
-0.395996	
-0.394653	
-0.395447	
-0.395874	
-0.396118	
-0.396179	
-0.396301	
-0.396606	
-0.396912	
-0.396667	
-0.397888	
-0.398499	
-0.398376	
-0.397461	
-0.398193	
-0.39624	
-0.396118	
-0.397583	
-0.397156	
-0.397034	
-0.396912	
-0.396484	
-0.396851	
-0.396973	
-0.396973	
-0.397339	
-0.397461	
-0.396667	
-0.397217	
-0.396057	
-0.395325	
-0.397217	
-0.396179	
-0.396545	
-0.395935	
-0.395508	
-0.395752	
-0.396057	
-0.395447	
-0.395508	
-0.395752	
-0.394592	
-0.39447	
-0.392944	
-0.391357	
-0.392578	
-0.390381	
-0.390686	
-0.389832	
-0.388977	
-0.38916	
-0.389587	
-0.390137	
-0.389526	
-0.389893	
-0.38916	
-0.388306	
-0.382019	
-0.381592	
-0.38269	
-0.380981	
-0.382324	
-0.384216	
-0.388367	
-0.390076	
-0.390503	
-0.392029	
-0.391724	
-0.391235	
-0.391479	
-0.391907	
-0.391357	
-0.392456	
-0.392151	
-0.391724	
-0.392822	
-0.392639	
-0.392456	
-0.393188	
-0.393066	
-0.393921	
-0.39447	
-0.393677	
-0.393311	
-0.392334	
-0.392944	
-0.39325	
-0.392822	
-0.39325	
-0.393433	
-0.392761	
-0.393066	
-0.393494	
-0.393433	
-0.393799	
-0.394592	
-0.393188	
-0.39386	
-0.393005	
-0.392029	
-0.393921	
-0.393372	
-0.392761	
-0.392517	
-0.392029	
-0.392822	
-0.392578	
-0.392456	
-0.392639	
-0.394226	
-0.392578	
-0.393005	
-0.391785	
-0.389709	
-0.392273	
-0.391602	
-0.390991	
-0.39093	
-0.390015	
-0.391052	
-0.390991	
-0.391846	
-0.391296	
-0.391968	
-0.390747	
-0.390808	
-0.390259	
-0.389465	
-0.39093	
-0.389648	
-0.391113	
-0.390625	
-0.390137	
-0.39093	
-0.39093	
-0.391785	
-0.39209	
-0.392578	
-0.392517	
-0.392578	
-0.393311	
-0.392944	
-0.393982	
-0.394653	
-0.39624	
-0.396484	
-0.397705	
-0.398438	
-0.400024	
-0.401062	
-0.402771	
-0.403076	
-0.404297	
-0.404236	
-0.405823	
-0.40863	
-0.408264	
-0.409424	
-0.411011	
-0.411621	
-0.413696	
-0.414673	
-0.417297	
-0.418518	
-0.419678	
-0.420349	
-0.419983	
-0.421387	
-0.421997	
-0.421814	
-0.422485	
-0.422974	
-0.423279	
-0.424133	
-0.424744	
-0.425842	
-0.425171	
-0.425842	
-0.425049	
-0.424255	
-0.423523	
-0.423401	
-0.423828	
-0.423401	
-0.423645	
-0.423523	
-0.4245	
-0.425659	
-0.427124	
-0.427063	
-0.428528	
-0.427185	
-0.426758	
-0.427124	
-0.426331	
-0.427612	
-0.42688	
-0.42749	
-0.427795	
-0.42865	
-0.429138	
-0.430115	
-0.431641	
-0.431885	
-0.431396	
-0.431519	
-0.4328	
-0.433594	
-0.435486	
-0.435974	
-0.436279	
-0.438354	
-0.439697	
-0.440491	
-0.441467	
-0.44281	
-0.442688	
-0.444336	
-0.443726	
-0.443298	
-0.443848	
-0.4422	
-0.443726	
-0.443848	
-0.444824	
-0.444275	
-0.443848	
-0.445068	
-0.445557	
-0.445679	
-0.446838	
-0.446228	
-0.445618	
-0.445557	
-0.444031	
-0.443848	
-0.441833	
-0.439697	
-0.43927	
-0.437744	
-0.436401	
-0.43512	
-0.434326	
-0.431519	
-0.43158	
-0.427856	
-0.426025	
-0.424194	
-0.421814	
-0.420715	
-0.417725	
-0.415039	
-0.413208	
-0.410156	
-0.408203	
-0.405701	
-0.403564	
-0.400879	
-0.399353	
-0.395691	
-0.392517	
-0.390015	
-0.386108	
-0.387024	
-0.38501	
-0.383789	
-0.38269	
-0.380371	
-0.380737	
-0.379639	
-0.379028	
-0.377808	
-0.377197	
-0.375977	
-0.375549	
-0.37384	
-0.372131	
-0.372314	
-0.371338	
-0.370422	
-0.369324	
-0.368774	
-0.368713	
-0.369507	
-0.368103	
-0.368774	
-0.367859	
-0.367676	
-0.368103	
-0.366821	
-0.368286	
-0.367126	
-0.365417	
-0.36499	
-0.363525	
-0.36322	
-0.362976	
-0.362	
-0.361328	
-0.360596	
-0.359253	
-0.358643	
-0.356995	
-0.35675	
-0.355957	
-0.355103	
-0.355103	
-0.355042	
-0.35553	
-0.355652	
-0.356934	
-0.356567	
-0.358093	
-0.357483	
-0.356934	
-0.358032	
-0.357727	
-0.35968	
-0.360291	
-0.361084	
-0.361877	
-0.362915	
-0.363953	
-0.364685	
-0.365173	
-0.366821	
-0.366028	
-0.366028	
-0.36615	
-0.365723	
-0.367493	
-0.366577	
-0.366577	
-0.36676	
-0.366333	
-0.36676	
-0.367493	
-0.36731	
-0.368652	
-0.367615	
-0.367737	
-0.368408	
-0.367676	
-0.369385	
-0.368713	
-0.368713	
-0.368958	
-0.368774	
-0.36969	
-0.369873	
-0.369812	
-0.371094	
-0.370972	
-0.370117	
-0.37085	
-0.370911	
-0.371582	
-0.370911	
-0.370056	
-0.371216	
-0.370544	
-0.372131	
-0.372253	
-0.372681	
-0.373108	
-0.37384	
-0.373108	
-0.372925	
-0.373657	
-0.373718	
-0.374084	
-0.37384	
-0.375122	
-0.374634	
-0.37677	
-0.377441	
-0.378967	
-0.378845	
-0.380737	
-0.380005	
-0.380432	
-0.381287	
-0.381653	
-0.382263	
-0.381897	
-0.38269	
-0.382813	
-0.382935	
-0.383179	
-0.383667	
-0.383484	
-0.384644	
-0.383728	
-0.384338	
-0.383911	
-0.383789	
-0.383789	
-0.383301	
-0.382996	
-0.383789	
-0.383362	
-0.38324	
-0.382813	
-0.382996	
-0.382629	
-0.383667	
-0.381653	
-0.381042	
-0.381592	
-0.380737	
-0.381592	
-0.381592	
-0.381409	
-0.38147	
-0.382141	
-0.382141	
-0.382813	
-0.382568	
-0.383179	
-0.382996	
-0.382935	
-0.383362	
-0.382751	
-0.382568	
-0.382996	
-0.38208	
-0.383423	
-0.382263	
-0.383484	
-0.383667	
-0.384949	
-0.383789	
-0.385681	
-0.384094	
-0.384705	
-0.38446	
-0.384277	
-0.384888	
-0.384766	
-0.384949	
-0.385193	
-0.385376	
-0.385315	
-0.385498	
-0.386169	
-0.386353	
-0.386841	
-0.386963	
-0.386658	
-0.386658	
-0.386658	
-0.388	
-0.387085	
-0.389038	
-0.387695	
-0.389282	
-0.389771	
-0.390076	
-0.389771	
-0.390503	
-0.390259	
-0.389771	
-0.390015	
-0.389526	
-0.389954	
-0.389954	
-0.389587	
-0.389648	
-0.389526	
-0.389099	
-0.388855	
-0.389038	
-0.388062	
-0.388062	
-0.387146	
-0.385559	
-0.38501	
-0.385071	
-0.384888	
-0.384521	
-0.384338	
-0.383606	
-0.38385	
-0.383911	
-0.384155	
-0.384399	
-0.384949	
-0.383667	
-0.384155	
-0.385071	
-0.384766	
-0.385254	
-0.385376	
-0.384766	
-0.385315	
-0.385925	
-0.386475	
-0.38623	
-0.386719	
-0.38678	
-0.387146	
-0.386475	
-0.386169	
-0.387329	
-0.38623	
-0.386902	
-0.386597	
-0.385315	
-0.385925	
-0.386841	
-0.386963	
-0.387268	
-0.388489	
-0.388916	
-0.387817	
-0.388062	
-0.388062	
-0.387939	
-0.388794	
-0.389221	
-0.389709	
-0.389465	
-0.391174	
-0.391724	
-0.392639	
-0.393494	
-0.39386	
-0.395203	
-0.394653	
-0.394958	
-0.395691	
-0.396057	
-0.396118	
-0.396179	
-0.395691	
-0.394043	
-0.395935	
-0.395569	
-0.395447	
-0.396301	
-0.396667	
-0.394836	
-0.394287	
-0.393494	
-0.393799	
-0.394165	
-0.394165	
-0.393982	
-0.393066	
-0.393616	
-0.393372	
-0.393494	
-0.39386	
-0.393738	
-0.394653	
-0.393555	
-0.392944	
-0.393188	
-0.393555	
-0.393555	
-0.393066	
-0.393372	
-0.391174	
-0.392395	
-0.391663	
-0.391663	
-0.392334	
-0.392334	
-0.391235	
-0.390686	
-0.390076	
-0.390259	
-0.391357	
-0.390442	
-0.390015	
-0.389954	
-0.389587	
-0.390015	
-0.390137	
-0.390503	
-0.391724	
-0.391907	
-0.39032	
-0.390442	
-0.389526	
-0.389282	
-0.390991	
-0.390747	
-0.390625	
-0.390137	
-0.389526	
-0.391296	
-0.392029	
-0.392334	
-0.393188	
-0.393677	
-0.392456	
-0.392395	
-0.391724	
-0.391846	
-0.39325	
-0.393005	
-0.393188	
-0.391785	
-0.392639	
-0.393066	
-0.393066	
-0.39386	
-0.393921	
-0.393799	
-0.393127	
-0.393372	
-0.393677	
-0.392761	
-0.393433	
-0.39386	
-0.393005	
-0.392944	
-0.392212	
-0.393066	
-0.393066	
-0.393555	
-0.393982	
-0.392273	
-0.392456	
-0.391785	
-0.391602	
-0.392456	
-0.391724	
-0.391479	
-0.39093	
-0.391541	
-0.391785	
-0.392212	
-0.391968	
-0.392578	
-0.392578	
-0.391785	
-0.391296	
-0.390564	
-0.391479	
-0.392944	
-0.391724	
-0.391479	
-0.391113	
-0.391052	
-0.391418	
-0.391418	
-0.391846	
-0.392456	
-0.392456	
-0.391785	
-0.391663	
-0.392273	
-0.391174	
-0.392883	
-0.392944	
-0.392212	
-0.392517	
-0.391602	
-0.392944	
-0.39325	
-0.394531	
-0.393555	
-0.394104	
-0.39447	
-0.39386	
-0.395996	
-0.395935	
-0.395874	
-0.395935	
-0.394714	
-0.396301	
-0.396545	
-0.397034	
-0.397522	
-0.398193	
-0.397888	
-0.397339	
-0.396973	
-0.396423	
-0.397217	
-0.398193	
-0.397217	
-0.396912	
-0.397156	
-0.396423	
-0.397156	
-0.396973	
-0.39801	
-0.397217	
-0.397766	
-0.396545	
-0.395874	
-0.396912	
-0.396057	
-0.396851	
-0.396912	
-0.395935	
-0.396606	
-0.396057	
-0.395691	
-0.396301	
-0.39624	
-0.395325	
-0.395325	
-0.39502	
-0.394714	
-0.395325	
-0.393982	
-0.393311	
-0.392334	
-0.390564	
-0.390991	
-0.390747	
-0.390442	
-0.391479	
-0.390686	
-0.389893	
-0.389343	
-0.388916	
-0.389221	
-0.389648	
-0.390259	
-0.389587	
-0.389832	
-0.388611	
-0.389221	
-0.390625	
-0.390137	
-0.391052	
-0.39093	
-0.391235	
-0.390442	
-0.390198	
-0.390442	
-0.390808	
-0.391968	
-0.391907	
-0.392029	
-0.392334	
-0.391235	
-0.392578	
-0.393372	
-0.392822	
-0.393127	
-0.3927	
-0.39209	
-0.391602	
-0.391968	
-0.3927	
-0.392761	
-0.3927	
-0.392273	
-0.392151	
-0.392578	
-0.392334	
-0.393127	
-0.392151	
-0.393127	
-0.392334	
-0.391357	
-0.392639	
-0.393005	
-0.393005	
-0.392151	
-0.392639	
-0.391724	
-0.392395	
-0.3927	
-0.392334	
-0.392456	
-0.392578	
-0.392944	
-0.392029	
-0.392456	
-0.39209	
-0.391968	
-0.392395	
-0.391418	
-0.391785	
-0.391785	
-0.390991	
-0.391052	
-0.391663	
-0.391418	
-0.391663	
-0.391663	
-0.390503	
-0.390686	
-0.391968	
-0.389893	
-0.391724	
-0.390442	
-0.389893	
-0.390381	
-0.390076	
-0.391235	
-0.391907	
-0.391113	
-0.392761	
-0.391724	
-0.390503	
-0.392761	
-0.392334	
-0.391785	
-0.393616	
-0.393677	
-0.394104	
-0.394592	
-0.394165	
-0.394897	
-0.395691	
-0.395325	
-0.396484	
-0.395874	
-0.395691	
-0.396729	
-0.394897	
-0.395691	
-0.395996	
-0.395386	
-0.395264	
-0.394775	
-0.395447	
-0.395325	
-0.395081	
-0.394958	
-0.395081	
-0.394592	
-0.394165	
-0.394775	
-0.392639	
-0.394958	
-0.393982	
-0.39325	
-0.393738	
-0.393372	
-0.394043	
-0.394775	
-0.393433	
-0.393738	
-0.393677	
-0.392883	
-0.392883	
-0.392456	
-0.392029	
-0.392822	
-0.391602	
-0.390259	
-0.391602	
-0.390015	
-0.390625	
-0.390991	
-0.389893	
-0.390076	
-0.388489	
-0.38623	
-0.38678	
-0.385315	
-0.384583	
-0.384399	
-0.38446	
-0.383179	
-0.384155	
-0.384521	
-0.38446	
-0.384827	
-0.38446	
-0.384949	
-0.384399	
-0.383179	
-0.384399	
-0.384216	
-0.385071	
-0.384521	
-0.385132	
-0.384827	
-0.385132	
-0.385498	
-0.385803	
-0.38562	
-0.386414	
-0.386414	
-0.385559	
-0.385925	
-0.386169	
-0.385742	
-0.387085	
-0.385925	
-0.385315	
-0.386353	
-0.385254	
-0.386902	
-0.387634	
-0.387329	
-0.388489	
-0.389038	
-0.387939	
-0.389038	
-0.388855	
-0.388794	
-0.389709	
-0.389038	
-0.388123	
-0.389282	
-0.388977	
-0.389893	
-0.390442	
-0.390381	
-0.390198	
-0.390503	
-0.389404	
-0.390198	
-0.390869	
-0.390015	
-0.390503	
-0.390259	
-0.389038	
-0.390503	
-0.390564	
-0.390747	
-0.39032	
-0.390442	
-0.389526	
-0.389526	
-0.389221	
-0.388916	
-0.388916	
-0.388916	
-0.388245	
-0.388	
-0.387024	
-0.387207	
-0.387512	
-0.388428	
-0.387756	
-0.388977	
-0.388367	
-0.38623	
-0.387817	
-0.387085	
-0.387085	
-0.387817	
-0.387024	
-0.387024	
-0.386292	
-0.386658	
-0.387695	
-0.387756	
-0.387878	
-0.388855	
-0.38855	
-0.38739	
-0.388489	
-0.388489	
-0.389343	
-0.389099	
-0.389465	
-0.389648	
-0.389893	
-0.389343	
-0.39032	
-0.389954	
-0.390381	
-0.390808	
-0.389954	
-0.390137	
-0.390076	
-0.390198	
-0.390686	
-0.390015	
-0.389893	
-0.389282	
-0.389709	
-0.389954	
-0.390686	
-0.390442	
-0.390808	
-0.390564	
-0.389771	
-0.389648	
-0.388916	
-0.390198	
-0.390137	
-0.388916	
-0.38916	
-0.388672	
-0.389404	
-0.388977	
-0.390259	
-0.389709	
-0.389954	
-0.388672	
-0.387878	
-0.388306	
-0.38678	
-0.38855	
-0.387878	
-0.386169	
-0.386047	
-0.384827	
-0.38501	
-0.385681	
-0.385803	
-0.385193	
-0.385864	
-0.38446	
-0.383667	
-0.383911	
-0.383118	
-0.384094	
-0.384521	
-0.383606	
-0.383179	
-0.383423	
-0.383362	
-0.384338	
-0.384216	
-0.384766	
-0.384338	
-0.38385	
-0.384399	
-0.384216	
-0.385193	
-0.384155	
-0.385071	
-0.384644	
-0.384033	
-0.384399	
-0.384033	
-0.385437	
-0.385925	
-0.386841	
-0.385559	
-0.38501	
-0.38562	
-0.385193	
-0.386292	
-0.386536	
-0.387268	
-0.387146	
-0.387573	
-0.388245	
-0.388794	
-0.390686	
-0.390442	
-0.391846	
-0.391357	
-0.391968	
-0.391907	
-0.391174	
-0.392578	
-0.39325	
-0.39209	
-0.392212	
-0.391968	
-0.391846	
-0.391968	
-0.392944	
-0.392761	
-0.392883	
-0.391724	
-0.390991	
-0.391174	
-0.391785	
-0.391846	
-0.392517	
-0.390259	
-0.389404	
-0.390442	
-0.389099	
-0.389404	
-0.389709	
-0.389771	
-0.389771	
-0.388977	
-0.387695	
-0.387878	
-0.38855	
-0.388916	
-0.38855	
-0.388	
-0.387634	
-0.388733	
-0.388245	
-0.388794	
-0.388855	
-0.390015	
-0.388367	
-0.388306	
-0.387878	
-0.386963	
-0.387939	
-0.388489	
-0.388123	
-0.388306	
-0.388245	
-0.387939	
-0.388245	
-0.389221	
-0.388977	
-0.389893	
-0.38916	
-0.389038	
-0.389099	
-0.390198	
-0.389587	
-0.390015	
-0.389404	
-0.388672	
-0.389465	
-0.388245	
-0.389771	
-0.391174	
-0.391479	
-0.390076	
-0.390198	
-0.389771	
-0.389648	
-0.391052	
-0.390503	
-0.390747	
-0.390442	
-0.389282	
-0.390381	
-0.389526	
-0.391052	
-0.391724	
-0.392151	
-0.390564	
-0.39032	
-0.388855	
-0.389526	
-0.390137	
-0.390625	
-0.390442	
-0.389221	
-0.388184	
-0.388977	
-0.387024	
-0.388611	
-0.388611	
-0.387756	
-0.386719	
-0.386414	
-0.38501	
-0.385681	
-0.385925	
-0.385986	
-0.386658	
-0.385559	
-0.385376	
-0.385742	
-0.38562	
-0.386292	
-0.387573	
-0.386414	
-0.387024	
-0.386108	
-0.385803	
-0.388	
-0.387512	
-0.387634	
-0.388	
-0.387024	
-0.387207	
-0.387695	
-0.387329	
-0.388123	
-0.388672	
-0.387695	
-0.387634	
-0.387329	
-0.38678	
-0.389221	
-0.388611	
-0.388916	
-0.388916	
-0.388428	
-0.389771	
-0.389832	
-0.390198	
-0.391296	
-0.391724	
-0.39093	
-0.391357	
-0.390991	
-0.392151	
-0.39386	
-0.394165	
-0.395752	
-0.395447	
-0.395386	
-0.396545	
-0.396606	
-0.397705	
-0.399658	
-0.398926	
-0.398071	
-0.39856	
-0.396973	
-0.397217	
-0.39801	
-0.397339	
-0.398438	
-0.3974	
-0.397644	
-0.396912	
-0.396423	
-0.397278	
-0.397827	
-0.396606	
-0.396057	
-0.395996	
-0.394897	
-0.395264	
-0.395813	
-0.396057	
-0.396606	
-0.394653	
-0.395081	
-0.395813	
-0.39502	
-0.396851	
-0.396545	
-0.395935	
-0.395264	
-0.394348	
-0.393799	
-0.39447	
-0.393494	
-0.393738	
-0.393616	
-0.391846	
-0.392517	
-0.392639	
-0.391602	
-0.393494	
-0.393188	
-0.391907	
-0.391785	
-0.390686	
-0.391785	
-0.391846	
-0.391541	
-0.391724	
-0.391724	
-0.391052	
-0.391174	
-0.391602	
-0.391907	
-0.392822	
-0.392334	
-0.391907	
-0.391602	
-0.391235	
-0.391968	
-0.392578	
-0.3927	
-0.393005	
-0.393372	
-0.393555	
-0.393616	
-0.39386	
-0.394897	
-0.395325	
-0.394226	
-0.393616	
-0.393433	
-0.393494	
-0.394409	
-0.39386	
-0.394287	
-0.39502	
-0.393433	
-0.394165	
-0.394226	
-0.394043	
-0.395203	
-0.395386	
-0.394409	
-0.394043	
-0.393188	
-0.392944	
-0.39386	
-0.393921	
-0.393616	
-0.393799	
-0.393372	
-0.393127	
-0.392883	
-0.392212	
-0.393066	
-0.393433	
-0.391296	
-0.391479	
-0.391174	
-0.390564	
-0.391479	
-0.391724	
-0.39209	
-0.391785	
-0.391968	
-0.392395	
-0.391541	
-0.391113	
-0.391785	
-0.393005	
-0.391479	
-0.391113	
-0.391235	
-0.391113	
-0.391174	
-0.391296	
-0.391418	
-0.391113	
-0.391418	
-0.391541	
-0.391541	
-0.391541	
-0.392273	
-0.392395	
-0.39209	
-0.392273	
-0.391846	
-0.391602	
-0.392395	
-0.3927	
-0.392944	
-0.393616	
-0.393982	
-0.394348	
-0.395142	
-0.396301	
-0.396606	
-0.395996	
-0.39624	
-0.395874	
-0.395874	
-0.39679	
-0.396973	
-0.396912	
-0.397522	
-0.397766	
-0.397583	
-0.397217	
-0.396973	
-0.398132	
-0.398254	
-0.396912	
-0.396973	
-0.396423	
-0.396729	
-0.396729	
-0.397461	
-0.39679	
-0.396545	
-0.39679	
-0.396301	
-0.396667	
-0.396118	
-0.397034	
-0.397217	
-0.396606	
-0.396118	
-0.395935	
-0.394653	
-0.395874	
-0.395569	
-0.395386	
-0.394897	
-0.395142	
-0.394836	
-0.394165	
-0.394226	
-0.393616	
-0.393188	
-0.391785	
-0.390625	
-0.390503	
-0.389893	
-0.390076	
-0.38916	
-0.389526	
-0.388489	
-0.389221	
-0.389282	
-0.389526	
-0.390076	
-0.390015	
-0.389404	
-0.388977	
-0.388245	
-0.390076	
-0.389526	
-0.390198	
-0.389587	
-0.390503	
-0.390137	
-0.390686	
-0.390869	
-0.39093	
-0.391418	
-0.393005	
-0.391968	
-0.391418	
-0.391968	
-0.392334	
-0.392822	
-0.3927	
-0.392456	
-0.392517	
-0.392639	
-0.3927	
-0.392639	
-0.392395	
-0.393005	
-0.394287	
-0.393066	
-0.392639	
-0.393188	
-0.391357	
-0.393005	
-0.393005	
-0.393188	
-0.393677	
-0.392944	
-0.392944	
-0.392822	
-0.393433	
-0.393188	
-0.393738	
-0.393066	
-0.392029	
-0.39325	
-0.39093	
-0.392883	
-0.3927	
-0.392029	
-0.392578	
-0.391846	
-0.392212	
-0.392639	
-0.392944	
-0.392334	
-0.392395	
-0.391907	
-0.39093	
-0.391052	
-0.389465	
-0.391357	
-0.390869	
-0.391724	
-0.390503	
-0.390808	
-0.390991	
-0.390686	
-0.390991	
-0.391785	
-0.391418	
-0.390625	
-0.391235	
-0.39032	
-0.390564	
-0.391357	
-0.390503	
-0.392273	
-0.391418	
-0.391479	
-0.391968	
-0.392456	
-0.393005	
-0.394653	
-0.393982	
-0.393738	
-0.394592	
-0.394348	
-0.394531	
-0.394348	
-0.394897	
-0.395874	
-0.394958	
-0.395264	
-0.39563	
-0.395569	
-0.395691	
-0.396851	
-0.395203	
-0.394531	
-0.39447	
-0.393005	
-0.394775	
-0.39386	
-0.394165	
-0.394714	
-0.393982	
-0.39447	
-0.393799	
-0.393555	
-0.393799	
-0.395325	
-0.393311	
-0.392822	
-0.393005	
-0.391968	
-0.392883	
-0.392517	
-0.393127	
-0.393066	
-0.392395	
-0.392578	
-0.391907	
-0.391785	
-0.392212	
-0.392761	
-0.390564	
-0.391541	
-0.390259	
-0.389221	
-0.389709	
-0.389038	
-0.389343	
-0.387878	
-0.386963	
-0.385925	
-0.385315	
-0.385071	
-0.384888	
-0.384644	
-0.38385	
-0.384644	
-0.383423	
-0.382568	
-0.383545	
-0.383301	
-0.384766	
-0.383789	
-0.384033	
-0.384216	
-0.384094	
-0.383972	
-0.385376	
-0.384766	
-0.38446	
-0.384766	
-0.384277	
-0.384949	
-0.385376	
-0.385864	
-0.385437	
-0.384949	
-0.385315	
-0.385315	
-0.385986	
-0.385925	
-0.387451	
-0.386292	
-0.385864	
-0.385986	
-0.385254	
-0.386902	
-0.387207	
-0.388062	
-0.387878	
-0.388	
-0.388611	
-0.389832	
-0.388428	
-0.389343	
-0.389709	
-0.388916	
-0.389282	
-0.388916	
-0.388916	
-0.390015	
-0.389526	
-0.390991	
-0.390076	
-0.390015	
-0.389771	
-0.39032	
-0.389771	
-0.390625	
-0.39032	
-0.389038	
-0.390503	
-0.389404	
-0.38855	
-0.389465	
-0.389282	
-0.390015	
-0.388855	
-0.388489	
-0.388184	
-0.387024	
-0.387634	
-0.388794	
-0.387573	
-0.387878	
-0.388123	
-0.38623	
-0.386658	
-0.387024	
-0.386475	
-0.387451	
-0.386963	
-0.386719	
-0.387268	
-0.386169	
-0.387207	
-0.387939	
-0.386719	
-0.387146	
-0.387024	
-0.385986	
-0.386963	
-0.387146	
-0.386841	
-0.387695	
-0.387817	
-0.38855	
-0.389282	
-0.388245	
-0.389343	
-0.390137	
-0.388916	
-0.389587	
-0.389709	
-0.38916	
-0.389893	
-0.389587	
-0.389771	
-0.389954	
-0.389771	
-0.389893	
-0.389771	
-0.389221	
-0.390625	
-0.390503	
-0.389282	
-0.389893	
-0.388916	
-0.388611	
-0.389648	
-0.389771	
-0.390015	
-0.390015	
-0.389648	
-0.389954	
-0.389404	
-0.389587	
-0.389709	
-0.389648	
-0.389343	
-0.389771	
-0.387756	
-0.388367	
-0.389221	
-0.388428	
-0.389465	
-0.388611	
-0.388306	
-0.388306	
-0.387146	
-0.387634	
-0.386108	
-0.386047	
-0.385925	
-0.385559	
-0.384644	
-0.384644	
-0.384705	
-0.383667	
-0.385315	
-0.38446	
-0.383911	
-0.384338	
-0.383179	
-0.384521	
-0.384277	
-0.383179	
-0.383789	
-0.383301	
-0.383667	
-0.383423	
-0.383972	
-0.383789	
-0.385071	
-0.383728	
-0.383789	
-0.384583	
-0.38324	
-0.385132	
-0.384827	
-0.383911	
-0.38501	
-0.382996	
-0.384033	
-0.38446	
-0.384521	
-0.384827	
-0.385315	
-0.385376	
-0.385864	
-0.386597	
-0.386475	
-0.387146	
-0.387329	
-0.386963	
-0.388489	
-0.388245	
-0.388672	
-0.389954	
-0.390808	
-0.391968	
-0.391479	
-0.391541	
-0.391418	
-0.391968	
-0.391663	
-0.392395	
-0.391907	
-0.392212	
-0.391418	
-0.391235	
-0.391907	
-0.391479	
-0.391907	
-0.392639	
-0.390808	
-0.391174	
-0.391174	
-0.390442	
-0.390686	
-0.390869	
-0.390259	
-0.39093	
-0.389038	
-0.388367	
-0.388855	
-0.387634	
-0.388733	
-0.388916	
-0.38855	
-0.388489	
-0.38855	
-0.387451	
-0.38916	
-0.388916	
-0.388245	
-0.388489	
-0.387939	
-0.386841	
-0.388	
-0.388367	
-0.388306	
-0.387939	
-0.388184	
-0.388367	
-0.388367	
-0.387512	
-0.388794	
-0.388367	
-0.388184	
-0.387695	
-0.387024	
-0.387268	
-0.388062	
-0.388855	
-0.389404	
-0.38916	
-0.389221	
-0.389709	
-0.390503	
-0.389404	
-0.389465	
-0.389221	
-0.389099	
-0.388916	
-0.389099	
-0.389648	
-0.388672	
-0.389893	
-0.39032	
-0.390381	
-0.389832	
-0.390503	
-0.390869	
-0.391479	
-0.391113	
-0.390198	
-0.389526	
-0.390015	
-0.390381	
-0.390259	
-0.389832	
-0.390442	
-0.391052	
-0.390442	
-0.390259	
-0.390442	
-0.390503	
-0.390808	
-0.389893	
-0.388367	
-0.387329	
-0.387146	
-0.386963	
-0.386902	
-0.386963	
-0.387085	
-0.38739	
-0.386597	
-0.386169	
-0.386353	
-0.385803	
-0.385864	
-0.386353	
-0.386292	
-0.384583	
-0.385742	
-0.384888	
-0.385742	
-0.385864	
-0.386658	
-0.387634	
-0.386841	
-0.38678	
-0.387695	
-0.387512	
-0.387329	
-0.388123	
-0.387451	
-0.386536	
-0.387207	
-0.386353	
-0.386414	
-0.387939	
-0.387878	
-0.38855	
-0.387939	
-0.388062	
-0.388855	
-0.388	
-0.38916	
-0.389343	
-0.388794	
-0.388672	
-0.390259	
-0.389954	
-0.390381	
-0.391052	
-0.391541	
-0.392273	
-0.393127	
-0.393616	
-0.39502	
-0.394592	
	
