E:\DOCUMENTS AND SETTINGS\JPOTAS\MEUS DOCUMENTOS\UFRJ\RSCI-BM 12 WK SERIES\070731-RSCI-BM-12\RSCI-BM-12-REMG\070731-RSCI-BM-12-REMG-0011.ACQ
0.025000 msec/sample
1 channel
Analog input
Volts
CH1	
2000	
-0.393677	
-0.393188	
-0.392456	
-0.393616	
-0.393311	
-0.3927	
-0.392456	
-0.391907	
-0.392273	
-0.39209	
-0.391968	
-0.392639	
-0.391174	
-0.391907	
-0.391663	
-0.391479	
-0.391724	
-0.392883	
-0.391968	
-0.391968	
-0.390381	
-0.391235	
-0.391418	
-0.391663	
-0.390991	
-0.390503	
-0.39093	
-0.390076	
-0.390381	
-0.39032	
-0.390686	
-0.390137	
-0.389648	
-0.388428	
-0.390015	
-0.389221	
-0.389893	
-0.388245	
-0.388672	
-0.387207	
-0.387512	
-0.387512	
-0.387024	
-0.386658	
-0.386597	
-0.385986	
-0.385437	
-0.38678	
-0.386475	
-0.385925	
-0.38623	
-0.386292	
-0.385803	
-0.386353	
-0.386963	
-0.387451	
-0.387024	
-0.38678	
-0.386841	
-0.386292	
-0.386841	
-0.387573	
-0.387146	
-0.386719	
-0.387024	
-0.386536	
-0.387512	
-0.387024	
-0.388306	
-0.387207	
-0.387268	
-0.38678	
-0.386414	
-0.386963	
-0.387634	
-0.387146	
-0.387146	
-0.386963	
-0.386902	
-0.38739	
-0.386841	
-0.387817	
-0.38739	
-0.387512	
-0.386475	
-0.388855	
-0.387878	
-0.388245	
-0.388428	
-0.38855	
-0.388306	
-0.388733	
-0.388855	
-0.390259	
-0.389404	
-0.389343	
-0.389893	
-0.388794	
-0.390137	
-0.389771	
-0.389709	
-0.389221	
-0.389099	
-0.388672	
-0.390015	
-0.390686	
-0.390808	
-0.39032	
-0.390686	
-0.390442	
-0.389954	
-0.390564	
-0.391357	
-0.39032	
-0.390869	
-0.390259	
-0.389648	
-0.390991	
-0.390991	
-0.391846	
-0.391479	
-0.390869	
-0.390625	
-0.390625	
-0.391846	
-0.391357	
-0.391785	
-0.392761	
-0.391724	
-0.392029	
-0.391907	
-0.393066	
-0.393494	
-0.392639	
-0.392517	
-0.391052	
-0.392517	
-0.392029	
-0.391846	
-0.391602	
-0.390808	
-0.391235	
-0.391907	
-0.392029	
-0.393005	
-0.391907	
-0.391785	
-0.390625	
-0.391052	
-0.391968	
-0.390686	
-0.390137	
-0.390747	
-0.390015	
-0.38916	
-0.389648	
-0.388977	
-0.39032	
-0.389465	
-0.389526	
-0.389526	
-0.389648	
-0.390137	
-0.390198	
-0.389709	
-0.390686	
-0.390503	
-0.388672	
-0.389771	
-0.390869	
-0.390137	
-0.389465	
-0.389343	
-0.388916	
-0.389343	
-0.390015	
-0.389954	
-0.389099	
-0.389343	
-0.388184	
-0.387817	
-0.387878	
-0.388733	
-0.388062	
-0.386658	
-0.386475	
-0.386108	
-0.385498	
-0.38623	
-0.385498	
-0.385193	
-0.384155	
-0.384705	
-0.385315	
-0.385559	
-0.385559	
-0.385559	
-0.384216	
-0.378113	
-0.376648	
-0.378174	
-0.378052	
-0.377319	
-0.379272	
-0.384888	
-0.384644	
-0.386108	
-0.385864	
-0.385559	
-0.386108	
-0.385742	
-0.384888	
-0.385986	
-0.386841	
-0.387268	
-0.386353	
-0.387573	
-0.386536	
-0.386475	
-0.386902	
-0.387207	
-0.387878	
-0.387573	
-0.387634	
-0.387756	
-0.387939	
-0.388428	
-0.388611	
-0.38916	
-0.390076	
-0.389832	
-0.390381	
-0.390808	
-0.391235	
-0.391907	
-0.391296	
-0.391052	
-0.391663	
-0.391418	
-0.392151	
-0.391785	
-0.391846	
-0.391357	
-0.39093	
-0.392212	
-0.392639	
-0.39209	
-0.391907	
-0.391296	
-0.390808	
-0.390991	
-0.391663	
-0.391785	
-0.391602	
-0.391113	
-0.390442	
-0.390503	
-0.391296	
-0.392517	
-0.391235	
-0.39093	
-0.391235	
-0.390442	
-0.390503	
-0.391724	
-0.391602	
-0.39093	
-0.391602	
-0.390259	
-0.39032	
-0.390747	
-0.390381	
-0.391663	
-0.390564	
-0.390442	
-0.389771	
-0.389709	
-0.391663	
-0.390259	
-0.390137	
-0.391052	
-0.39032	
-0.390991	
-0.390869	
-0.391052	
-0.392578	
-0.3927	
-0.392883	
-0.394043	
-0.396057	
-0.397217	
-0.397461	
-0.398438	
-0.400208	
-0.400757	
-0.402283	
-0.404541	
-0.405823	
-0.40625	
-0.408203	
-0.408386	
-0.411255	
-0.413086	
-0.414978	
-0.416626	
-0.41864	
-0.419617	
-0.42041	
-0.421692	
-0.421326	
-0.422791	
-0.422791	
-0.422729	
-0.424744	
-0.427185	
-0.427856	
-0.428772	
-0.42981	
-0.429688	
-0.431091	
-0.431335	
-0.432007	
-0.432678	
-0.433777	
-0.434265	
-0.434998	
-0.436951	
-0.438904	
-0.439758	
-0.441772	
-0.442566	
-0.442566	
-0.443909	
-0.445068	
-0.445618	
-0.445862	
-0.445801	
-0.445557	
-0.446411	
-0.448792	
-0.450623	
-0.450989	
-0.452271	
-0.452515	
-0.453918	
-0.45459	
-0.455322	
-0.457703	
-0.458069	
-0.458252	
-0.459717	
-0.46106	
-0.462097	
-0.461731	
-0.462463	
-0.461487	
-0.461365	
-0.462219	
-0.462158	
-0.462036	
-0.461121	
-0.460327	
-0.458435	
-0.458923	
-0.458557	
-0.458008	
-0.457153	
-0.455994	
-0.456116	
-0.455627	
-0.455811	
-0.454468	
-0.455322	
-0.453491	
-0.451721	
-0.450989	
-0.450134	
-0.447754	
-0.445557	
-0.443726	
-0.442322	
-0.439209	
-0.437317	
-0.436279	
-0.433838	
-0.431946	
-0.429504	
-0.427185	
-0.425842	
-0.423523	
-0.422241	
-0.419128	
-0.41687	
-0.414734	
-0.41095	
-0.410583	
-0.408142	
-0.406921	
-0.403748	
-0.401672	
-0.399963	
-0.397705	
-0.396545	
-0.395264	
-0.393311	
-0.393433	
-0.391907	
-0.391541	
-0.39032	
-0.389465	
-0.389832	
-0.388	
-0.386902	
-0.385925	
-0.384583	
-0.383789	
-0.382629	
-0.381714	
-0.380249	
-0.378296	
-0.377625	
-0.376587	
-0.375183	
-0.374512	
-0.373779	
-0.372009	
-0.372314	
-0.37207	
-0.372925	
-0.371582	
-0.370422	
-0.369629	
-0.368286	
-0.367615	
-0.366516	
-0.365967	
-0.364807	
-0.362976	
-0.361938	
-0.360901	
-0.360657	
-0.358948	
-0.358521	
-0.357971	
-0.356201	
-0.356628	
-0.357178	
-0.356812	
-0.356445	
-0.355469	
-0.355408	
-0.357117	
-0.357117	
-0.357666	
-0.358154	
-0.358093	
-0.358521	
-0.359619	
-0.360474	
-0.360779	
-0.361328	
-0.362	
-0.361267	
-0.362549	
-0.36377	
-0.36438	
-0.364563	
-0.365356	
-0.365967	
-0.366028	
-0.36676	
-0.367554	
-0.367737	
-0.368103	
-0.367798	
-0.367859	
-0.36908	
-0.370361	
-0.370239	
-0.370972	
-0.371216	
-0.371948	
-0.37262	
-0.372925	
-0.374023	
-0.374084	
-0.374573	
-0.374634	
-0.375671	
-0.375977	
-0.375488	
-0.37616	
-0.375916	
-0.375	
-0.376648	
-0.377319	
-0.377136	
-0.377136	
-0.376892	
-0.377319	
-0.378296	
-0.378235	
-0.377686	
-0.377747	
-0.377441	
-0.376831	
-0.378479	
-0.378662	
-0.379822	
-0.379211	
-0.3797	
-0.379028	
-0.381348	
-0.381836	
-0.382568	
-0.382813	
-0.38147	
-0.382813	
-0.383484	
-0.383484	
-0.384094	
-0.384155	
-0.384277	
-0.38385	
-0.385071	
-0.385376	
-0.385864	
-0.385559	
-0.38562	
-0.384583	
-0.385376	
-0.385254	
-0.385559	
-0.385925	
-0.385742	
-0.385681	
-0.38562	
-0.387146	
-0.386414	
-0.38623	
-0.38623	
-0.386292	
-0.385376	
-0.386597	
-0.387329	
-0.387268	
-0.386536	
-0.386841	
-0.38562	
-0.385559	
-0.385986	
-0.387024	
-0.385925	
-0.386169	
-0.385803	
-0.385681	
-0.385986	
-0.386108	
-0.386414	
-0.386597	
-0.385986	
-0.386108	
-0.386536	
-0.385498	
-0.385498	
-0.384949	
-0.385193	
-0.384216	
-0.384583	
-0.384521	
-0.385193	
-0.384644	
-0.384399	
-0.384399	
-0.384033	
-0.384644	
-0.384949	
-0.384399	
-0.383728	
-0.384399	
-0.38324	
-0.384521	
-0.385376	
-0.385864	
-0.384766	
-0.384583	
-0.384521	
-0.385681	
-0.385071	
-0.385498	
-0.384766	
-0.385315	
-0.384949	
-0.384521	
-0.384949	
-0.385437	
-0.385803	
-0.384705	
-0.378479	
-0.377258	
-0.377136	
-0.377563	
-0.37738	
-0.377563	
-0.384155	
-0.38446	
-0.385498	
-0.38501	
-0.385559	
-0.385193	
-0.385498	
-0.384888	
-0.38562	
-0.385559	
-0.386475	
-0.385437	
-0.385559	
-0.385742	
-0.385681	
-0.386108	
-0.385986	
-0.387573	
-0.387451	
-0.387756	
-0.386353	
-0.38739	
-0.387634	
-0.387329	
-0.387268	
-0.387268	
-0.387512	
-0.38739	
-0.387024	
-0.387512	
-0.38739	
-0.386475	
-0.386414	
-0.38678	
-0.386841	
-0.387512	
-0.386414	
-0.38623	
-0.386414	
-0.385681	
-0.38739	
-0.386902	
-0.388489	
-0.388489	
-0.388184	
-0.387634	
-0.388855	
-0.388733	
-0.38916	
-0.388916	
-0.389343	
-0.388794	
-0.38916	
-0.389343	
-0.390747	
-0.390686	
-0.390259	
-0.390259	
-0.390564	
-0.390503	
-0.391724	
-0.390991	
-0.390686	
-0.390869	
-0.390686	
-0.391174	
-0.390625	
-0.390747	
-0.390991	
-0.390015	
-0.390198	
-0.390564	
-0.388245	
-0.389526	
-0.38916	
-0.389404	
-0.389587	
-0.389282	
-0.389343	
-0.391235	
-0.391174	
-0.39209	
-0.391907	
-0.392944	
-0.39447	
-0.395874	
-0.39624	
-0.397095	
-0.398193	
-0.400085	
-0.401001	
-0.401794	
-0.403564	
-0.405396	
-0.405884	
-0.406982	
-0.409058	
-0.409363	
-0.410828	
-0.412903	
-0.413208	
-0.414368	
-0.415283	
-0.416138	
-0.416443	
-0.41748	
-0.416931	
-0.417053	
-0.419128	
-0.419983	
-0.42041	
-0.421326	
-0.422058	
-0.422913	
-0.424316	
-0.424805	
-0.426819	
-0.428467	
-0.429199	
-0.430359	
-0.433044	
-0.432983	
-0.43512	
-0.436829	
-0.438293	
-0.439636	
-0.441772	
-0.442505	
-0.44458	
-0.444214	
-0.444702	
-0.444336	
-0.444946	
-0.444824	
-0.446167	
-0.446594	
-0.44873	
-0.449402	
-0.449646	
-0.452148	
-0.454102	
-0.455444	
-0.456482	
-0.45752	
-0.45697	
-0.459045	
-0.458374	
-0.458923	
-0.459351	
-0.458374	
-0.458557	
-0.458069	
-0.456848	
-0.458313	
-0.456726	
-0.456848	
-0.455627	
-0.454651	
-0.453796	
-0.454102	
-0.452698	
-0.450806	
-0.450073	
-0.447937	
-0.447449	
-0.447327	
-0.445679	
-0.445313	
-0.443604	
-0.441711	
-0.44165	
-0.43866	
-0.437866	
-0.435608	
-0.4328	
-0.430847	
-0.429138	
-0.426941	
-0.426331	
-0.424072	
-0.42395	
-0.420898	
-0.419434	
-0.417053	
-0.415894	
-0.413574	
-0.411316	
-0.408386	
-0.405518	
-0.404907	
-0.402222	
-0.40094	
-0.399353	
-0.397888	
-0.395874	
-0.395874	
-0.393677	
-0.393372	
-0.391785	
-0.389832	
-0.389404	
-0.388977	
-0.388489	
-0.388062	
-0.386841	
-0.385864	
-0.384155	
-0.382141	
-0.382324	
-0.380066	
-0.378601	
-0.377686	
-0.375793	
-0.374084	
-0.374023	
-0.372681	
-0.372742	
-0.37207	
-0.372009	
-0.3703	
-0.369873	
-0.369385	
-0.368713	
-0.367493	
-0.366821	
-0.365479	
-0.364502	
-0.363831	
-0.363831	
-0.362915	
-0.361938	
-0.360352	
-0.358704	
-0.359436	
-0.357788	
-0.357666	
-0.358093	
-0.356934	
-0.356934	
-0.356689	
-0.355835	
-0.356689	
-0.356445	
-0.356323	
-0.355835	
-0.357788	
-0.357056	
-0.3573	
-0.357605	
-0.356567	
-0.3573	
-0.358826	
-0.358459	
-0.360229	
-0.360291	
-0.361145	
-0.360657	
-0.362549	
-0.362	
-0.362671	
-0.362976	
-0.362	
-0.362854	
-0.364258	
-0.364746	
-0.36554	
-0.365784	
-0.366943	
-0.366394	
-0.367188	
-0.367676	
-0.367798	
-0.368408	
-0.368103	
-0.368958	
-0.369202	
-0.369324	
-0.371277	
-0.371033	
-0.372009	
-0.371277	
-0.372314	
-0.372375	
-0.373108	
-0.373413	
-0.373596	
-0.373047	
-0.373596	
-0.373901	
-0.375	
-0.375427	
-0.375977	
-0.376221	
-0.376404	
-0.378601	
-0.378479	
-0.379028	
-0.38031	
-0.379639	
-0.379089	
-0.380432	
-0.38092	
-0.381042	
-0.381409	
-0.381409	
-0.381287	
-0.382629	
-0.382263	
-0.382385	
-0.382568	
-0.381958	
-0.381592	
-0.382751	
-0.381104	
-0.382751	
-0.382751	
-0.383484	
-0.38269	
-0.383423	
-0.382996	
-0.383606	
-0.383667	
-0.383606	
-0.383545	
-0.38385	
-0.383728	
-0.384827	
-0.383728	
-0.384216	
-0.383728	
-0.384155	
-0.384338	
-0.38446	
-0.384094	
-0.38446	
-0.384399	
-0.383362	
-0.384583	
-0.384888	
-0.385071	
-0.384766	
-0.385681	
-0.384644	
-0.385254	
-0.38446	
-0.38324	
-0.384888	
-0.384033	
-0.383972	
-0.384277	
-0.383972	
-0.38501	
-0.384338	
-0.384644	
-0.384644	
-0.384216	
-0.385132	
-0.385071	
-0.384827	
-0.384521	
-0.384766	
-0.384033	
-0.385315	
-0.385315	
-0.386108	
-0.38623	
-0.386841	
-0.386536	
-0.387756	
-0.387268	
-0.386963	
-0.38739	
-0.387146	
-0.386475	
-0.386047	
-0.385132	
-0.386963	
-0.385742	
-0.385925	
-0.385254	
-0.386047	
-0.385132	
-0.385498	
-0.385376	
-0.384766	
-0.384277	
-0.383667	
-0.383789	
-0.383545	
-0.383972	
-0.383911	
-0.384338	
-0.383057	
-0.383484	
-0.383301	
-0.383728	
-0.382629	
-0.382568	
-0.382874	
-0.382813	
-0.38269	
-0.384094	
-0.383484	
-0.383789	
-0.384033	
-0.384277	
-0.383545	
-0.383484	
-0.384338	
-0.384216	
-0.383301	
-0.38324	
-0.383301	
-0.384216	
-0.383789	
-0.383301	
-0.384766	
-0.383789	
-0.384094	
-0.384033	
-0.383728	
-0.383667	
-0.384766	
-0.384827	
-0.384521	
-0.38446	
-0.385315	
-0.385071	
-0.385376	
-0.385925	
-0.386597	
-0.386597	
-0.386719	
-0.388123	
-0.389282	
-0.388916	
-0.388733	
-0.388245	
-0.388794	
-0.389221	
-0.389587	
-0.389709	
-0.390137	
-0.389832	
-0.389648	
-0.388733	
-0.388855	
-0.389465	
-0.389221	
-0.38916	
-0.388977	
-0.389099	
-0.389465	
-0.388916	
-0.389099	
-0.388611	
-0.388	
-0.388	
-0.386963	
-0.388855	
-0.388062	
-0.388	
-0.388	
-0.387146	
-0.387939	
-0.388062	
-0.388428	
-0.387817	
-0.387817	
-0.388	
-0.387756	
-0.387817	
-0.388916	
-0.388	
-0.388123	
-0.387085	
-0.388184	
-0.388245	
-0.388062	
-0.389099	
-0.388367	
-0.388062	
-0.387756	
-0.386902	
-0.388733	
-0.386719	
-0.387024	
-0.386719	
-0.38623	
-0.386658	
-0.386963	
-0.387634	
-0.388	
-0.387878	
-0.387512	
-0.387329	
-0.387268	
-0.388367	
-0.387146	
-0.387573	
-0.386658	
-0.38678	
-0.386658	
-0.386658	
-0.387512	
-0.385864	
-0.386108	
-0.385986	
-0.38501	
-0.386841	
-0.387268	
-0.385559	
-0.385315	
-0.384766	
-0.385803	
-0.385498	
-0.385315	
-0.386353	
-0.385193	
-0.385437	
-0.384399	
-0.384094	
-0.385742	
-0.384338	
-0.383728	
-0.383484	
-0.383362	
-0.383911	
-0.38385	
-0.384338	
-0.383728	
-0.383606	
-0.384155	
-0.382813	
-0.384399	
-0.385193	
-0.384766	
-0.383789	
-0.383362	
-0.383667	
-0.383972	
-0.384583	
-0.385071	
-0.383362	
-0.385315	
-0.384705	
-0.383911	
-0.385681	
-0.386475	
-0.385437	
-0.385681	
-0.384399	
-0.386719	
-0.386597	
-0.386902	
-0.386658	
-0.386597	
-0.386536	
-0.385864	
-0.386963	
-0.387756	
-0.38678	
-0.387146	
-0.386841	
-0.385925	
-0.387146	
-0.386719	
-0.387512	
-0.386963	
-0.386841	
-0.386963	
-0.385803	
-0.387878	
-0.38855	
-0.388428	
-0.388611	
-0.388306	
-0.390076	
-0.389832	
-0.390442	
-0.391296	
-0.389648	
-0.390259	
-0.390381	
-0.390686	
-0.391785	
-0.390991	
-0.391907	
-0.391541	
-0.389771	
-0.392273	
-0.391724	
-0.392212	
-0.391846	
-0.391785	
-0.391296	
-0.39032	
-0.391785	
-0.392883	
-0.391113	
-0.39093	
-0.390869	
-0.391602	
-0.391846	
-0.391663	
-0.393066	
-0.391052	
-0.391357	
-0.391113	
-0.39032	
-0.39209	
-0.391296	
-0.390686	
-0.390015	
-0.389343	
-0.390503	
-0.389893	
-0.390076	
-0.39032	
-0.388611	
-0.388977	
-0.388855	
-0.389038	
-0.389221	
-0.388489	
-0.387817	
-0.387024	
-0.386902	
-0.387756	
-0.386658	
-0.386475	
-0.385803	
-0.384949	
-0.385925	
-0.385071	
-0.386841	
-0.386292	
-0.385498	
-0.385071	
-0.384216	
-0.384155	
-0.385864	
-0.38501	
-0.387024	
-0.38501	
-0.38562	
-0.385864	
-0.38385	
-0.385986	
-0.386353	
-0.385864	
-0.384827	
-0.384888	
-0.385681	
-0.38562	
-0.385681	
-0.385864	
-0.384888	
-0.385254	
-0.385559	
-0.386414	
-0.385803	
-0.385498	
-0.385498	
-0.384766	
-0.385437	
-0.386658	
-0.385925	
-0.386169	
-0.385742	
-0.384583	
-0.385559	
-0.384644	
-0.386536	
-0.38623	
-0.385742	
-0.385986	
-0.385681	
-0.385559	
-0.386353	
-0.386902	
-0.387451	
-0.386292	
-0.386414	
-0.386841	
-0.386841	
-0.387512	
-0.388123	
-0.387329	
-0.387329	
-0.387146	
-0.387878	
-0.38739	
-0.388306	
-0.388184	
-0.385986	
-0.386597	
-0.386047	
-0.38739	
-0.386536	
-0.385803	
-0.385498	
-0.386536	
-0.386719	
-0.387207	
-0.386597	
-0.388489	
-0.387878	
-0.387512	
-0.387756	
-0.388123	
-0.388428	
-0.389893	
-0.388794	
-0.388123	
-0.389771	
-0.38916	
-0.389465	
-0.389954	
-0.390808	
-0.389954	
-0.390015	
-0.39032	
-0.39093	
-0.391296	
-0.391357	
-0.391479	
-0.391296	
-0.391846	
-0.392578	
-0.392273	
-0.392761	
-0.392944	
-0.39032	
-0.391357	
-0.390503	
-0.390808	
-0.391541	
-0.390076	
-0.389832	
-0.390381	
-0.389648	
-0.391479	
-0.390442	
-0.391724	
-0.390564	
-0.390015	
-0.390442	
-0.390076	
-0.390198	
-0.390381	
-0.389709	
-0.388672	
-0.389038	
-0.389404	
-0.389465	
-0.38916	
-0.38916	
-0.388733	
-0.38855	
-0.387634	
-0.387573	
-0.388184	
-0.38739	
-0.387146	
-0.386353	
-0.385132	
-0.386353	
-0.385681	
-0.38562	
-0.385681	
-0.384644	
-0.384338	
-0.384338	
-0.383545	
-0.384705	
-0.383972	
-0.38324	
-0.384033	
-0.38385	
-0.384644	
-0.38385	
-0.385376	
-0.385254	
-0.383057	
-0.384827	
-0.384644	
-0.384033	
-0.38446	
-0.384827	
-0.384705	
-0.384277	
-0.385193	
-0.385864	
-0.385376	
-0.386414	
-0.385437	
-0.384338	
-0.384644	
-0.385132	
-0.385437	
-0.384644	
-0.384521	
-0.384827	
-0.384094	
-0.384888	
-0.385376	
-0.385315	
-0.386169	
-0.385132	
-0.385193	
-0.385803	
-0.384521	
-0.385437	
-0.385315	
-0.38446	
-0.384766	
-0.385864	
-0.386414	
-0.386841	
-0.387268	
-0.387451	
-0.386353	
-0.386902	
-0.385803	
-0.38678	
-0.38739	
-0.387268	
-0.387268	
-0.386108	
-0.386963	
-0.387512	
-0.386841	
-0.388062	
-0.387878	
-0.387085	
-0.387756	
-0.387451	
-0.388855	
-0.387573	
-0.387207	
-0.388062	
-0.387756	
-0.387939	
-0.388855	
-0.388245	
-0.388733	
-0.388062	
-0.387512	
-0.388062	
-0.387817	
-0.388977	
-0.388733	
-0.389343	
-0.388306	
-0.389099	
-0.389587	
-0.390747	
-0.389832	
-0.390137	
-0.390137	
-0.389709	
-0.38855	
-0.38916	
-0.389832	
-0.38916	
-0.389404	
-0.388184	
-0.389709	
-0.389282	
-0.390198	
-0.390381	
-0.390015	
-0.38916	
-0.389771	
-0.388794	
-0.389648	
-0.388245	
-0.388245	
-0.387817	
-0.387756	
-0.387939	
-0.387878	
-0.387878	
-0.387939	
-0.386902	
-0.387207	
-0.386963	
-0.38739	
-0.387024	
-0.386902	
-0.387207	
-0.387024	
-0.387085	
-0.387817	
-0.388428	
-0.388489	
-0.387878	
-0.387695	
-0.387146	
-0.386108	
-0.387085	
-0.386902	
-0.38678	
-0.386902	
-0.386902	
-0.387573	
-0.38678	
-0.387207	
-0.387329	
-0.386169	
-0.385193	
-0.38501	
-0.38446	
-0.384338	
-0.383789	
-0.383545	
-0.383118	
-0.382996	
-0.382935	
-0.38324	
-0.383606	
-0.383179	
-0.383362	
-0.383179	
-0.38269	
-0.383362	
-0.382629	
-0.382019	
-0.38269	
-0.382385	
-0.383179	
-0.383179	
-0.383301	
-0.383911	
-0.383606	
-0.382385	
-0.382996	
-0.382263	
-0.383301	
-0.382935	
-0.382141	
-0.38324	
-0.381958	
-0.383911	
-0.384338	
-0.385071	
-0.385071	
-0.385132	
-0.384644	
-0.383484	
-0.384827	
-0.385376	
-0.384705	
-0.385315	
-0.385559	
-0.385864	
-0.386047	
-0.386963	
-0.387695	
-0.388123	
-0.388611	
-0.388428	
-0.388	
-0.388855	
-0.388916	
-0.388	
-0.38916	
-0.388489	
-0.389404	
-0.389648	
-0.389526	
-0.39032	
-0.390442	
-0.389709	
-0.389648	
-0.387817	
-0.388855	
-0.388977	
-0.388489	
-0.388306	
-0.388245	
-0.388489	
-0.388367	
-0.38916	
-0.389099	
-0.38855	
-0.38855	
-0.388062	
-0.388489	
-0.388489	
-0.388916	
-0.388611	
-0.388367	
-0.388672	
-0.388611	
-0.38855	
-0.388794	
-0.388794	
-0.38855	
-0.388245	
-0.386963	
-0.387756	
-0.388489	
-0.387512	
-0.38855	
-0.387085	
-0.388367	
-0.388123	
-0.388428	
-0.389343	
-0.388916	
-0.388	
-0.388367	
-0.387146	
-0.387207	
-0.387512	
-0.386841	
-0.387634	
-0.386902	
-0.387268	
-0.388062	
-0.388184	
-0.388794	
-0.387695	
-0.387146	
-0.387756	
-0.386536	
-0.388123	
-0.387634	
-0.387878	
-0.387756	
-0.387756	
-0.387756	
-0.388123	
-0.388977	
-0.388855	
-0.388184	
-0.388733	
-0.386902	
-0.386719	
-0.386963	
-0.385742	
-0.385986	
-0.385315	
-0.385864	
-0.385864	
-0.385193	
-0.385986	
-0.385986	
-0.38501	
-0.385376	
-0.384033	
-0.385071	
-0.384155	
-0.383118	
-0.383423	
-0.382263	
-0.38324	
-0.383057	
-0.383362	
-0.384277	
-0.382935	
-0.382629	
-0.382874	
-0.381226	
-0.383789	
-0.382568	
-0.383362	
-0.38324	
-0.383301	
-0.384033	
-0.384338	
-0.38446	
-0.384949	
-0.384155	
-0.384277	
-0.382935	
-0.38446	
-0.384949	
-0.383911	
-0.384399	
-0.38446	
-0.384216	
-0.384949	
-0.385437	
-0.38678	
-0.385254	
-0.385193	
-0.38623	
-0.383545	
-0.386414	
-0.386169	
-0.384949	
-0.386719	
-0.38623	
-0.386963	
-0.387146	
-0.388062	
-0.389771	
-0.388428	
-0.389465	
-0.389771	
-0.388611	
-0.390869	
-0.389771	
-0.39032	
-0.39032	
-0.389832	
-0.39032	
-0.390686	
-0.391541	
-0.390869	
-0.390076	
-0.390198	
-0.38916	
-0.390137	
-0.390747	
-0.389221	
-0.390015	
-0.389771	
-0.389343	
-0.388977	
-0.389709	
-0.390442	
-0.388916	
-0.389099	
-0.389282	
-0.386902	
-0.389221	
-0.389709	
-0.388184	
-0.38916	
-0.388855	
-0.389038	
-0.389465	
-0.389648	
-0.391296	
-0.389221	
-0.389099	
-0.389526	
-0.387024	
-0.389771	
-0.389038	
-0.388672	
-0.388855	
-0.388672	
-0.389221	
-0.389221	
-0.389465	
-0.389587	
-0.387634	
-0.387695	
-0.38678	
-0.387024	
-0.388184	
-0.387207	
-0.387573	
-0.387512	
-0.386414	
-0.387756	
-0.388245	
-0.389465	
-0.388489	
-0.387939	
-0.387817	
-0.387085	
-0.387878	
-0.387878	
-0.386292	
-0.386902	
-0.387085	
-0.386475	
-0.386353	
-0.386658	
-0.386902	
-0.386414	
-0.386414	
-0.386108	
-0.384399	
-0.385864	
-0.386108	
-0.384216	
-0.385193	
-0.384705	
-0.385132	
-0.38501	
-0.385254	
-0.385986	
-0.384644	
-0.384216	
-0.384033	
-0.382629	
-0.38446	
-0.38385	
-0.383667	
-0.38385	
-0.383545	
-0.384033	
-0.384583	
-0.384338	
-0.385559	
-0.384827	
-0.38446	
-0.384155	
-0.383545	
-0.38562	
-0.384155	
-0.384827	
-0.384949	
-0.384216	
-0.38562	
-0.38623	
-0.386414	
-0.386414	
-0.385803	
-0.385376	
-0.384705	
-0.385559	
-0.386841	
-0.38562	
-0.386963	
-0.386414	
-0.386841	
-0.387329	
-0.387756	
-0.388184	
-0.38739	
-0.387024	
-0.387817	
-0.386963	
-0.387268	
-0.386902	
-0.386169	
-0.386902	
-0.386536	
-0.387329	
-0.387512	
-0.387512	
-0.388184	
-0.388733	
-0.388306	
-0.388184	
-0.388916	
-0.390442	
-0.389221	
-0.38916	
-0.389832	
-0.389282	
-0.390503	
-0.390808	
-0.391541	
-0.391052	
-0.391052	
-0.391724	
-0.390259	
-0.391479	
-0.391663	
-0.389893	
-0.391113	
-0.391296	
-0.391235	
-0.391541	
-0.391357	
-0.391785	
-0.391846	
-0.390991	
-0.391846	
-0.390747	
-0.390503	
-0.391235	
-0.390686	
-0.391113	
-0.391052	
-0.391357	
-0.391541	
-0.390869	
-0.390991	
-0.391296	
-0.38916	
-0.389893	
-0.389893	
-0.389526	
-0.388916	
-0.389404	
-0.389038	
-0.388306	
-0.388733	
-0.389282	
-0.388794	
-0.388794	
-0.388672	
-0.388306	
-0.386414	
-0.386414	
-0.386902	
-0.384644	
-0.385376	
-0.385254	
-0.384399	
-0.385864	
-0.385803	
-0.386475	
-0.38562	
-0.384705	
-0.386047	
-0.384521	
-0.385376	
-0.384705	
-0.384949	
-0.384583	
-0.384827	
-0.385437	
-0.386414	
-0.385681	
-0.386597	
-0.385925	
-0.385376	
-0.385681	
-0.384583	
-0.385132	
-0.385071	
-0.385498	
-0.38501	
-0.384277	
-0.385986	
-0.385864	
-0.385925	
-0.386353	
-0.386963	
-0.386047	
-0.385437	
-0.385254	
-0.385559	
-0.384888	
-0.385803	
-0.385681	
-0.384705	
-0.386047	
-0.385803	
-0.385803	
-0.386169	
-0.386047	
-0.38678	
-0.385742	
-0.385864	
-0.386841	
-0.38623	
-0.385986	
-0.386169	
-0.386047	
-0.387817	
-0.387268	
-0.387207	
-0.387024	
-0.388184	
-0.38739	
-0.386353	
-0.386414	
-0.386292	
-0.387085	
-0.386963	
-0.386475	
-0.386963	
-0.386963	
-0.386658	
-0.387024	
-0.386658	
-0.38678	
-0.385925	
-0.385254	
-0.38562	
-0.386169	
-0.387146	
-0.387634	
-0.386292	
-0.388916	
-0.388123	
-0.38855	
-0.389221	
-0.388428	
-0.389648	
-0.389404	
-0.38916	
-0.390015	
-0.389648	
-0.390015	
-0.390015	
-0.389893	
-0.390198	
-0.390259	
-0.391296	
-0.391052	
-0.391418	
-0.391479	
-0.391296	
	
