E:\DOCUMENTS AND SETTINGS\JPOTAS\MEUS DOCUMENTOS\UFRJ\RSCI-BM 12 WK SERIES\070731-RSCI-BM-12\RSCI-BM-12-REMG\070731-RSCI-BM-12-REMG-0012.ACQ
0.025000 msec/sample
1 channel
Analog input
Volts
CH1	
2000	
-0.384033	
-0.384277	
-0.384338	
-0.38385	
-0.384399	
-0.384521	
-0.385315	
-0.386414	
-0.38446	
-0.384399	
-0.384338	
-0.384521	
-0.384888	
-0.384277	
-0.383789	
-0.382813	
-0.382629	
-0.383484	
-0.383057	
-0.383728	
-0.382568	
-0.382019	
-0.381958	
-0.380798	
-0.383057	
-0.38269	
-0.381165	
-0.380859	
-0.379395	
-0.380371	
-0.380798	
-0.380798	
-0.381226	
-0.380615	
-0.380371	
-0.380188	
-0.380981	
-0.382629	
-0.381714	
-0.38147	
-0.381653	
-0.381104	
-0.381531	
-0.381409	
-0.382385	
-0.382813	
-0.382141	
-0.381958	
-0.381409	
-0.381958	
-0.382751	
-0.381897	
-0.381897	
-0.380859	
-0.381958	
-0.382324	
-0.382874	
-0.384033	
-0.384277	
-0.383545	
-0.383484	
-0.382263	
-0.384766	
-0.384644	
-0.383545	
-0.38324	
-0.382874	
-0.383118	
-0.383911	
-0.384644	
-0.385315	
-0.385315	
-0.385376	
-0.385559	
-0.386536	
-0.387756	
-0.387695	
-0.387207	
-0.386108	
-0.386658	
-0.387512	
-0.387634	
-0.388	
-0.388184	
-0.388245	
-0.387451	
-0.387268	
-0.38855	
-0.388245	
-0.388306	
-0.387573	
-0.386108	
-0.386597	
-0.387329	
-0.386902	
-0.387695	
-0.387451	
-0.386902	
-0.386841	
-0.386719	
-0.387756	
-0.388	
-0.387573	
-0.387634	
-0.387146	
-0.387268	
-0.388	
-0.388794	
-0.389526	
-0.390564	
-0.389771	
-0.390381	
-0.390808	
-0.390869	
-0.391846	
-0.391052	
-0.391418	
-0.392151	
-0.391663	
-0.392456	
-0.392822	
-0.392761	
-0.393005	
-0.392639	
-0.391846	
-0.392334	
-0.391296	
-0.391541	
-0.390686	
-0.388672	
-0.390198	
-0.39032	
-0.390442	
-0.390991	
-0.390991	
-0.390747	
-0.390808	
-0.390259	
-0.392273	
-0.391418	
-0.391541	
-0.391602	
-0.391357	
-0.391907	
-0.392639	
-0.393005	
-0.394226	
-0.39386	
-0.393494	
-0.393494	
-0.393921	
-0.393616	
-0.395203	
-0.394165	
-0.393555	
-0.394348	
-0.393555	
-0.394165	
-0.393982	
-0.394775	
-0.394836	
-0.393555	
-0.392883	
-0.393494	
-0.393005	
-0.394043	
-0.392578	
-0.390564	
-0.392639	
-0.391357	
-0.392761	
-0.393188	
-0.393005	
-0.392761	
-0.392578	
-0.392334	
-0.39325	
-0.392761	
-0.392944	
-0.391602	
-0.390442	
-0.392334	
-0.392639	
-0.392761	
-0.393799	
-0.393066	
-0.392151	
-0.392273	
-0.391602	
-0.391479	
-0.391296	
-0.391235	
-0.39093	
-0.390564	
-0.390869	
-0.391113	
-0.390808	
-0.389709	
-0.383728	
-0.381592	
-0.381409	
-0.381409	
-0.380737	
-0.382813	
-0.388062	
-0.387756	
-0.389099	
-0.388733	
-0.389404	
-0.390015	
-0.390747	
-0.390869	
-0.39093	
-0.390869	
-0.392639	
-0.391296	
-0.392456	
-0.391174	
-0.39093	
-0.391724	
-0.390503	
-0.391846	
-0.393005	
-0.392456	
-0.391724	
-0.391357	
-0.391663	
-0.390747	
-0.391418	
-0.391846	
-0.390442	
-0.391174	
-0.390503	
-0.390442	
-0.390076	
-0.389709	
-0.389954	
-0.388672	
-0.388794	
-0.389404	
-0.387817	
-0.387939	
-0.387451	
-0.385254	
-0.387329	
-0.386902	
-0.387268	
-0.387817	
-0.387512	
-0.387207	
-0.387207	
-0.386841	
-0.388794	
-0.387634	
-0.388062	
-0.387573	
-0.38739	
-0.38739	
-0.387146	
-0.388062	
-0.388367	
-0.38855	
-0.387878	
-0.387573	
-0.387817	
-0.387207	
-0.387878	
-0.388367	
-0.387512	
-0.388245	
-0.387939	
-0.386841	
-0.388245	
-0.388916	
-0.388672	
-0.387878	
-0.387939	
-0.389465	
-0.387634	
-0.388367	
-0.389343	
-0.386841	
-0.389465	
-0.390381	
-0.391235	
-0.392151	
-0.3927	
-0.393433	
-0.394653	
-0.395508	
-0.396851	
-0.397827	
-0.398743	
-0.39978	
-0.401306	
-0.402771	
-0.403809	
-0.405334	
-0.407043	
-0.408752	
-0.40918	
-0.410095	
-0.41272	
-0.413208	
-0.415039	
-0.416138	
-0.417053	
-0.41925	
-0.420349	
-0.42157	
-0.423645	
-0.424805	
-0.425293	
-0.427185	
-0.430481	
-0.429993	
-0.431824	
-0.432983	
-0.434143	
-0.435852	
-0.436401	
-0.43811	
-0.439758	
-0.440918	
-0.441345	
-0.443054	
-0.444214	
-0.446167	
-0.448669	
-0.451233	
-0.450745	
-0.453369	
-0.453552	
-0.453247	
-0.455017	
-0.455566	
-0.455505	
-0.455872	
-0.456238	
-0.457703	
-0.457642	
-0.458923	
-0.459229	
-0.459656	
-0.460999	
-0.461304	
-0.462646	
-0.463928	
-0.465271	
-0.465515	
-0.466248	
-0.467041	
-0.468628	
-0.46936	
-0.470703	
-0.468506	
-0.470581	
-0.470642	
-0.470642	
-0.470764	
-0.47168	
-0.470215	
-0.469543	
-0.468811	
-0.469238	
-0.467834	
-0.467651	
-0.466553	
-0.465515	
-0.464844	
-0.463684	
-0.462891	
-0.462769	
-0.461365	
-0.459534	
-0.458313	
-0.457153	
-0.454773	
-0.452881	
-0.451355	
-0.446655	
-0.446045	
-0.443909	
-0.44043	
-0.43927	
-0.437439	
-0.434509	
-0.432373	
-0.430298	
-0.428467	
-0.424866	
-0.423096	
-0.420532	
-0.417603	
-0.415833	
-0.41333	
-0.411377	
-0.408508	
-0.407898	
-0.403625	
-0.401733	
-0.400208	
-0.397278	
-0.396484	
-0.395081	
-0.393005	
-0.391968	
-0.391113	
-0.389221	
-0.388855	
-0.388855	
-0.388428	
-0.386353	
-0.385864	
-0.385132	
-0.384033	
-0.382507	
-0.38208	
-0.378906	
-0.37915	
-0.378113	
-0.376831	
-0.377197	
-0.377747	
-0.376343	
-0.375916	
-0.376099	
-0.375916	
-0.375061	
-0.374939	
-0.373169	
-0.372986	
-0.371765	
-0.369751	
-0.369263	
-0.369385	
-0.368042	
-0.365845	
-0.364685	
-0.363831	
-0.362244	
-0.360474	
-0.359497	
-0.35675	
-0.356873	
-0.35614	
-0.355469	
-0.355469	
-0.355835	
-0.354492	
-0.35437	
-0.35437	
-0.353333	
-0.354858	
-0.355774	
-0.354126	
-0.356812	
-0.357666	
-0.359253	
-0.360352	
-0.361694	
-0.362305	
-0.363342	
-0.363892	
-0.363159	
-0.364868	
-0.365906	
-0.363953	
-0.366577	
-0.366516	
-0.366028	
-0.366821	
-0.36853	
-0.368225	
-0.36792	
-0.367676	
-0.368164	
-0.368103	
-0.369141	
-0.36792	
-0.36908	
-0.368958	
-0.367981	
-0.36969	
-0.370789	
-0.370361	
-0.370117	
-0.370422	
-0.371399	
-0.370483	
-0.370728	
-0.370728	
-0.371033	
-0.370972	
-0.371277	
-0.372437	
-0.372986	
-0.373047	
-0.372498	
-0.373047	
-0.373657	
-0.373779	
-0.374084	
-0.373718	
-0.373657	
-0.374023	
-0.374084	
-0.374512	
-0.375183	
-0.375916	
-0.374939	
-0.37561	
-0.375671	
-0.375	
-0.376343	
-0.376709	
-0.374817	
-0.376648	
-0.376953	
-0.377441	
-0.377869	
-0.377686	
-0.378113	
-0.378418	
-0.379211	
-0.378357	
-0.378967	
-0.379517	
-0.377502	
-0.379761	
-0.380371	
-0.379883	
-0.380798	
-0.38208	
-0.382751	
-0.381714	
-0.38269	
-0.382629	
-0.381897	
-0.38269	
-0.382751	
-0.382385	
-0.382813	
-0.381897	
-0.382202	
-0.382202	
-0.381409	
-0.38147	
-0.381714	
-0.381714	
-0.380859	
-0.381531	
-0.381287	
-0.380249	
-0.382019	
-0.38147	
-0.381165	
-0.381714	
-0.383362	
-0.38324	
-0.382751	
-0.383057	
-0.383484	
-0.383057	
-0.383667	
-0.383728	
-0.384521	
-0.385193	
-0.385376	
-0.384949	
-0.386658	
-0.387268	
-0.387207	
-0.387329	
-0.38739	
-0.38739	
-0.388184	
-0.388428	
-0.387512	
-0.388	
-0.388184	
-0.387817	
-0.388	
-0.388245	
-0.388611	
-0.388062	
-0.388	
-0.388062	
-0.386719	
-0.387634	
-0.387451	
-0.387329	
-0.387512	
-0.387329	
-0.387207	
-0.388	
-0.387512	
-0.388184	
-0.387451	
-0.38678	
-0.386963	
-0.387024	
-0.387146	
-0.387085	
-0.386658	
-0.386963	
-0.386597	
-0.387085	
-0.386719	
-0.386841	
-0.38678	
-0.386719	
-0.386169	
-0.384888	
-0.385742	
-0.384766	
-0.383728	
-0.384277	
-0.384094	
-0.382935	
-0.384338	
-0.38324	
-0.38385	
-0.382935	
-0.382874	
-0.383545	
-0.381775	
-0.382446	
-0.383667	
-0.382629	
-0.383118	
-0.383362	
-0.383484	
-0.38446	
-0.383728	
-0.384583	
-0.384521	
-0.384216	
-0.384766	
-0.384338	
-0.384277	
-0.384583	
-0.384583	
-0.384277	
-0.383423	
-0.384338	
-0.383911	
-0.383667	
-0.38324	
-0.383362	
-0.382751	
-0.381653	
-0.381836	
-0.382385	
-0.380859	
-0.381042	
-0.380981	
-0.379883	
-0.38147	
-0.380859	
-0.38147	
-0.380615	
-0.380432	
-0.380493	
-0.380371	
-0.379822	
-0.381348	
-0.380859	
-0.38208	
-0.381714	
-0.382385	
-0.382202	
-0.382629	
-0.382324	
-0.381165	
-0.381653	
-0.382202	
-0.381348	
-0.382629	
-0.38147	
-0.381104	
-0.381104	
-0.380554	
-0.380798	
-0.380859	
-0.381165	
-0.380798	
-0.3797	
-0.379456	
-0.379028	
-0.379517	
-0.379761	
-0.378967	
-0.378967	
-0.378296	
-0.378906	
-0.378418	
-0.378418	
-0.379272	
-0.377258	
-0.378723	
-0.378967	
-0.378784	
-0.380005	
-0.378845	
-0.378601	
-0.379333	
-0.378967	
-0.380249	
-0.379578	
-0.380432	
-0.380432	
-0.3797	
-0.379761	
-0.3797	
-0.379944	
-0.380249	
-0.379639	
-0.380066	
-0.380188	
-0.381165	
-0.380554	
-0.380798	
-0.381287	
-0.380249	
-0.381592	
-0.382019	
-0.381042	
-0.382141	
-0.381897	
-0.381348	
-0.382141	
-0.381104	
-0.38269	
-0.383179	
-0.383362	
-0.384277	
-0.38324	
-0.383667	
-0.384155	
-0.384155	
-0.38562	
-0.384888	
-0.385315	
-0.385254	
-0.385925	
-0.385559	
-0.385986	
-0.38678	
-0.384888	
-0.386169	
-0.386047	
-0.38562	
-0.386963	
-0.386536	
-0.386169	
-0.386169	
-0.385742	
-0.38678	
-0.385925	
-0.385803	
-0.386902	
-0.385193	
-0.385193	
-0.385742	
-0.385437	
-0.386719	
-0.385925	
-0.386169	
-0.386353	
-0.386536	
-0.386841	
-0.387329	
-0.388184	
-0.38739	
-0.388062	
-0.388855	
-0.389221	
-0.389404	
-0.389587	
-0.389893	
-0.389526	
-0.390869	
-0.391724	
-0.391785	
-0.391907	
-0.392761	
-0.391663	
-0.391602	
-0.391357	
-0.390686	
-0.39209	
-0.390686	
-0.390442	
-0.390381	
-0.389038	
-0.390198	
-0.390076	
-0.39032	
-0.390991	
-0.389893	
-0.389954	
-0.389771	
-0.389709	
-0.391357	
-0.39093	
-0.389832	
-0.390808	
-0.391968	
-0.391663	
-0.391357	
-0.392639	
-0.3927	
-0.392822	
-0.392517	
-0.393188	
-0.393433	
-0.393372	
-0.393616	
-0.393005	
-0.393372	
-0.393433	
-0.393127	
-0.393921	
-0.392639	
-0.393433	
-0.393005	
-0.392456	
-0.391968	
-0.393005	
-0.392334	
-0.392212	
-0.392151	
-0.392334	
-0.391663	
-0.391907	
-0.39209	
-0.391113	
-0.391479	
-0.391296	
-0.391418	
-0.390625	
-0.392151	
-0.391113	
-0.39032	
-0.391418	
-0.391541	
-0.391663	
-0.391663	
-0.391479	
-0.39209	
-0.391907	
-0.391846	
-0.391907	
-0.39093	
-0.392029	
-0.390991	
-0.390564	
-0.391052	
-0.390625	
-0.390808	
-0.390015	
-0.390442	
-0.39032	
-0.389221	
-0.389526	
-0.38916	
-0.388367	
-0.387939	
-0.38739	
-0.388611	
-0.387146	
-0.388306	
-0.388062	
-0.388733	
-0.38916	
-0.388977	
-0.389465	
-0.389771	
-0.389648	
-0.39093	
-0.390381	
-0.390869	
-0.391357	
-0.389709	
-0.390869	
-0.391296	
-0.39093	
-0.391479	
-0.391113	
-0.391296	
-0.390686	
-0.389587	
-0.390991	
-0.389648	
-0.391052	
-0.389954	
-0.390137	
-0.390137	
-0.389709	
-0.38916	
-0.389893	
-0.38855	
-0.387939	
-0.387573	
-0.387634	
-0.386963	
-0.386902	
-0.387573	
-0.386047	
-0.386353	
-0.386169	
-0.385986	
-0.386719	
-0.386414	
-0.386536	
-0.386475	
-0.38678	
-0.386841	
-0.385498	
-0.386902	
-0.387695	
-0.385864	
-0.38678	
-0.387512	
-0.387024	
-0.388	
-0.387268	
-0.386414	
-0.386719	
-0.386536	
-0.387756	
-0.386963	
-0.387695	
-0.387329	
-0.387085	
-0.387878	
-0.387695	
-0.387939	
-0.387939	
-0.387756	
-0.387939	
-0.387817	
-0.387817	
-0.387329	
-0.387634	
-0.388794	
-0.387939	
-0.38855	
-0.388855	
-0.389099	
-0.390076	
-0.389832	
-0.39032	
-0.390015	
-0.389771	
-0.390808	
-0.390503	
-0.390686	
-0.391357	
-0.390015	
-0.391174	
-0.391785	
-0.391052	
-0.391418	
-0.390686	
-0.389221	
-0.390198	
-0.389893	
-0.390381	
-0.390381	
-0.391052	
-0.389587	
-0.390259	
-0.389893	
-0.389771	
-0.389954	
-0.390625	
-0.39093	
-0.390625	
-0.390564	
-0.391541	
-0.39093	
-0.391418	
-0.392517	
-0.391846	
-0.392273	
-0.393433	
-0.392334	
-0.393311	
-0.393555	
-0.393127	
-0.393616	
-0.392883	
-0.394836	
-0.393921	
-0.393799	
-0.39447	
-0.385986	
-0.385498	
-0.385681	
-0.384949	
-0.385925	
-0.385071	
-0.39093	
-0.392883	
-0.392029	
-0.393005	
-0.393372	
-0.393799	
-0.393494	
-0.39386	
-0.394104	
-0.394348	
-0.39447	
-0.394897	
-0.394775	
-0.394897	
-0.395203	
-0.395569	
-0.395813	
-0.39624	
-0.397156	
-0.396423	
-0.396851	
-0.397217	
-0.396973	
-0.398193	
-0.39917	
-0.397461	
-0.397644	
-0.397034	
-0.397827	
-0.397766	
-0.3974	
-0.397949	
-0.396179	
-0.396729	
-0.396729	
-0.396179	
-0.397339	
-0.396912	
-0.395264	
-0.395996	
-0.395447	
-0.397339	
-0.396057	
-0.396179	
-0.396973	
-0.396362	
-0.395996	
-0.396484	
-0.395874	
-0.396362	
-0.395935	
-0.394409	
-0.395081	
-0.395203	
-0.395935	
-0.39502	
-0.395325	
-0.394775	
-0.394592	
-0.394714	
-0.393677	
-0.394226	
-0.394226	
-0.393005	
-0.392944	
-0.392517	
-0.392578	
-0.392456	
-0.392029	
-0.392151	
-0.390686	
-0.390808	
-0.391357	
-0.389404	
-0.390808	
-0.390503	
-0.38916	
-0.389709	
-0.389282	
-0.390991	
-0.390686	
-0.390564	
-0.391724	
-0.390991	
-0.393311	
-0.395203	
-0.39563	
-0.396851	
-0.397766	
-0.399353	
-0.400024	
-0.400818	
-0.403381	
-0.40387	
-0.405701	
-0.406006	
-0.408325	
-0.410217	
-0.409607	
-0.412109	
-0.41333	
-0.414307	
-0.416077	
-0.416443	
-0.418335	
-0.41803	
-0.418762	
-0.418457	
-0.418884	
-0.420288	
-0.420166	
-0.422546	
-0.422791	
-0.422119	
-0.424438	
-0.4245	
-0.426453	
-0.427124	
-0.428894	
-0.429688	
-0.431702	
-0.434021	
-0.43396	
-0.437439	
-0.438904	
-0.439575	
-0.44165	
-0.442566	
-0.445313	
-0.445679	
-0.446228	
-0.447205	
-0.446045	
-0.447388	
-0.447693	
-0.448364	
-0.449341	
-0.449341	
-0.450073	
-0.4505	
-0.450867	
-0.452393	
-0.453308	
-0.455261	
-0.454956	
-0.456665	
-0.457336	
-0.45636	
-0.457397	
-0.457703	
-0.456238	
-0.457031	
-0.455688	
-0.457947	
-0.455811	
-0.456055	
-0.455811	
-0.455688	
-0.455811	
-0.455017	
-0.45459	
-0.45459	
-0.452271	
-0.451782	
-0.450012	
-0.448242	
-0.448975	
-0.447754	
-0.44751	
-0.444336	
-0.442993	
-0.44165	
-0.439392	
-0.437683	
-0.434814	
-0.432251	
-0.429626	
-0.426086	
-0.426575	
-0.42395	
-0.422729	
-0.419983	
-0.416931	
-0.416382	
-0.413635	
-0.411682	
-0.410828	
-0.407104	
-0.405457	
-0.403259	
-0.401245	
-0.400269	
-0.398438	
-0.3974	
-0.39502	
-0.394165	
-0.393127	
-0.390991	
-0.391479	
-0.390625	
-0.38916	
-0.388733	
-0.386902	
-0.386597	
-0.385986	
-0.38501	
-0.384521	
-0.381042	
-0.38092	
-0.378967	
-0.377686	
-0.378113	
-0.375549	
-0.375244	
-0.374329	
-0.373718	
-0.373169	
-0.37207	
-0.37207	
-0.370789	
-0.370483	
-0.370911	
-0.368164	
-0.36908	
-0.368774	
-0.366943	
-0.366333	
-0.365356	
-0.365479	
-0.36438	
-0.363708	
-0.363525	
-0.361511	
-0.362061	
-0.361145	
-0.361023	
-0.360229	
-0.358032	
-0.359314	
-0.35907	
-0.35907	
-0.359009	
-0.359131	
-0.359863	
-0.358948	
-0.359436	
-0.359985	
-0.360107	
-0.361633	
-0.361023	
-0.361938	
-0.362488	
-0.363098	
-0.36377	
-0.364624	
-0.365479	
-0.365723	
-0.366272	
-0.367065	
-0.36676	
-0.36853	
-0.368286	
-0.368713	
-0.36908	
-0.368774	
-0.370483	
-0.370605	
-0.37146	
-0.371155	
-0.371704	
-0.372192	
-0.370789	
-0.372742	
-0.373413	
-0.372864	
-0.373108	
-0.371704	
-0.373352	
-0.372864	
-0.373291	
-0.372437	
-0.373108	
-0.372681	
-0.37146	
-0.373169	
-0.373047	
-0.372437	
-0.372498	
-0.372009	
-0.372192	
-0.372314	
-0.373169	
-0.372742	
-0.373413	
-0.374695	
-0.374878	
-0.375122	
-0.375854	
-0.375366	
-0.37616	
-0.375122	
-0.375488	
-0.375793	
-0.376404	
-0.37616	
-0.375183	
-0.376404	
-0.375793	
-0.376099	
-0.376648	
-0.375916	
-0.375793	
-0.375183	
-0.374634	
-0.375183	
-0.375305	
-0.37561	
-0.373718	
-0.374939	
-0.374573	
-0.374207	
-0.375244	
-0.374146	
-0.374268	
-0.374634	
-0.373779	
-0.376099	
-0.375244	
-0.376709	
-0.376526	
-0.377502	
-0.376953	
-0.376587	
-0.377563	
-0.378601	
-0.377563	
-0.377991	
-0.376953	
-0.378479	
-0.377441	
-0.377686	
-0.377747	
-0.376709	
-0.378479	
-0.377258	
-0.376953	
-0.377197	
-0.37677	
-0.376282	
-0.375732	
-0.375061	
-0.376404	
-0.375671	
-0.375549	
-0.375671	
-0.375732	
-0.37561	
-0.374878	
-0.375244	
-0.376099	
-0.375305	
-0.374939	
-0.375122	
-0.375061	
-0.376526	
-0.376709	
-0.376648	
-0.375305	
-0.37793	
-0.37738	
-0.377319	
-0.377808	
-0.376709	
-0.377686	
-0.377686	
-0.37616	
-0.377808	
-0.377563	
-0.377869	
-0.377258	
-0.378174	
-0.377869	
-0.377441	
-0.378479	
-0.379089	
-0.378845	
-0.37915	
-0.379211	
-0.379517	
-0.379639	
-0.380005	
-0.380798	
-0.378784	
-0.380615	
-0.380371	
-0.380432	
-0.381897	
-0.380859	
-0.381348	
-0.381226	
-0.380005	
-0.382935	
-0.382324	
-0.383118	
-0.382813	
-0.382813	
-0.38324	
-0.382751	
-0.384155	
-0.384583	
-0.383911	
-0.384155	
-0.383789	
-0.383728	
-0.384155	
-0.38446	
-0.385132	
-0.383545	
-0.385193	
-0.383606	
-0.383789	
-0.383667	
-0.382507	
-0.383118	
-0.382813	
-0.382324	
-0.383911	
-0.382935	
-0.383057	
-0.383057	
-0.382935	
-0.383667	
-0.383362	
-0.383728	
-0.38501	
-0.384399	
-0.384583	
-0.384705	
-0.383911	
-0.386475	
-0.386169	
-0.387329	
-0.386902	
-0.387878	
-0.387573	
-0.38678	
-0.388306	
-0.388733	
-0.388672	
-0.389099	
-0.388428	
-0.388184	
-0.388611	
-0.388489	
-0.388062	
-0.387878	
-0.387451	
-0.387024	
-0.386841	
-0.387634	
-0.387695	
-0.387146	
-0.387207	
-0.38678	
-0.387817	
-0.387756	
-0.388123	
-0.387939	
-0.388428	
-0.388611	
-0.387329	
-0.38855	
-0.388794	
-0.388855	
-0.389404	
-0.388977	
-0.387817	
-0.390137	
-0.390686	
-0.391174	
-0.389954	
-0.391907	
-0.391052	
-0.391113	
-0.391479	
-0.391968	
-0.390808	
-0.390503	
-0.390503	
-0.391052	
-0.390259	
-0.390503	
-0.389832	
-0.389954	
-0.389587	
-0.388855	
-0.389465	
-0.389648	
-0.390198	
-0.389954	
-0.389465	
-0.388245	
-0.389709	
-0.389343	
-0.389832	
-0.389099	
-0.389526	
-0.388855	
-0.389587	
-0.389709	
-0.391541	
-0.389465	
-0.389648	
-0.389404	
-0.388733	
-0.389343	
-0.390259	
-0.389038	
-0.387817	
-0.388672	
-0.387512	
-0.388428	
-0.38855	
-0.388855	
-0.387634	
-0.387451	
-0.386108	
-0.38739	
-0.386841	
-0.38678	
-0.386841	
-0.386658	
-0.386353	
-0.386108	
-0.385864	
-0.386108	
-0.386658	
-0.386658	
-0.386658	
-0.387451	
-0.387939	
-0.388123	
-0.388184	
-0.388611	
-0.388672	
-0.387573	
-0.38855	
-0.388855	
-0.388977	
-0.388916	
-0.388306	
-0.387451	
-0.388184	
-0.389404	
-0.389648	
-0.388672	
-0.389404	
-0.38855	
-0.388184	
-0.388062	
-0.387268	
-0.388916	
-0.387512	
-0.386841	
-0.386475	
-0.38678	
-0.386475	
-0.38562	
-0.385559	
-0.384094	
-0.384521	
-0.385132	
-0.385254	
-0.384399	
-0.385315	
-0.384644	
-0.383972	
-0.384521	
-0.386169	
-0.385986	
-0.385132	
-0.385437	
-0.38501	
-0.385437	
-0.385437	
-0.38501	
-0.385681	
-0.385254	
-0.385254	
-0.38501	
-0.384399	
-0.38562	
-0.385742	
-0.385437	
-0.385803	
-0.385071	
-0.385742	
-0.386475	
-0.385925	
-0.386841	
-0.386108	
-0.385132	
-0.385315	
-0.386841	
-0.386841	
-0.386108	
-0.386658	
-0.385193	
-0.385681	
-0.386963	
-0.387024	
-0.388306	
-0.387451	
-0.387939	
-0.388306	
-0.388306	
-0.389343	
-0.389709	
-0.389038	
-0.388672	
-0.388977	
-0.388855	
-0.389404	
-0.389771	
-0.390137	
-0.389404	
-0.388855	
-0.389221	
-0.388123	
-0.388977	
-0.388855	
-0.389343	
-0.387939	
-0.388123	
-0.388855	
-0.387512	
-0.388855	
-0.389648	
-0.388245	
-0.388611	
-0.389038	
-0.389954	
-0.389526	
-0.389465	
-0.390381	
-0.388306	
-0.389954	
-0.390869	
-0.390869	
-0.391296	
-0.391357	
-0.390808	
-0.391602	
-0.391296	
-0.393066	
-0.392761	
-0.393127	
-0.392639	
-0.392273	
-0.391663	
-0.392151	
-0.391418	
-0.391907	
-0.39093	
-0.391357	
-0.390686	
-0.390137	
-0.391174	
-0.390991	
-0.391785	
-0.390686	
-0.390808	
-0.392212	
-0.390808	
-0.392029	
-0.392456	
-0.390991	
-0.39209	
-0.392456	
-0.393127	
-0.39386	
-0.394043	
-0.394653	
-0.392761	
-0.393494	
-0.394531	
-0.394714	
-0.395569	
-0.395325	
-0.395752	
-0.395935	
-0.395508	
-0.396423	
-0.397278	
-0.396118	
-0.39563	
-0.395386	
-0.394653	
-0.394958	
-0.394775	
-0.395447	
-0.394226	
-0.394775	
-0.394531	
-0.394104	
-0.394714	
-0.394897	
-0.39502	
-0.393921	
-0.394226	
-0.394897	
-0.393494	
-0.39502	
-0.39502	
-0.394409	
-0.394043	
-0.393982	
-0.394226	
-0.394287	
-0.39325	
-0.394409	
-0.392456	
-0.393127	
-0.393494	
-0.393433	
-0.393311	
-0.392029	
-0.392883	
-0.392212	
-0.391846	
-0.393188	
-0.391724	
-0.391907	
-0.39093	
-0.390015	
-0.390198	
-0.389832	
-0.389771	
-0.390198	
-0.389282	
-0.389221	
-0.389038	
-0.388855	
-0.389343	
-0.389709	
-0.389221	
-0.388489	
-0.38855	
-0.388123	
-0.387146	
-0.388916	
-0.388855	
-0.388672	
-0.389343	
-0.389465	
-0.39032	
-0.390076	
-0.390076	
-0.390259	
-0.389587	
-0.390564	
-0.389526	
-0.389954	
-0.389954	
-0.388367	
-0.388855	
-0.388794	
-0.387756	
-0.388733	
-0.388306	
-0.387207	
-0.386963	
-0.38678	
-0.385864	
-0.385193	
-0.385498	
-0.385376	
-0.385315	
-0.384583	
-0.384338	
-0.384338	
-0.384949	
-0.384399	
-0.38446	
-0.383911	
-0.385254	
-0.384338	
-0.383484	
-0.385437	
-0.384094	
-0.385559	
-0.385742	
-0.384888	
-0.386658	
-0.386169	
-0.385864	
-0.385803	
-0.38501	
-0.385376	
-0.384583	
-0.384888	
-0.385376	
-0.384766	
-0.384766	
-0.384338	
-0.38385	
-0.38501	
-0.384827	
-0.383972	
-0.383362	
-0.383545	
-0.381897	
-0.382263	
-0.382568	
-0.381836	
-0.382507	
-0.382629	
-0.381958	
-0.382507	
-0.382996	
-0.383301	
-0.38324	
-0.382813	
-0.38385	
-0.383606	
-0.382263	
-0.38385	
-0.383667	
-0.384033	
-0.38385	
-0.382385	
-0.384277	
-0.383606	
-0.383972	
-0.384155	
-0.382935	
-0.383057	
-0.383667	
-0.383911	
-0.384399	
-0.384216	
-0.38446	
-0.383728	
-0.384277	
-0.383667	
-0.384949	
-0.384766	
-0.383911	
-0.385193	
-0.38324	
-0.383606	
-0.38501	
-0.384399	
-0.385193	
-0.38562	
-0.385132	
-0.386047	
-0.386292	
-0.386536	
-0.387268	
-0.386047	
-0.387085	
-0.386719	
-0.387512	
-0.387573	
-0.386658	
-0.387268	
-0.387329	
-0.388062	
-0.387329	
-0.387207	
-0.386841	
-0.38623	
-0.386047	
-0.384644	
-0.384766	
-0.385254	
-0.384888	
-0.384766	
-0.384277	
-0.385132	
-0.385437	
-0.384766	
-0.385681	
-0.385559	
-0.383545	
-0.385498	
-0.383484	
-0.38385	
-0.385559	
-0.384521	
-0.385376	
-0.385498	
-0.384644	
-0.387024	
-0.386292	
-0.387146	
-0.387207	
-0.387451	
-0.388123	
-0.387451	
-0.388367	
-0.388489	
-0.388489	
-0.389099	
-0.388855	
-0.389587	
-0.38916	
-0.389526	
-0.389343	
-0.388489	
-0.388794	
-0.388062	
-0.388123	
-0.388794	
-0.388489	
-0.38855	
-0.388306	
-0.388	
-0.389099	
-0.38855	
-0.389465	
-0.388977	
-0.387451	
-0.388794	
-0.387573	
-0.387207	
-0.388672	
-0.387207	
-0.388428	
-0.388184	
-0.387329	
-0.388611	
-0.388306	
-0.38916	
-0.388733	
-0.387939	
-0.388062	
-0.387573	
-0.388062	
-0.388	
-0.387146	
-0.387512	
-0.387329	
-0.386414	
-0.385925	
-0.386597	
-0.385681	
-0.384583	
-0.385315	
-0.383972	
-0.384827	
-0.385132	
-0.38446	
-0.384827	
-0.384888	
-0.383606	
-0.384644	
-0.384583	
-0.385071	
-0.385071	
-0.383789	
-0.385681	
-0.385315	
-0.38446	
-0.386169	
-0.38446	
-0.385315	
-0.385376	
-0.385864	
-0.385498	
-0.385254	
-0.385071	
-0.384949	
-0.384216	
-0.384216	
-0.384155	
-0.384033	
-0.384155	
-0.38385	
-0.383484	
-0.382324	
-0.382935	
-0.382568	
-0.382996	
-0.382446	
-0.381348	
-0.381653	
-0.380615	
-0.381042	
-0.381897	
-0.381165	
-0.381409	
-0.381287	
-0.381897	
-0.382935	
	
