E:\DOCUMENTS AND SETTINGS\JPOTAS\MEUS DOCUMENTOS\UFRJ\RSCI-BM 12 WK SERIES\070731-RSCI-BM-12\RSCI-BM-12-REMG\070731-RSCI-BM-12-REMG-0006.ACQ
0.025000 msec/sample
1 channel
Analog input
Volts
CH1	
2000	
-0.390076	
-0.389954	
-0.388489	
-0.39093	
-0.392151	
-0.39093	
-0.390869	
-0.391724	
-0.390381	
-0.391663	
-0.391785	
-0.39325	
-0.391113	
-0.390625	
-0.390015	
-0.387817	
-0.39032	
-0.391113	
-0.389526	
-0.389221	
-0.388977	
-0.388062	
-0.388306	
-0.388184	
-0.389282	
-0.386353	
-0.386169	
-0.385132	
-0.383118	
-0.38501	
-0.38623	
-0.385071	
-0.385071	
-0.384949	
-0.385498	
-0.385559	
-0.385376	
-0.387512	
-0.385864	
-0.384766	
-0.384949	
-0.382996	
-0.385437	
-0.385803	
-0.385376	
-0.385071	
-0.385254	
-0.384888	
-0.385315	
-0.385742	
-0.388	
-0.385559	
-0.38623	
-0.385864	
-0.383728	
-0.387085	
-0.387146	
-0.386719	
-0.386658	
-0.387024	
-0.387573	
-0.388367	
-0.388916	
-0.390991	
-0.389709	
-0.389893	
-0.389404	
-0.38916	
-0.391418	
-0.392334	
-0.391541	
-0.392151	
-0.391479	
-0.391479	
-0.392334	
-0.393555	
-0.394104	
-0.393127	
-0.393066	
-0.393311	
-0.391357	
-0.393555	
-0.393311	
-0.392578	
-0.392273	
-0.392029	
-0.391235	
-0.392456	
-0.391602	
-0.392395	
-0.390808	
-0.391052	
-0.390137	
-0.389526	
-0.39032	
-0.390503	
-0.390503	
-0.389282	
-0.388977	
-0.388916	
-0.389404	
-0.389404	
-0.390503	
-0.388916	
-0.389404	
-0.388123	
-0.387268	
-0.388428	
-0.388916	
-0.388	
-0.388184	
-0.387268	
-0.387329	
-0.387695	
-0.387939	
-0.388611	
-0.387695	
-0.387634	
-0.387268	
-0.386841	
-0.388184	
-0.388062	
-0.388062	
-0.387756	
-0.387451	
-0.387451	
-0.388	
-0.388062	
-0.388123	
-0.387451	
-0.387573	
-0.387634	
-0.388123	
-0.388428	
-0.389099	
-0.388062	
-0.387878	
-0.387329	
-0.387085	
-0.388184	
-0.388428	
-0.388367	
-0.388428	
-0.387939	
-0.38739	
-0.387756	
-0.388733	
-0.38916	
-0.388245	
-0.387939	
-0.387146	
-0.386963	
-0.388672	
-0.389587	
-0.388367	
-0.387878	
-0.388306	
-0.387634	
-0.388184	
-0.388855	
-0.389038	
-0.388611	
-0.387939	
-0.386597	
-0.38678	
-0.387634	
-0.388428	
-0.38739	
-0.387634	
-0.387329	
-0.386353	
-0.387451	
-0.388489	
-0.387756	
-0.387085	
-0.387085	
-0.386169	
-0.385803	
-0.386841	
-0.387573	
-0.387085	
-0.386841	
-0.387085	
-0.385559	
-0.38678	
-0.387756	
-0.386841	
-0.386597	
-0.386108	
-0.384644	
-0.385132	
-0.385376	
-0.386475	
-0.385254	
-0.385437	
-0.384705	
-0.384033	
-0.384705	
-0.378967	
-0.378235	
-0.378296	
-0.378296	
-0.378479	
-0.380676	
-0.387512	
-0.390137	
-0.389587	
-0.389587	
-0.390076	
-0.389038	
-0.390869	
-0.391113	
-0.391357	
-0.391846	
-0.391907	
-0.392517	
-0.392212	
-0.393005	
-0.394348	
-0.393127	
-0.393066	
-0.392761	
-0.391602	
-0.393372	
-0.39325	
-0.393555	
-0.392639	
-0.392944	
-0.392822	
-0.393372	
-0.39325	
-0.395508	
-0.39386	
-0.393799	
-0.392761	
-0.391907	
-0.393494	
-0.394043	
-0.393921	
-0.393494	
-0.3927	
-0.393372	
-0.393311	
-0.394165	
-0.395386	
-0.393799	
-0.394043	
-0.39325	
-0.392517	
-0.393738	
-0.393311	
-0.393555	
-0.393311	
-0.392761	
-0.392822	
-0.39209	
-0.391663	
-0.393066	
-0.390808	
-0.39032	
-0.38916	
-0.386963	
-0.388916	
-0.389038	
-0.389282	
-0.38916	
-0.388428	
-0.388367	
-0.388245	
-0.388977	
-0.390259	
-0.388611	
-0.389343	
-0.388306	
-0.38678	
-0.389221	
-0.389954	
-0.38916	
-0.383667	
-0.382324	
-0.383423	
-0.383606	
-0.384094	
-0.386719	
-0.392029	
-0.393188	
-0.393677	
-0.394165	
-0.396484	
-0.397644	
-0.399414	
-0.400879	
-0.401184	
-0.403015	
-0.403992	
-0.406006	
-0.407837	
-0.409302	
-0.40979	
-0.410095	
-0.411621	
-0.413818	
-0.415161	
-0.41748	
-0.418335	
-0.420227	
-0.421387	
-0.42157	
-0.424255	
-0.424194	
-0.424561	
-0.424683	
-0.425476	
-0.427917	
-0.428589	
-0.429749	
-0.430786	
-0.431396	
-0.432922	
-0.433838	
-0.435303	
-0.434692	
-0.436096	
-0.43573	
-0.435486	
-0.437439	
-0.437683	
-0.438721	
-0.44043	
-0.440796	
-0.441284	
-0.441895	
-0.442444	
-0.444275	
-0.44397	
-0.443665	
-0.443481	
-0.443665	
-0.445251	
-0.445862	
-0.447937	
-0.450256	
-0.450745	
-0.451538	
-0.453796	
-0.453918	
-0.456604	
-0.457397	
-0.458435	
-0.459106	
-0.459961	
-0.461487	
-0.461853	
-0.462463	
-0.463928	
-0.46228	
-0.463013	
-0.463318	
-0.463806	
-0.46405	
-0.462769	
-0.461853	
-0.460205	
-0.460571	
-0.460327	
-0.458923	
-0.457764	
-0.45697	
-0.454773	
-0.454895	
-0.453857	
-0.454041	
-0.452698	
-0.451599	
-0.449707	
-0.447571	
-0.446533	
-0.444458	
-0.442993	
-0.441528	
-0.439331	
-0.437561	
-0.434937	
-0.433411	
-0.432739	
-0.431091	
-0.430054	
-0.428284	
-0.426819	
-0.42627	
-0.424316	
-0.423828	
-0.422668	
-0.421265	
-0.420044	
-0.418701	
-0.417297	
-0.41748	
-0.415588	
-0.415039	
-0.413208	
-0.411682	
-0.411377	
-0.410889	
-0.410461	
-0.411194	
-0.409241	
-0.409668	
-0.409424	
-0.40802	
-0.410217	
-0.408142	
-0.408325	
-0.406799	
-0.406494	
-0.406494	
-0.405945	
-0.404907	
-0.404114	
-0.401306	
-0.401184	
-0.399658	
-0.398132	
-0.399536	
-0.398193	
-0.397705	
-0.396606	
-0.396484	
-0.396729	
-0.395752	
-0.39502	
-0.395203	
-0.393555	
-0.393799	
-0.393677	
-0.393494	
-0.394043	
-0.394043	
-0.394775	
-0.394836	
-0.395691	
-0.397339	
-0.397644	
-0.399292	
-0.400574	
-0.401001	
-0.403931	
-0.405029	
-0.408142	
-0.409668	
-0.411804	
-0.414307	
-0.414551	
-0.418274	
-0.420654	
-0.422546	
-0.424438	
-0.424866	
-0.425354	
-0.426453	
-0.426147	
-0.427795	
-0.426636	
-0.427551	
-0.426025	
-0.423828	
-0.42511	
-0.424683	
-0.424561	
-0.424622	
-0.422668	
-0.422241	
-0.420959	
-0.4198	
-0.421082	
-0.41864	
-0.41803	
-0.416809	
-0.413757	
-0.414368	
-0.413269	
-0.412537	
-0.411621	
-0.408997	
-0.408386	
-0.406433	
-0.40448	
-0.405029	
-0.402222	
-0.401245	
-0.399597	
-0.396362	
-0.397461	
-0.395142	
-0.395508	
-0.394836	
-0.393555	
-0.393066	
-0.392944	
-0.392456	
-0.394226	
-0.392578	
-0.393616	
-0.392029	
-0.391541	
-0.392151	
-0.390564	
-0.391602	
-0.391174	
-0.389709	
-0.389648	
-0.389709	
-0.389343	
-0.388245	
-0.387329	
-0.386902	
-0.385437	
-0.385132	
-0.384888	
-0.383728	
-0.384399	
-0.384277	
-0.383911	
-0.383179	
-0.382385	
-0.383423	
-0.381042	
-0.380554	
-0.379272	
-0.376282	
-0.377136	
-0.375549	
-0.375122	
-0.375	
-0.372009	
-0.372253	
-0.370972	
-0.369385	
-0.370361	
-0.368164	
-0.367859	
-0.366577	
-0.366333	
-0.365479	
-0.365173	
-0.365417	
-0.364502	
-0.364075	
-0.364319	
-0.363525	
-0.364563	
-0.363159	
-0.363342	
-0.362671	
-0.361267	
-0.36322	
-0.362549	
-0.362488	
-0.362427	
-0.361633	
-0.363037	
-0.362854	
-0.362427	
-0.363159	
-0.363647	
-0.363708	
-0.362305	
-0.363831	
-0.364624	
-0.364319	
-0.364563	
-0.36438	
-0.36554	
-0.365234	
-0.365906	
-0.367188	
-0.36615	
-0.366638	
-0.367432	
-0.367249	
-0.368774	
-0.368469	
-0.370361	
-0.371155	
-0.37085	
-0.371765	
-0.372559	
-0.372681	
-0.37323	
-0.374207	
-0.374756	
-0.375549	
-0.377258	
-0.377563	
-0.378296	
-0.378967	
-0.379211	
-0.380066	
-0.380432	
-0.380798	
-0.381714	
-0.381409	
-0.381409	
-0.381287	
-0.381287	
-0.383423	
-0.381287	
-0.382874	
-0.383057	
-0.381714	
-0.381958	
-0.38269	
-0.383362	
-0.383606	
-0.383301	
-0.383911	
-0.381714	
-0.383667	
-0.382935	
-0.383423	
-0.383606	
-0.38446	
-0.384705	
-0.384277	
-0.384277	
-0.385498	
-0.384827	
-0.38501	
-0.384705	
-0.385498	
-0.387024	
-0.385864	
-0.387085	
-0.38739	
-0.386841	
-0.387878	
-0.388306	
-0.388184	
-0.388855	
-0.388672	
-0.389343	
-0.388	
-0.388733	
-0.389038	
-0.387817	
-0.388245	
-0.388	
-0.387268	
-0.387512	
-0.386963	
-0.387268	
-0.386719	
-0.38678	
-0.386658	
-0.385376	
-0.386169	
-0.386169	
-0.38562	
-0.385742	
-0.385559	
-0.385864	
-0.386353	
-0.38623	
-0.38678	
-0.386597	
-0.387146	
-0.387695	
-0.385803	
-0.388306	
-0.387695	
-0.388306	
-0.388489	
-0.388916	
-0.388672	
-0.38916	
-0.389526	
-0.390564	
-0.390137	
-0.390381	
-0.390137	
-0.388611	
-0.389771	
-0.389038	
-0.389648	
-0.389038	
-0.38916	
-0.388855	
-0.38916	
-0.38855	
-0.388428	
-0.388062	
-0.388245	
-0.386108	
-0.387207	
-0.386658	
-0.385559	
-0.386536	
-0.386658	
-0.386414	
-0.386108	
-0.386475	
-0.386536	
-0.386475	
-0.386597	
-0.386902	
-0.384216	
-0.387268	
-0.386353	
-0.38678	
-0.38678	
-0.386597	
-0.387085	
-0.387451	
-0.387817	
-0.388489	
-0.387878	
-0.388672	
-0.388367	
-0.38855	
-0.389038	
-0.38916	
-0.389587	
-0.390137	
-0.39032	
-0.390015	
-0.390625	
-0.391785	
-0.391724	
-0.392212	
-0.393005	
-0.392578	
-0.393738	
-0.393921	
-0.39386	
-0.395508	
-0.394714	
-0.395874	
-0.395752	
-0.396057	
-0.397217	
-0.396729	
-0.396912	
-0.397583	
-0.39563	
-0.398376	
-0.397583	
-0.396118	
-0.397278	
-0.396362	
-0.396912	
-0.395752	
-0.395996	
-0.396484	
-0.395203	
-0.394836	
-0.395142	
-0.392334	
-0.394714	
-0.393066	
-0.392212	
-0.3927	
-0.393311	
-0.392456	
-0.392151	
-0.391418	
-0.391418	
-0.391235	
-0.391235	
-0.391357	
-0.390198	
-0.390869	
-0.39032	
-0.388794	
-0.389526	
-0.390015	
-0.388916	
-0.389221	
-0.389343	
-0.388367	
-0.388062	
-0.38739	
-0.386475	
-0.385986	
-0.386108	
-0.385437	
-0.384216	
-0.385254	
-0.385193	
-0.384399	
-0.383667	
-0.385254	
-0.384888	
-0.384155	
-0.383362	
-0.383972	
-0.38324	
-0.383423	
-0.383301	
-0.382446	
-0.383301	
-0.384155	
-0.384155	
-0.384094	
-0.384338	
-0.385132	
-0.384949	
-0.385132	
-0.385925	
-0.386658	
-0.385803	
-0.38562	
-0.384888	
-0.385193	
-0.386536	
-0.386169	
-0.386902	
-0.386658	
-0.387512	
-0.386902	
-0.387207	
-0.388184	
-0.387695	
-0.38739	
-0.387573	
-0.386475	
-0.387817	
-0.387756	
-0.387634	
-0.388062	
-0.386841	
-0.387695	
-0.387634	
-0.386414	
-0.388611	
-0.387451	
-0.388062	
-0.387329	
-0.386658	
-0.388062	
-0.387756	
-0.387695	
-0.388062	
-0.386719	
-0.387939	
-0.387207	
-0.386047	
-0.388	
-0.387024	
-0.386902	
-0.386841	
-0.385681	
-0.387451	
-0.387146	
-0.386536	
-0.38678	
-0.385132	
-0.385681	
-0.384888	
-0.383789	
-0.385193	
-0.38446	
-0.384338	
-0.384094	
-0.383972	
-0.384949	
-0.384155	
-0.384521	
-0.38501	
-0.384399	
-0.384827	
-0.386169	
-0.385376	
-0.387634	
-0.387024	
-0.387878	
-0.387939	
-0.388428	
-0.389587	
-0.389465	
-0.389648	
-0.390564	
-0.390198	
-0.390137	
-0.389893	
-0.389343	
-0.391174	
-0.390076	
-0.390198	
-0.390015	
-0.389648	
-0.391052	
-0.390442	
-0.390198	
-0.391785	
-0.391418	
-0.390442	
-0.390625	
-0.389648	
-0.39093	
-0.390747	
-0.390625	
-0.390198	
-0.389526	
-0.391724	
-0.390503	
-0.391113	
-0.391418	
-0.391296	
-0.390198	
-0.390442	
-0.389954	
-0.390442	
-0.390442	
-0.390198	
-0.389771	
-0.389771	
-0.390381	
-0.390747	
-0.390503	
-0.391663	
-0.391235	
-0.389648	
-0.389038	
-0.389465	
-0.389526	
-0.388062	
-0.387512	
-0.386963	
-0.387207	
-0.38739	
-0.386841	
-0.387207	
-0.387817	
-0.386963	
-0.387329	
-0.386658	
-0.386963	
-0.387756	
-0.386536	
-0.386353	
-0.385498	
-0.387634	
-0.387756	
-0.387939	
-0.388184	
-0.38916	
-0.388855	
-0.38855	
-0.388733	
-0.388489	
-0.388733	
-0.388306	
-0.38916	
-0.388	
-0.389282	
-0.388916	
-0.389282	
-0.389893	
-0.390015	
-0.389465	
-0.389832	
-0.389038	
-0.388916	
-0.389832	
-0.389282	
-0.388977	
-0.387817	
-0.389832	
-0.388855	
-0.388977	
-0.388733	
-0.389099	
-0.389099	
-0.38916	
-0.388672	
-0.388977	
-0.389099	
-0.388977	
-0.389221	
-0.388428	
-0.390381	
-0.390198	
-0.389954	
-0.390442	
-0.390869	
-0.390564	
-0.390564	
-0.390015	
-0.389343	
-0.39032	
-0.389404	
-0.389038	
-0.389099	
-0.389343	
-0.388794	
-0.38855	
-0.388184	
-0.388611	
-0.387146	
-0.387024	
-0.386353	
-0.385803	
-0.386169	
-0.386047	
-0.385986	
-0.385254	
-0.385559	
-0.385193	
-0.385376	
-0.384949	
-0.386169	
-0.385254	
-0.386047	
-0.385864	
-0.385925	
-0.386597	
-0.387024	
-0.387085	
-0.387268	
-0.387573	
-0.388245	
-0.388184	
-0.388733	
-0.39032	
-0.390625	
-0.390869	
-0.391418	
-0.391541	
-0.392456	
-0.392212	
-0.392639	
-0.393005	
-0.392517	
-0.392029	
-0.392334	
-0.392029	
-0.392456	
-0.391602	
-0.392334	
-0.391052	
-0.392822	
-0.391785	
-0.392273	
-0.391846	
-0.392029	
-0.391418	
-0.391785	
-0.391968	
-0.391174	
-0.392029	
-0.391296	
-0.390808	
-0.389771	
-0.391418	
-0.390808	
-0.390808	
-0.390259	
-0.390564	
-0.390625	
-0.390076	
-0.389709	
-0.389099	
-0.388428	
-0.388	
-0.38739	
-0.386353	
-0.386841	
-0.38623	
-0.386169	
-0.384766	
-0.38501	
-0.385498	
-0.384644	
-0.384521	
-0.384705	
-0.383972	
-0.383606	
-0.383362	
-0.382629	
-0.38385	
-0.38324	
-0.383667	
-0.383606	
-0.384216	
-0.384827	
-0.384949	
-0.385193	
-0.386719	
-0.385437	
-0.385742	
-0.385681	
-0.385315	
-0.386902	
-0.386169	
-0.386597	
-0.386108	
-0.38678	
-0.387146	
-0.386963	
-0.386902	
-0.388123	
-0.387024	
-0.387207	
-0.386963	
-0.386963	
-0.388977	
-0.387756	
-0.387878	
-0.387451	
-0.387329	
-0.388306	
-0.388489	
-0.388489	
-0.389709	
-0.388428	
-0.388611	
-0.388428	
-0.387756	
-0.389404	
-0.388794	
-0.388733	
-0.388062	
-0.387634	
-0.389099	
-0.388855	
-0.388794	
-0.390381	
-0.38855	
-0.388611	
-0.388916	
-0.387207	
-0.389465	
-0.388489	
-0.388428	
-0.387939	
-0.388672	
-0.388611	
-0.388245	
-0.388123	
-0.390076	
-0.388611	
-0.388367	
-0.387756	
-0.387878	
-0.388489	
-0.387878	
-0.387268	
-0.387878	
-0.388123	
-0.387268	
-0.387817	
-0.388	
-0.388855	
-0.387634	
-0.387939	
-0.387451	
-0.387878	
-0.388123	
-0.388	
-0.387695	
-0.387634	
-0.388062	
-0.387817	
-0.387756	
-0.388	
-0.389282	
-0.388306	
-0.388245	
-0.388611	
-0.389343	
-0.388428	
-0.388367	
-0.38855	
-0.389282	
-0.389221	
-0.388855	
-0.388916	
-0.388916	
-0.390259	
-0.389343	
-0.389404	
-0.388977	
-0.390198	
-0.389282	
-0.389648	
-0.389099	
-0.390198	
-0.390076	
-0.390686	
-0.390198	
-0.39032	
-0.391907	
-0.391602	
-0.390869	
-0.391296	
-0.391846	
-0.390991	
-0.391113	
-0.390564	
-0.391663	
-0.390747	
-0.390686	
-0.389832	
-0.389038	
-0.389404	
-0.388611	
-0.387512	
-0.386963	
-0.38739	
-0.38623	
-0.385681	
-0.384949	
-0.384705	
-0.384766	
-0.383972	
-0.384216	
-0.384888	
-0.383728	
-0.383362	
-0.383789	
-0.383667	
-0.38385	
-0.383118	
-0.383545	
-0.383057	
-0.383301	
-0.38269	
-0.382935	
-0.382935	
-0.383545	
-0.383667	
-0.382751	
-0.383362	
-0.382385	
-0.383911	
-0.382996	
-0.382935	
-0.382202	
-0.382263	
-0.382446	
-0.382813	
-0.382324	
-0.382813	
-0.382324	
-0.382629	
-0.382202	
-0.382263	
-0.383423	
-0.383423	
-0.383362	
-0.383362	
-0.383484	
-0.383728	
-0.383606	
-0.383972	
-0.384583	
-0.384766	
-0.385437	
-0.385559	
-0.385986	
-0.38739	
-0.386597	
-0.387085	
-0.38739	
-0.387939	
-0.387451	
-0.387268	
-0.387146	
-0.387817	
-0.387329	
-0.38739	
-0.387207	
-0.386719	
-0.387451	
-0.386475	
-0.386169	
-0.385681	
-0.385254	
-0.38562	
-0.385742	
-0.384583	
-0.385742	
-0.385071	
-0.385742	
-0.385193	
-0.38501	
-0.384644	
-0.385193	
-0.385742	
-0.385437	
-0.384827	
-0.385071	
-0.384949	
-0.384155	
-0.385437	
-0.384705	
-0.38501	
-0.385559	
-0.385559	
-0.38501	
-0.385254	
-0.385925	
-0.385559	
-0.385498	
-0.384949	
-0.385559	
-0.384766	
-0.386169	
-0.385132	
-0.38501	
-0.385437	
-0.38501	
-0.384888	
-0.384094	
-0.384521	
-0.383362	
-0.384094	
-0.384399	
-0.384399	
-0.384155	
-0.385498	
-0.384888	
-0.385193	
-0.38501	
-0.384827	
-0.385071	
-0.385071	
-0.38562	
-0.385315	
-0.386475	
-0.386414	
-0.386841	
-0.38678	
-0.388062	
-0.387512	
-0.387634	
-0.388184	
-0.386658	
-0.388489	
-0.388367	
-0.388306	
-0.388855	
-0.388428	
-0.388245	
-0.388306	
-0.388489	
-0.388977	
-0.387573	
-0.387573	
-0.387756	
-0.386108	
-0.38678	
-0.386536	
-0.386108	
-0.385559	
-0.385193	
-0.384827	
-0.384155	
-0.383667	
-0.384216	
-0.382629	
-0.382874	
-0.382385	
-0.381226	
-0.382324	
-0.382385	
-0.381958	
-0.382507	
-0.382324	
-0.382629	
-0.382019	
-0.382629	
-0.384033	
-0.382141	
-0.382202	
-0.382507	
-0.380676	
-0.382263	
-0.382141	
-0.381531	
-0.382385	
-0.382629	
-0.382568	
-0.382935	
-0.38324	
-0.385132	
-0.383606	
-0.383301	
-0.384155	
-0.381897	
-0.383606	
-0.383362	
-0.383789	
-0.384216	
-0.385559	
-0.385315	
-0.385986	
-0.387207	
-0.388123	
-0.387207	
-0.387756	
-0.388367	
-0.387451	
-0.388184	
-0.388489	
-0.389038	
-0.388916	
-0.389099	
-0.389343	
-0.389465	
-0.390564	
-0.391541	
-0.389893	
-0.389893	
-0.390564	
-0.389404	
-0.389465	
-0.389404	
-0.390015	
-0.388245	
-0.388489	
-0.388184	
-0.387756	
-0.387878	
-0.389587	
-0.387939	
-0.388	
-0.387817	
-0.386902	
-0.386658	
-0.386353	
-0.386902	
-0.385437	
-0.386169	
-0.385986	
-0.384949	
-0.385925	
-0.387207	
-0.385071	
-0.385071	
-0.38501	
-0.385193	
-0.384949	
-0.385132	
-0.385193	
-0.384583	
-0.384399	
-0.384644	
-0.383179	
-0.384949	
-0.385254	
-0.384338	
-0.38446	
-0.384277	
-0.384949	
-0.384705	
-0.384583	
-0.385742	
-0.38446	
-0.38446	
-0.384338	
-0.383545	
-0.385071	
-0.385254	
-0.384705	
-0.384766	
-0.384644	
-0.385254	
-0.384827	
-0.384094	
-0.385132	
-0.384216	
-0.384705	
-0.384583	
-0.384277	
-0.385986	
-0.385681	
-0.384827	
-0.385376	
-0.383972	
-0.38562	
-0.384521	
-0.384888	
-0.385864	
-0.384705	
-0.38501	
-0.385681	
-0.385071	
-0.385925	
-0.385742	
-0.385498	
-0.385315	
-0.38385	
-0.38562	
-0.385132	
-0.384705	
-0.385132	
-0.384949	
-0.38446	
-0.384033	
-0.38446	
-0.385254	
-0.384827	
-0.384949	
-0.384399	
-0.383301	
-0.384705	
-0.384216	
-0.383789	
-0.384033	
-0.383057	
-0.38385	
-0.383789	
-0.383606	
-0.384155	
-0.384277	
-0.383545	
-0.384277	
-0.382324	
-0.384033	
-0.383606	
-0.382507	
-0.383179	
-0.381958	
-0.382019	
-0.382324	
-0.38208	
-0.382996	
-0.38208	
-0.382385	
-0.382813	
-0.381165	
-0.382385	
-0.382324	
-0.382019	
-0.383911	
-0.383179	
-0.384338	
-0.385315	
-0.385681	
-0.386597	
-0.386658	
-0.387451	
-0.387634	
-0.387268	
-0.388489	
-0.388489	
-0.388428	
-0.38916	
-0.388306	
-0.389526	
-0.389282	
-0.389832	
-0.390564	
-0.389771	
-0.390076	
-0.390808	
-0.389282	
-0.390503	
-0.389648	
-0.390198	
-0.390686	
-0.389465	
-0.389771	
-0.390442	
-0.390198	
-0.391357	
-0.390015	
-0.391174	
-0.390625	
-0.389832	
-0.391174	
-0.390198	
-0.390869	
-0.390564	
-0.390137	
-0.390747	
-0.390686	
-0.390503	
-0.391785	
-0.390747	
-0.391296	
-0.390137	
-0.389954	
-0.390869	
-0.389893	
-0.390076	
-0.389893	
-0.388794	
-0.389404	
-0.389038	
-0.388306	
-0.387756	
-0.386719	
-0.386475	
-0.385986	
-0.385315	
-0.386597	
-0.38623	
-0.386719	
-0.386414	
-0.385437	
-0.385864	
-0.385681	
-0.386169	
-0.386902	
-0.385742	
-0.386292	
-0.386536	
-0.386719	
-0.386963	
-0.387085	
-0.387817	
-0.387695	
-0.387085	
-0.38739	
-0.387207	
-0.388306	
-0.387878	
-0.387451	
-0.388062	
-0.387573	
-0.388306	
-0.388672	
-0.388306	
-0.387939	
-0.388428	
-0.387573	
-0.388184	
-0.38739	
-0.388733	
-0.387817	
-0.388	
-0.387329	
-0.386658	
-0.387268	
-0.388184	
-0.387878	
-0.388611	
-0.387634	
-0.387878	
-0.387817	
-0.387756	
-0.389099	
-0.388	
-0.388306	
-0.388733	
-0.388062	
-0.38916	
-0.389465	
-0.388977	
-0.389832	
-0.389465	
-0.389038	
-0.388977	
-0.389038	
-0.389526	
-0.388855	
-0.388306	
-0.388184	
-0.387573	
-0.387573	
-0.387695	
-0.387024	
-0.387329	
-0.38678	
-0.385864	
-0.385803	
-0.384338	
-0.386414	
-0.385132	
-0.384827	
-0.38446	
-0.384521	
-0.384583	
-0.384644	
-0.38446	
-0.385437	
-0.384216	
-0.384827	
-0.385193	
-0.385498	
-0.387268	
-0.386292	
-0.386292	
-0.386169	
-0.386414	
-0.387268	
-0.388062	
-0.388	
-0.389893	
-0.389282	
-0.389771	
-0.390137	
-0.391296	
-0.391541	
-0.390808	
-0.390747	
-0.390503	
-0.390381	
-0.391174	
-0.390625	
-0.390686	
-0.391235	
-0.390991	
-0.390015	
-0.390625	
-0.39093	
-0.391663	
-0.390076	
-0.390625	
-0.389465	
-0.390503	
-0.390137	
-0.390503	
-0.390137	
-0.390808	
-0.389832	
-0.389648	
-0.389465	
-0.389832	
-0.390076	
-0.389526	
-0.389709	
-0.388672	
-0.388794	
-0.388733	
-0.388489	
-0.38739	
-0.387329	
-0.386414	
-0.38562	
-0.385681	
-0.386292	
-0.38562	
-0.38501	
-0.384888	
-0.383911	
-0.384521	
-0.383911	
-0.383911	
-0.382996	
-0.383179	
-0.38269	
-0.381531	
-0.382813	
-0.383423	
-0.383118	
-0.383057	
-0.383789	
-0.383118	
-0.383911	
-0.384827	
-0.385498	
-0.384338	
-0.384888	
-0.38501	
-0.383972	
-0.385254	
-0.386658	
-0.386108	
-0.386414	
-0.386414	
-0.386414	
-0.386536	
-0.386658	
-0.387756	
-0.386841	
-0.387024	
-0.386475	
-0.387207	
-0.387756	
-0.389099	
-0.387573	
-0.387634	
-0.387634	
-0.387085	
-0.388245	
-0.388672	
-0.388916	
-0.388	
-0.388428	
-0.388306	
-0.38855	
-0.389099	
-0.390625	
-0.389038	
-0.388794	
-0.388611	
-0.387024	
-0.389038	
-0.388977	
-0.389709	
-0.388123	
-0.388611	
-0.388062	
-0.388428	
-0.388733	
-0.390503	
-0.388733	
-0.388855	
-0.388611	
-0.388	
-0.388672	
-0.388428	
-0.388916	
-0.387024	
-0.388672	
-0.388062	
-0.388916	
-0.388367	
-0.389465	
-0.388245	
-0.388245	
-0.388123	
-0.388	
-0.388184	
-0.388794	
-0.388428	
-0.388245	
-0.388611	
-0.388672	
-0.388428	
-0.38855	
-0.389221	
-0.388428	
-0.388	
-0.388123	
-0.388428	
-0.388611	
-0.389221	
-0.389587	
-0.388489	
-0.388916	
-0.389099	
-0.390015	
-0.389832	
-0.389954	
-0.389526	
-0.389648	
-0.388733	
-0.389709	
-0.390137	
-0.390747	
-0.39093	
-0.390137	
-0.390198	
-0.389343	
-0.390686	
-0.390137	
-0.391479	
-0.390076	
-0.390503	
-0.389709	
-0.391663	
-0.391541	
-0.392273	
-0.392517	
-0.392151	
-0.392212	
-0.391663	
-0.392395	
-0.392517	
-0.39325	
-0.392212	
-0.392273	
-0.390991	
-0.39209	
-0.391663	
-0.391174	
-0.390259	
-0.389099	
-0.389099	
-0.387634	
-0.387817	
-0.386963	
-0.388428	
-0.386414	
-0.386292	
-0.385254	
-0.385986	
-0.385193	
-0.385315	
-0.384949	
-0.384521	
-0.38446	
-0.38324	
-0.384094	
-0.38385	
-0.38446	
-0.383606	
-0.383972	
-0.382507	
-0.384644	
-0.383789	
-0.384644	
-0.383362	
-0.383972	
-0.383484	
-0.382385	
-0.383179	
-0.38446	
-0.382996	
-0.382813	
-0.383179	
-0.382324	
-0.38324	
-0.382996	
-0.383911	
-0.382874	
-0.383301	
-0.382935	
-0.382202	
-0.382996	
-0.384277	
-0.383789	
-0.383423	
-0.383484	
-0.383789	
-0.384033	
-0.384583	
-0.384949	
-0.384705	
-0.385254	
-0.385254	
-0.385071	
-0.38678	
-0.387695	
-0.387939	
-0.387329	
-0.387695	
-0.387085	
-0.387939	
-0.387634	
-0.388672	
-0.387695	
-0.387634	
-0.387085	
-0.38678	
-0.387451	
-0.388	
-0.386902	
-0.386292	
-0.385986	
-0.385315	
-0.386414	
-0.385986	
-0.386475	
-0.38562	
-0.385559	
-0.385315	
-0.385315	
-0.384644	
-0.385742	
-0.38501	
-0.385437	
-0.384766	
-0.384521	
-0.38501	
-0.385315	
-0.385071	
-0.384888	
-0.384766	
-0.384949	
-0.38501	
-0.385254	
-0.385986	
-0.385864	
-0.385559	
-0.385742	
-0.385193	
-0.385803	
-0.386047	
-0.385559	
-0.384644	
-0.385132	
-0.385132	
-0.385132	
-0.384216	
-0.385986	
-0.385071	
-0.384399	
-0.384216	
-0.385071	
-0.384583	
-0.384766	
-0.384827	
-0.384033	
-0.385132	
-0.384705	
-0.385132	
-0.384949	
-0.386719	
-0.385742	
-0.386292	
-0.386658	
-0.386353	
-0.386658	
-0.388062	
-0.38739	
	
