E:\DOCUMENTS AND SETTINGS\JPOTAS\MEUS DOCUMENTOS\UFRJ\RSCI-BM 12 WK SERIES\070731-RSCI-BM-12\RSCI-BM-12-REMG\070731-RSCI-BM-12-REMG-0004.ACQ
0.025000 msec/sample
1 channel
Analog input
Volts
CH1	
2000	
-0.393066	
-0.393311	
-0.393616	
-0.393372	
-0.392761	
-0.392151	
-0.391663	
-0.3927	
-0.394409	
-0.392761	
-0.392578	
-0.392761	
-0.392273	
-0.393433	
-0.393616	
-0.393799	
-0.393738	
-0.392273	
-0.391907	
-0.391052	
-0.391296	
-0.393005	
-0.392029	
-0.390991	
-0.391296	
-0.390198	
-0.391541	
-0.391541	
-0.391968	
-0.392761	
-0.392212	
-0.391724	
-0.391602	
-0.391174	
-0.39325	
-0.392456	
-0.392334	
-0.392212	
-0.390869	
-0.392029	
-0.392456	
-0.392944	
-0.392456	
-0.391724	
-0.392212	
-0.391602	
-0.390747	
-0.392761	
-0.392273	
-0.391663	
-0.390747	
-0.390503	
-0.390442	
-0.390808	
-0.391724	
-0.391235	
-0.390381	
-0.389465	
-0.388855	
-0.389709	
-0.390076	
-0.390381	
-0.389648	
-0.388916	
-0.388428	
-0.389038	
-0.389282	
-0.390564	
-0.389832	
-0.389587	
-0.390015	
-0.388977	
-0.390137	
-0.391174	
-0.392151	
-0.391602	
-0.391846	
-0.391541	
-0.391357	
-0.391357	
-0.392151	
-0.391113	
-0.390625	
-0.389832	
-0.389099	
-0.389404	
-0.389587	
-0.390808	
-0.389709	
-0.389832	
-0.389282	
-0.388794	
-0.389832	
-0.390198	
-0.390198	
-0.390076	
-0.388611	
-0.388184	
-0.388428	
-0.388794	
-0.391541	
-0.390137	
-0.390564	
-0.390381	
-0.389648	
-0.390747	
-0.391357	
-0.391968	
-0.391541	
-0.391235	
-0.389648	
-0.389526	
-0.390747	
-0.392151	
-0.39093	
-0.390381	
-0.390015	
-0.38916	
-0.389832	
-0.390686	
-0.390625	
-0.390564	
-0.390076	
-0.389038	
-0.388	
-0.388855	
-0.39093	
-0.389465	
-0.388794	
-0.388123	
-0.386719	
-0.388977	
-0.38916	
-0.389709	
-0.389771	
-0.389526	
-0.388611	
-0.388794	
-0.389465	
-0.391602	
-0.389832	
-0.389404	
-0.388977	
-0.386414	
-0.388672	
-0.389465	
-0.38916	
-0.388733	
-0.38855	
-0.387146	
-0.387512	
-0.386902	
-0.388672	
-0.38678	
-0.386536	
-0.386536	
-0.385132	
-0.387268	
-0.388062	
-0.387146	
-0.387024	
-0.386902	
-0.385681	
-0.386658	
-0.386902	
-0.388367	
-0.38678	
-0.386658	
-0.386597	
-0.385437	
-0.386902	
-0.388123	
-0.387146	
-0.387268	
-0.387939	
-0.38623	
-0.38678	
-0.387329	
-0.387573	
-0.387451	
-0.387451	
-0.387268	
-0.385986	
-0.388062	
-0.388916	
-0.38855	
-0.388	
-0.388367	
-0.386414	
-0.387207	
-0.386963	
-0.386841	
-0.387573	
-0.387207	
-0.385986	
-0.385742	
-0.387024	
-0.386597	
-0.380249	
-0.379456	
-0.379517	
-0.378113	
-0.378906	
-0.379395	
-0.38501	
-0.386658	
-0.386475	
-0.38623	
-0.385864	
-0.386597	
-0.387329	
-0.386902	
-0.387939	
-0.387939	
-0.386414	
-0.387146	
-0.386169	
-0.387024	
-0.388367	
-0.387207	
-0.387695	
-0.386169	
-0.380676	
-0.380798	
-0.380432	
-0.380798	
-0.38092	
-0.38147	
-0.38678	
-0.386353	
-0.387268	
-0.388855	
-0.38739	
-0.387451	
-0.387207	
-0.38678	
-0.387573	
-0.387329	
-0.387878	
-0.388672	
-0.387878	
-0.388367	
-0.388245	
-0.388977	
-0.390991	
-0.389954	
-0.390381	
-0.390747	
-0.389343	
-0.391541	
-0.391174	
-0.391296	
-0.391907	
-0.390442	
-0.390198	
-0.389526	
-0.389709	
-0.390808	
-0.389038	
-0.388794	
-0.387939	
-0.38623	
-0.388306	
-0.388	
-0.387878	
-0.388733	
-0.386475	
-0.387329	
-0.386169	
-0.386414	
-0.388245	
-0.386658	
-0.386536	
-0.385742	
-0.384033	
-0.386536	
-0.386841	
-0.386047	
-0.388184	
-0.385986	
-0.386414	
-0.386108	
-0.385254	
-0.388977	
-0.387634	
-0.388184	
-0.388855	
-0.387207	
-0.390686	
-0.391907	
-0.392883	
-0.395447	
-0.395325	
-0.396729	
-0.398621	
-0.398254	
-0.402466	
-0.402832	
-0.40387	
-0.404846	
-0.407043	
-0.409363	
-0.410278	
-0.413025	
-0.414734	
-0.414551	
-0.416687	
-0.416748	
-0.418884	
-0.418884	
-0.419861	
-0.421448	
-0.420593	
-0.423645	
-0.424622	
-0.425964	
-0.427673	
-0.426819	
-0.42804	
-0.428833	
-0.428467	
-0.430725	
-0.430054	
-0.430481	
-0.430786	
-0.430908	
-0.432556	
-0.433594	
-0.434937	
-0.43689	
-0.435242	
-0.437256	
-0.437561	
-0.438416	
-0.438721	
-0.438293	
-0.438721	
-0.438782	
-0.438599	
-0.441528	
-0.442688	
-0.443726	
-0.445862	
-0.446594	
-0.448425	
-0.449097	
-0.450867	
-0.452271	
-0.453491	
-0.454224	
-0.45459	
-0.456726	
-0.458618	
-0.457886	
-0.458862	
-0.458435	
-0.45752	
-0.45813	
-0.456909	
-0.457642	
-0.456848	
-0.455566	
-0.454468	
-0.452332	
-0.453064	
-0.452087	
-0.450867	
-0.4505	
-0.449951	
-0.448792	
-0.447876	
-0.446167	
-0.44751	
-0.445862	
-0.444397	
-0.44281	
-0.440186	
-0.440552	
-0.438049	
-0.436768	
-0.435974	
-0.43335	
-0.431519	
-0.430298	
-0.427368	
-0.429199	
-0.425415	
-0.423767	
-0.421814	
-0.41925	
-0.4198	
-0.417847	
-0.416382	
-0.415283	
-0.41272	
-0.411621	
-0.409485	
-0.40686	
-0.407349	
-0.403809	
-0.401245	
-0.398499	
-0.394653	
-0.39447	
-0.392273	
-0.390564	
-0.389404	
-0.387878	
-0.38623	
-0.384949	
-0.38324	
-0.384094	
-0.382874	
-0.38208	
-0.381409	
-0.379822	
-0.380432	
-0.3797	
-0.37738	
-0.376953	
-0.375671	
-0.373352	
-0.372375	
-0.371521	
-0.371887	
-0.369995	
-0.369263	
-0.36853	
-0.366882	
-0.367615	
-0.367126	
-0.365662	
-0.365356	
-0.363037	
-0.361206	
-0.360046	
-0.358582	
-0.359741	
-0.357727	
-0.357422	
-0.356506	
-0.355713	
-0.356934	
-0.356384	
-0.356262	
-0.357849	
-0.35553	
-0.357239	
-0.357056	
-0.35614	
-0.359192	
-0.359009	
-0.359192	
-0.360046	
-0.35968	
-0.362122	
-0.362549	
-0.363953	
-0.364563	
-0.364624	
-0.365662	
-0.366516	
-0.368164	
-0.368225	
-0.36853	
-0.368896	
-0.369141	
-0.370544	
-0.371521	
-0.371948	
-0.372681	
-0.370667	
-0.372559	
-0.372803	
-0.372925	
-0.374451	
-0.374512	
-0.374573	
-0.374817	
-0.374817	
-0.376709	
-0.376587	
-0.377625	
-0.37793	
-0.378052	
-0.378784	
-0.378479	
-0.380005	
-0.381409	
-0.379883	
-0.380554	
-0.379883	
-0.38092	
-0.380554	
-0.381042	
-0.382446	
-0.381165	
-0.381592	
-0.381714	
-0.380554	
-0.381653	
-0.382324	
-0.382141	
-0.381836	
-0.382141	
-0.382813	
-0.381775	
-0.382263	
-0.383606	
-0.381714	
-0.382141	
-0.381958	
-0.382813	
-0.384094	
-0.383057	
-0.382996	
-0.381897	
-0.382874	
-0.383911	
-0.383179	
-0.38385	
-0.384155	
-0.383484	
-0.384399	
-0.384033	
-0.385742	
-0.385742	
-0.385132	
-0.384827	
-0.385376	
-0.385254	
-0.385071	
-0.385437	
-0.386902	
-0.385254	
-0.38562	
-0.385498	
-0.384583	
-0.386475	
-0.386719	
-0.38623	
-0.38623	
-0.386353	
-0.387268	
-0.386353	
-0.386536	
-0.387024	
-0.384705	
-0.386414	
-0.386169	
-0.38562	
-0.386169	
-0.386597	
-0.38623	
-0.386353	
-0.386475	
-0.387573	
-0.386841	
-0.387146	
-0.38855	
-0.386658	
-0.387634	
-0.388123	
-0.387329	
-0.388733	
-0.388489	
-0.388855	
-0.388306	
-0.388977	
-0.390137	
-0.390015	
-0.389465	
-0.390076	
-0.388306	
-0.388855	
-0.38855	
-0.387207	
-0.387329	
-0.38739	
-0.386475	
-0.385376	
-0.385925	
-0.386475	
-0.38562	
-0.386047	
-0.386292	
-0.384705	
-0.386414	
-0.385498	
-0.386414	
-0.387024	
-0.38739	
-0.387695	
-0.387329	
-0.387817	
-0.38916	
-0.388916	
-0.389771	
-0.389282	
-0.388367	
-0.389343	
-0.389099	
-0.388977	
-0.390198	
-0.389954	
-0.389893	
-0.389221	
-0.389465	
-0.390259	
-0.391052	
-0.390442	
-0.39093	
-0.389954	
-0.390381	
-0.390076	
-0.39032	
-0.391174	
-0.390991	
-0.390991	
-0.390869	
-0.391357	
-0.391724	
-0.392151	
-0.391968	
-0.392578	
-0.392334	
-0.392517	
-0.392151	
-0.392761	
-0.393616	
-0.393677	
-0.393372	
-0.393494	
-0.393616	
-0.393311	
-0.39325	
-0.394043	
-0.393555	
-0.394043	
-0.39325	
-0.392578	
-0.392151	
-0.392639	
-0.391968	
-0.391785	
-0.391724	
-0.391296	
-0.391113	
-0.390808	
-0.391296	
-0.39093	
-0.390869	
-0.39032	
-0.389404	
-0.389832	
-0.391418	
-0.390869	
-0.390869	
-0.390564	
-0.391418	
-0.391418	
-0.391846	
-0.392456	
-0.392395	
-0.391418	
-0.391663	
-0.390503	
-0.391174	
-0.392334	
-0.391846	
-0.39093	
-0.391663	
-0.391785	
-0.391907	
-0.391602	
-0.392578	
-0.391724	
-0.391602	
-0.391357	
-0.390747	
-0.390625	
-0.391541	
-0.391235	
-0.390808	
-0.390381	
-0.390747	
-0.390259	
-0.390381	
-0.390991	
-0.389587	
-0.390137	
-0.38916	
-0.388489	
-0.388611	
-0.389954	
-0.389587	
-0.389893	
-0.389709	
-0.390747	
-0.389587	
-0.39032	
-0.39093	
-0.390076	
-0.389954	
-0.389954	
-0.38916	
-0.39032	
-0.389954	
-0.389832	
-0.389648	
-0.389954	
-0.389954	
-0.389771	
-0.389832	
-0.390869	
-0.389526	
-0.389282	
-0.389221	
-0.388855	
-0.389282	
-0.389771	
-0.389832	
-0.388733	
-0.388428	
-0.388489	
-0.388489	
-0.388306	
-0.388977	
-0.388489	
-0.387573	
-0.387573	
-0.386597	
-0.387695	
-0.388489	
-0.389038	
-0.388123	
-0.388611	
-0.389221	
-0.388977	
-0.390076	
-0.391113	
-0.390808	
-0.39032	
-0.390625	
-0.389526	
-0.389893	
-0.390015	
-0.390259	
-0.389282	
-0.388855	
-0.389465	
-0.387939	
-0.388733	
-0.389404	
-0.389038	
-0.388916	
-0.38855	
-0.387512	
-0.388062	
-0.388794	
-0.389404	
-0.388489	
-0.388489	
-0.388977	
-0.388245	
-0.389038	
-0.390564	
-0.389893	
-0.389893	
-0.390198	
-0.388794	
-0.389771	
-0.391235	
-0.391296	
-0.390625	
-0.390747	
-0.391785	
-0.389526	
-0.390564	
-0.391479	
-0.390808	
-0.390503	
-0.389954	
-0.389099	
-0.390198	
-0.390869	
-0.390808	
-0.389893	
-0.389648	
-0.390991	
-0.388794	
-0.390198	
-0.390625	
-0.388855	
-0.389648	
-0.389038	
-0.388123	
-0.389221	
-0.390259	
-0.39032	
-0.389282	
-0.389709	
-0.390076	
-0.389709	
-0.389954	
-0.391052	
-0.38916	
-0.389832	
-0.389343	
-0.388	
-0.388489	
-0.389954	
-0.389771	
-0.389099	
-0.388123	
-0.387878	
-0.387756	
-0.388184	
-0.387939	
-0.386902	
-0.387085	
-0.386719	
-0.385742	
-0.386841	
-0.387756	
-0.388062	
-0.38678	
-0.38678	
-0.385803	
-0.387085	
-0.387573	
-0.387634	
-0.387146	
-0.386597	
-0.386658	
-0.385559	
-0.387024	
-0.387878	
-0.387573	
-0.38678	
-0.38739	
-0.386719	
-0.387024	
-0.38678	
-0.387573	
-0.387268	
-0.388	
-0.387024	
-0.386292	
-0.387146	
-0.387878	
-0.387756	
-0.387817	
-0.387512	
-0.386841	
-0.387817	
-0.387024	
-0.387634	
-0.387024	
-0.387878	
-0.386353	
-0.386169	
-0.386597	
-0.386902	
-0.386719	
-0.38678	
-0.386536	
-0.386108	
-0.386047	
-0.386536	
-0.386597	
-0.385925	
-0.386414	
-0.386108	
-0.385986	
-0.385986	
-0.385559	
-0.387268	
-0.386536	
-0.386719	
-0.386108	
-0.386902	
-0.387146	
-0.387451	
-0.38739	
-0.387878	
-0.386841	
-0.386047	
-0.386902	
-0.386353	
-0.387939	
-0.387207	
-0.387451	
-0.386047	
-0.386597	
-0.38678	
-0.38739	
-0.386719	
-0.387207	
-0.386108	
-0.385681	
-0.385925	
-0.385559	
-0.387451	
-0.386536	
-0.387146	
-0.386658	
-0.386719	
-0.387939	
-0.388672	
-0.388977	
-0.389648	
-0.389465	
-0.389038	
-0.390137	
-0.388855	
-0.391052	
-0.390442	
-0.390198	
-0.389404	
-0.388	
-0.388672	
-0.388794	
-0.388489	
-0.388611	
-0.387817	
-0.387451	
-0.387695	
-0.386536	
-0.388611	
-0.387329	
-0.387024	
-0.385864	
-0.385559	
-0.386475	
-0.386047	
-0.38623	
-0.386963	
-0.385681	
-0.385498	
-0.385864	
-0.385803	
-0.386841	
-0.386108	
-0.38623	
-0.385864	
-0.384705	
-0.386169	
-0.385803	
-0.385986	
-0.385986	
-0.385437	
-0.385742	
-0.385376	
-0.384827	
-0.386047	
-0.385498	
-0.385742	
-0.385193	
-0.384583	
-0.385742	
-0.38501	
-0.385376	
-0.385254	
-0.385437	
-0.385071	
-0.385559	
-0.384949	
-0.38678	
-0.385925	
-0.386353	
-0.385986	
-0.385498	
-0.386292	
-0.386719	
-0.387451	
-0.386963	
-0.387207	
-0.387634	
-0.38739	
-0.387512	
-0.388367	
-0.387939	
-0.387878	
-0.387268	
-0.386841	
-0.388306	
-0.387512	
-0.388184	
-0.387634	
-0.387085	
-0.38678	
-0.385681	
-0.386719	
-0.386841	
-0.386292	
-0.386597	
-0.385742	
-0.38501	
-0.385986	
-0.386414	
-0.387329	
-0.385803	
-0.386108	
-0.385864	
-0.384644	
-0.385437	
-0.38678	
-0.385803	
-0.386292	
-0.384888	
-0.384888	
-0.386169	
-0.385681	
-0.386658	
-0.38678	
-0.385986	
-0.38623	
-0.385742	
-0.387451	
-0.387512	
-0.386902	
-0.387329	
-0.387024	
-0.386353	
-0.387573	
-0.387268	
-0.388245	
-0.387512	
-0.387634	
-0.386963	
-0.385559	
-0.387573	
-0.387512	
-0.386902	
-0.386963	
-0.385864	
-0.385925	
-0.386902	
-0.386353	
-0.387634	
-0.386841	
-0.387756	
-0.387146	
-0.38623	
-0.387207	
-0.387146	
-0.38739	
-0.387756	
-0.386353	
-0.387146	
-0.387878	
-0.38739	
-0.388611	
-0.388916	
-0.388977	
-0.388489	
-0.388855	
-0.389404	
-0.389526	
-0.389343	
-0.389771	
-0.389221	
-0.389648	
-0.389771	
-0.389404	
-0.390015	
-0.389832	
-0.389832	
-0.389221	
-0.388916	
-0.388794	
-0.388489	
-0.388123	
-0.387817	
-0.387634	
-0.387451	
-0.387451	
-0.387573	
-0.388794	
-0.388733	
-0.389282	
-0.388367	
-0.389038	
-0.389343	
-0.389099	
-0.388916	
-0.389526	
-0.388855	
-0.388672	
-0.388733	
-0.388611	
-0.389709	
-0.389282	
-0.39032	
-0.389343	
-0.388855	
-0.389465	
-0.389709	
-0.389282	
-0.388611	
-0.388184	
-0.387878	
-0.387146	
-0.387573	
-0.388062	
-0.387756	
-0.388794	
-0.388245	
-0.387207	
-0.387634	
-0.388062	
-0.388916	
-0.388184	
-0.38855	
-0.387329	
-0.387146	
-0.387878	
-0.388611	
-0.388855	
-0.389465	
-0.38855	
-0.388245	
-0.38916	
-0.389404	
-0.390747	
-0.389954	
-0.390442	
-0.388916	
-0.388855	
-0.389526	
-0.388977	
-0.389954	
-0.390625	
-0.389587	
-0.389709	
-0.390076	
-0.391296	
-0.390808	
-0.390808	
-0.391174	
-0.389343	
-0.38916	
-0.390991	
-0.389648	
-0.391418	
-0.391357	
-0.391174	
-0.390991	
-0.39093	
-0.391907	
-0.391846	
-0.391968	
-0.392517	
-0.391663	
-0.39209	
-0.392334	
-0.391663	
-0.393066	
-0.39325	
-0.392456	
-0.392029	
-0.3927	
-0.392944	
-0.393127	
-0.392578	
-0.393372	
-0.391357	
-0.391846	
-0.392334	
-0.392029	
-0.392456	
-0.392517	
-0.391724	
-0.391235	
-0.391052	
-0.391785	
-0.391663	
-0.391724	
-0.39209	
-0.391785	
-0.391418	
-0.391602	
-0.390442	
-0.391418	
-0.391663	
-0.390747	
-0.390808	
-0.390869	
-0.391113	
-0.391968	
-0.392212	
-0.391968	
-0.392273	
-0.391785	
-0.391968	
-0.391357	
-0.392456	
-0.392761	
-0.392029	
-0.391907	
-0.392334	
-0.392517	
-0.393311	
-0.393616	
-0.392761	
-0.392212	
-0.392639	
-0.391602	
-0.392151	
-0.392883	
-0.392639	
-0.392334	
-0.391724	
-0.391724	
-0.3927	
-0.391479	
-0.392761	
-0.391479	
-0.391296	
-0.391235	
-0.389954	
-0.391357	
-0.391663	
-0.391602	
-0.391235	
-0.39093	
-0.391418	
-0.391907	
-0.391968	
-0.392151	
-0.391602	
-0.390991	
-0.391846	
-0.391785	
-0.391357	
-0.392944	
-0.392212	
-0.391846	
-0.391357	
-0.391479	
-0.390747	
-0.390625	
-0.390259	
-0.389954	
-0.388733	
-0.388855	
-0.388367	
-0.388306	
-0.388611	
-0.388123	
-0.388367	
-0.387939	
-0.388367	
-0.388916	
-0.389099	
-0.390198	
-0.389282	
-0.388855	
-0.389893	
-0.38916	
-0.390381	
-0.391602	
-0.391357	
-0.391846	
-0.390808	
-0.391113	
-0.392456	
-0.391541	
-0.392456	
-0.392212	
-0.39093	
-0.391418	
-0.390381	
-0.391602	
-0.392395	
-0.391846	
-0.393188	
-0.392273	
-0.391541	
-0.392822	
-0.392517	
-0.392822	
-0.392395	
-0.392151	
-0.392334	
-0.391724	
-0.392212	
-0.393127	
-0.392944	
-0.39325	
-0.3927	
-0.39325	
-0.393677	
-0.392883	
-0.392822	
-0.393311	
-0.392761	
-0.392761	
-0.392395	
-0.392883	
-0.393311	
-0.392578	
-0.393799	
-0.393127	
-0.392456	
-0.392639	
-0.390381	
-0.391785	
-0.391418	
-0.392517	
-0.391846	
-0.391052	
-0.391052	
-0.391174	
-0.391296	
-0.391785	
-0.390564	
-0.390137	
-0.391174	
-0.390564	
-0.391663	
-0.391541	
-0.391724	
-0.391296	
-0.391296	
-0.392029	
-0.391479	
-0.392029	
-0.392578	
-0.392395	
-0.391724	
-0.392456	
-0.392273	
-0.3927	
-0.3927	
-0.392761	
-0.392578	
-0.392273	
-0.392456	
-0.392395	
-0.392395	
-0.392944	
-0.392578	
-0.391602	
-0.39325	
-0.392639	
-0.392883	
-0.393005	
-0.392822	
-0.392029	
-0.391479	
-0.391663	
-0.391724	
-0.391541	
-0.392029	
-0.391418	
-0.389832	
-0.391113	
-0.390137	
-0.391479	
-0.391907	
-0.391479	
-0.391418	
-0.391357	
-0.391663	
-0.392334	
-0.39209	
-0.3927	
-0.391541	
-0.390564	
-0.392273	
-0.392029	
-0.391724	
-0.392517	
-0.391785	
-0.391602	
-0.391052	
-0.391724	
-0.392212	
-0.391296	
-0.391846	
-0.391235	
-0.39032	
-0.391052	
-0.390869	
-0.390442	
-0.391418	
-0.390259	
-0.389404	
-0.389648	
-0.389282	
-0.389954	
-0.389404	
-0.389343	
-0.38916	
-0.388611	
-0.388855	
-0.389526	
-0.389038	
-0.390137	
-0.389709	
-0.388855	
-0.389526	
-0.389343	
-0.390991	
-0.390747	
-0.391296	
-0.392151	
-0.391418	
-0.391785	
-0.392395	
-0.391541	
-0.391663	
-0.390442	
-0.389893	
-0.389893	
-0.388916	
-0.389954	
-0.389709	
-0.389709	
-0.390259	
-0.388733	
-0.389343	
-0.389709	
-0.388916	
-0.389648	
-0.389038	
-0.38855	
-0.388489	
-0.388184	
-0.389709	
-0.389709	
-0.389648	
-0.390686	
-0.390076	
-0.390625	
-0.390442	
-0.389282	
-0.391052	
-0.390808	
-0.390015	
-0.390381	
-0.390076	
-0.390747	
-0.391174	
-0.391296	
-0.39032	
-0.390015	
-0.390076	
-0.390808	
-0.38916	
-0.39032	
-0.389343	
-0.389587	
-0.389038	
-0.38855	
-0.389282	
-0.389648	
-0.388794	
-0.388733	
-0.388611	
-0.388184	
-0.389038	
-0.387695	
-0.388916	
-0.38855	
-0.389343	
-0.389099	
-0.389038	
-0.38916	
-0.388672	
-0.389648	
-0.389832	
-0.388672	
-0.387634	
-0.388733	
-0.387878	
-0.388184	
-0.388611	
-0.38916	
-0.387756	
-0.387024	
-0.387878	
-0.386475	
-0.385925	
-0.38678	
-0.386475	
-0.385559	
-0.386658	
-0.386597	
-0.387207	
-0.386475	
-0.386902	
-0.385925	
-0.385498	
-0.38678	
-0.386719	
-0.387085	
-0.385986	
-0.386292	
-0.385681	
-0.387024	
-0.387329	
-0.387512	
-0.387207	
-0.387573	
-0.385315	
-0.386353	
-0.386902	
-0.38678	
-0.387085	
-0.387695	
-0.387512	
-0.386475	
-0.387085	
-0.387817	
-0.387817	
-0.387939	
-0.388489	
-0.38678	
-0.386719	
-0.387512	
-0.386902	
-0.387085	
-0.387085	
-0.38739	
-0.386047	
-0.385925	
-0.387024	
-0.386536	
-0.386414	
-0.386475	
-0.385315	
-0.38623	
-0.38623	
-0.385437	
-0.38623	
-0.385681	
-0.386719	
-0.385559	
-0.38623	
-0.386292	
-0.385986	
-0.386658	
-0.387146	
-0.385376	
-0.386658	
-0.386536	
-0.386292	
-0.386536	
-0.387085	
-0.387939	
-0.38678	
-0.386963	
-0.387329	
-0.38623	
-0.386963	
-0.387817	
-0.386475	
-0.386841	
-0.38678	
-0.386658	
-0.387085	
-0.386841	
-0.386963	
-0.386475	
-0.38623	
-0.38678	
-0.38562	
-0.387268	
-0.387451	
-0.386536	
-0.387085	
-0.387878	
-0.387939	
-0.389465	
-0.389221	
-0.390381	
-0.389771	
-0.390015	
-0.390503	
-0.389709	
-0.391113	
-0.391174	
-0.390198	
-0.389893	
-0.389771	
-0.389343	
-0.390076	
-0.388611	
-0.389404	
-0.388062	
-0.387451	
-0.387756	
-0.387329	
-0.388245	
-0.387817	
-0.386841	
-0.386963	
-0.386536	
-0.386963	
-0.387146	
-0.38678	
-0.38678	
-0.386353	
-0.385315	
-0.386536	
-0.385376	
-0.387146	
-0.386353	
-0.386047	
-0.385254	
-0.38562	
-0.385864	
-0.386475	
-0.38623	
-0.386963	
-0.38562	
-0.385315	
-0.385986	
-0.385193	
-0.386536	
-0.385681	
-0.386292	
-0.385986	
-0.384521	
-0.385132	
-0.385254	
-0.385315	
-0.386536	
-0.385254	
-0.385376	
-0.385559	
-0.384888	
-0.387085	
-0.386902	
-0.387024	
-0.386719	
-0.385681	
-0.387085	
-0.387329	
-0.387268	
-0.38739	
-0.387207	
-0.387878	
-0.387939	
-0.387512	
-0.389648	
-0.388123	
-0.388611	
-0.387573	
-0.387085	
-0.387695	
-0.387878	
-0.38855	
-0.388062	
-0.387146	
-0.386719	
-0.386292	
-0.386475	
-0.38739	
-0.386475	
-0.387085	
-0.386169	
-0.385132	
-0.385986	
-0.38623	
-0.386963	
-0.38623	
-0.385742	
-0.385376	
-0.384705	
-0.385925	
-0.386963	
-0.386047	
-0.386108	
-0.386108	
-0.384888	
-0.38562	
-0.385986	
-0.386963	
-0.386658	
-0.386597	
-0.386414	
-0.38623	
-0.387634	
-0.387756	
-0.387573	
-0.387329	
-0.387573	
-0.386536	
-0.387268	
-0.388	
-0.388306	
-0.387634	
-0.387024	
-0.38678	
-0.387146	
-0.386963	
-0.387451	
-0.386963	
-0.386658	
-0.386475	
-0.386169	
-0.38623	
-0.38678	
-0.387207	
-0.387573	
-0.387207	
-0.387268	
-0.386841	
-0.387329	
-0.387695	
-0.387756	
-0.387329	
-0.387512	
-0.387512	
-0.387329	
-0.388367	
-0.38855	
-0.389343	
-0.388977	
-0.388855	
-0.389221	
-0.388855	
-0.389771	
-0.39032	
-0.389771	
-0.389893	
-0.389893	
-0.389709	
-0.390198	
-0.389893	
-0.390686	
-0.389648	
-0.389465	
-0.388977	
-0.389282	
-0.38916	
-0.389526	
-0.388245	
-0.387756	
-0.387634	
-0.387207	
-0.388428	
-0.389465	
-0.39032	
-0.389526	
-0.389648	
-0.389832	
-0.389771	
-0.38916	
-0.390137	
-0.390381	
-0.389343	
-0.389221	
-0.388062	
-0.389404	
-0.389648	
-0.39093	
-0.390564	
-0.389526	
-0.389343	
-0.390198	
-0.38916	
-0.389465	
-0.388672	
-0.388184	
-0.387939	
-0.386902	
-0.386597	
-0.387878	
-0.388367	
-0.388306	
-0.387695	
-0.387634	
-0.387817	
-0.388184	
-0.388977	
-0.388794	
-0.387085	
-0.388	
-0.386902	
-0.387878	
-0.388367	
-0.389282	
-0.389038	
-0.388611	
-0.389709	
-0.389221	
-0.389404	
-0.390198	
-0.389893	
-0.389038	
-0.389648	
-0.388672	
-0.389221	
-0.389954	
-0.390808	
-0.390503	
-0.390564	
-0.390137	
-0.390076	
-0.390381	
-0.391235	
-0.39032	
-0.389648	
-0.390564	
-0.389832	
-0.390564	
-0.391174	
-0.391479	
-0.390991	
-0.390625	
-0.391663	
-0.391785	
-0.39032	
-0.392151	
-0.391846	
-0.391724	
-0.3927	
-0.39093	
-0.392029	
-0.392517	
-0.393372	
-0.393555	
-0.393066	
-0.3927	
-0.392273	
-0.391052	
-0.392517	
-0.392029	
-0.3927	
-0.392151	
-0.391907	
-0.39209	
-0.392273	
-0.392212	
-0.392456	
-0.391724	
-0.392029	
-0.391663	
-0.390625	
-0.392334	
-0.391602	
-0.391968	
-0.391541	
-0.391235	
-0.391174	
-0.391235	
-0.391357	
-0.391968	
-0.39093	
-0.391357	
-0.391663	
-0.391479	
-0.391846	
-0.391968	
-0.392761	
-0.391785	
-0.391663	
-0.392334	
-0.39209	
-0.392273	
-0.393188	
-0.392639	
-0.392456	
-0.392456	
-0.39209	
-0.392639	
-0.393494	
-0.393433	
-0.3927	
-0.392456	
-0.392395	
-0.392151	
-0.392578	
-0.393311	
-0.392456	
-0.391785	
-0.391968	
-0.391296	
-0.391846	
-0.392273	
-0.392517	
-0.391418	
-0.391174	
-0.390808	
-0.390442	
-0.391541	
-0.392761	
-0.392517	
-0.391663	
-0.391785	
-0.390991	
-0.391174	
-0.391846	
-0.392578	
-0.392212	
-0.39209	
-0.391541	
-0.391541	
-0.391968	
-0.393127	
-0.392639	
-0.391846	
-0.391418	
-0.389465	
-0.389221	
-0.39032	
-0.389526	
-0.38916	
-0.388428	
-0.388245	
-0.387695	
-0.388428	
-0.388611	
-0.388733	
-0.388428	
-0.389099	
-0.387817	
-0.388855	
-0.390198	
-0.389404	
-0.389893	
-0.390259	
-0.389832	
-0.390381	
-0.39093	
-0.391663	
-0.391418	
-0.391174	
-0.392273	
-0.390564	
-0.391174	
-0.3927	
-0.391296	
-0.39209	
-0.391785	
-0.390747	
-0.392029	
-0.392212	
-0.393616	
-0.3927	
-0.39325	
-0.392883	
-0.391113	
-0.3927	
-0.392883	
-0.391907	
-0.392761	
-0.392639	
-0.391968	
-0.392822	
-0.393005	
-0.393677	
-0.393127	
-0.393799	
-0.393433	
-0.391846	
-0.392761	
-0.392944	
-0.392578	
-0.393372	
-0.393005	
-0.393188	
-0.392944	
-0.39325	
-0.394043	
-0.39325	
-0.393799	
-0.392944	
-0.391296	
-0.392273	
-0.390808	
-0.391968	
-0.392517	
-0.391724	
-0.391602	
-0.391602	
-0.391785	
-0.391968	
-0.391479	
-0.392151	
-0.391235	
-0.390076	
-0.390991	
-0.390991	
-0.393433	
-0.392639	
-0.392456	
-0.392517	
-0.391602	
-0.392029	
-0.392822	
-0.392578	
-0.393616	
-0.392578	
-0.392883	
	
