E:\DOCUMENTS AND SETTINGS\JPOTAS\MEUS DOCUMENTOS\UFRJ\RSCI-BM 12 WK SERIES\070731-RSCI-BM-12\RSCI-BM-12-REMG\070731-RSCI-BM-12-REMG-0002.ACQ
0.025000 msec/sample
1 channel
Analog input
Volts
CH1	
2000	
-0.393127	
-0.393066	
-0.393555	
-0.393311	
-0.393982	
-0.394714	
-0.395508	
-0.396118	
-0.394897	
-0.395264	
-0.394165	
-0.393494	
-0.393982	
-0.394531	
-0.394409	
-0.393799	
-0.393677	
-0.394165	
-0.394165	
-0.394104	
-0.395447	
-0.395142	
-0.394348	
-0.393005	
-0.392456	
-0.391907	
-0.392761	
-0.393494	
-0.393616	
-0.393555	
-0.393311	
-0.393738	
-0.393433	
-0.394104	
-0.395569	
-0.393982	
-0.393616	
-0.393188	
-0.391846	
-0.393372	
-0.393799	
-0.393799	
-0.393921	
-0.394104	
-0.39447	
-0.394409	
-0.394836	
-0.394958	
-0.395935	
-0.394531	
-0.394043	
-0.393005	
-0.391724	
-0.392822	
-0.392944	
-0.392944	
-0.392944	
-0.392639	
-0.392639	
-0.392517	
-0.392944	
-0.39386	
-0.394775	
-0.393799	
-0.392883	
-0.391541	
-0.389526	
-0.391418	
-0.391479	
-0.391235	
-0.39093	
-0.390198	
-0.390625	
-0.39093	
-0.39093	
-0.393127	
-0.391418	
-0.391968	
-0.390564	
-0.389038	
-0.390503	
-0.390686	
-0.390686	
-0.391052	
-0.390808	
-0.391174	
-0.39093	
-0.391113	
-0.391113	
-0.393494	
-0.390625	
-0.391541	
-0.39032	
-0.388245	
-0.390381	
-0.389709	
-0.39093	
-0.390137	
-0.390137	
-0.390625	
-0.390625	
-0.391235	
-0.391846	
-0.393066	
-0.391174	
-0.391968	
-0.390686	
-0.389221	
-0.390991	
-0.390076	
-0.391357	
-0.391663	
-0.391907	
-0.391968	
-0.392212	
-0.393311	
-0.395081	
-0.392944	
-0.393311	
-0.393494	
-0.391296	
-0.39325	
-0.393555	
-0.393616	
-0.394165	
-0.394348	
-0.394043	
-0.394104	
-0.394287	
-0.39447	
-0.396118	
-0.393921	
-0.394104	
-0.392883	
-0.391968	
-0.393555	
-0.3927	
-0.393311	
-0.393677	
-0.393311	
-0.393311	
-0.394165	
-0.394531	
-0.395752	
-0.395996	
-0.395325	
-0.396362	
-0.395142	
-0.394409	
-0.39679	
-0.396179	
-0.397339	
-0.398193	
-0.398132	
-0.398315	
-0.398804	
-0.399292	
-0.401245	
-0.399597	
-0.399658	
-0.399292	
-0.397217	
-0.398499	
-0.399048	
-0.398926	
-0.398865	
-0.398621	
-0.398804	
-0.398926	
-0.398804	
-0.398987	
-0.400024	
-0.398193	
-0.397888	
-0.3974	
-0.395142	
-0.395935	
-0.395264	
-0.395081	
-0.394714	
-0.394165	
-0.39386	
-0.39325	
-0.393738	
-0.394836	
-0.394775	
-0.393066	
-0.393005	
-0.391235	
-0.391113	
-0.392334	
-0.392273	
-0.392029	
-0.392578	
-0.391846	
-0.392029	
-0.392334	
-0.391663	
-0.388184	
-0.391968	
-0.391846	
-0.392334	
-0.390869	
-0.389771	
-0.391602	
-0.391052	
-0.392273	
-0.392212	
-0.39209	
-0.391907	
-0.391907	
-0.3927	
-0.393372	
-0.392334	
-0.391663	
-0.391113	
-0.390564	
-0.391846	
-0.391846	
-0.391296	
-0.392334	
-0.392578	
-0.392456	
-0.39209	
-0.392456	
-0.393127	
-0.393738	
-0.392578	
-0.392883	
-0.392212	
-0.392151	
-0.392761	
-0.392883	
-0.392761	
-0.3927	
-0.392456	
-0.392273	
-0.39209	
-0.392395	
-0.393066	
-0.393188	
-0.391357	
-0.391357	
-0.390137	
-0.38916	
-0.389893	
-0.389343	
-0.390808	
-0.390381	
-0.389893	
-0.389709	
-0.390076	
-0.389893	
-0.390808	
-0.391052	
-0.390137	
-0.38916	
-0.389038	
-0.389221	
-0.389893	
-0.390015	
-0.390503	
-0.390137	
-0.39032	
-0.390076	
-0.390991	
-0.390991	
-0.391785	
-0.390137	
-0.390564	
-0.390076	
-0.389099	
-0.390076	
-0.390991	
-0.390381	
-0.391052	
-0.391296	
-0.391907	
-0.39209	
-0.393616	
-0.394043	
-0.393494	
-0.392822	
-0.392883	
-0.391602	
-0.392395	
-0.393066	
-0.393188	
-0.39447	
-0.394409	
-0.395386	
-0.396545	
-0.398132	
-0.399353	
-0.401062	
-0.401733	
-0.403015	
-0.404541	
-0.405212	
-0.408081	
-0.410339	
-0.410828	
-0.413147	
-0.415039	
-0.416931	
-0.417603	
-0.419434	
-0.421387	
-0.422302	
-0.422791	
-0.424133	
-0.423279	
-0.425415	
-0.424927	
-0.4245	
-0.424622	
-0.424316	
-0.42395	
-0.423706	
-0.423767	
-0.423645	
-0.422363	
-0.421204	
-0.420776	
-0.419556	
-0.419006	
-0.419983	
-0.419434	
-0.420715	
-0.421631	
-0.422546	
-0.424072	
-0.425964	
-0.427551	
-0.429565	
-0.429626	
-0.432068	
-0.432068	
-0.432129	
-0.433655	
-0.434509	
-0.437134	
-0.438171	
-0.440308	
-0.441711	
-0.443909	
-0.446106	
-0.446228	
-0.446533	
-0.44696	
-0.446533	
-0.44928	
-0.449829	
-0.450134	
-0.450378	
-0.451172	
-0.451416	
-0.451599	
-0.452454	
-0.452576	
-0.451172	
-0.451416	
-0.449524	
-0.44989	
-0.449158	
-0.44812	
-0.448669	
-0.447571	
-0.447632	
-0.446899	
-0.446228	
-0.445618	
-0.445251	
-0.44458	
-0.443726	
-0.441956	
-0.440979	
-0.439819	
-0.438721	
-0.4375	
-0.435791	
-0.434082	
-0.433228	
-0.431458	
-0.430054	
-0.429321	
-0.427917	
-0.4245	
-0.422729	
-0.419189	
-0.417236	
-0.415222	
-0.412415	
-0.411255	
-0.40863	
-0.407593	
-0.40509	
-0.40332	
-0.401733	
-0.400391	
-0.398376	
-0.397705	
-0.395752	
-0.394348	
-0.392944	
-0.391418	
-0.389526	
-0.387024	
-0.386047	
-0.38501	
-0.383057	
-0.382263	
-0.381653	
-0.380676	
-0.37793	
-0.377625	
-0.375488	
-0.374817	
-0.374451	
-0.373291	
-0.373352	
-0.372437	
-0.371765	
-0.371338	
-0.370422	
-0.369995	
-0.369385	
-0.368713	
-0.368042	
-0.367371	
-0.366394	
-0.366516	
-0.364807	
-0.363647	
-0.362671	
-0.360657	
-0.360535	
-0.359863	
-0.358582	
-0.358154	
-0.357056	
-0.355469	
-0.355347	
-0.354309	
-0.35498	
-0.353882	
-0.352234	
-0.353943	
-0.353577	
-0.354553	
-0.354858	
-0.355286	
-0.356445	
-0.356873	
-0.356689	
-0.357666	
-0.357788	
-0.359253	
-0.359741	
-0.35968	
-0.361145	
-0.362	
-0.362976	
-0.363098	
-0.364136	
-0.365051	
-0.365234	
-0.365112	
-0.366882	
-0.365845	
-0.367371	
-0.367004	
-0.366577	
-0.36731	
-0.367676	
-0.368286	
-0.368958	
-0.36908	
-0.369751	
-0.369324	
-0.368713	
-0.368896	
-0.367493	
-0.368042	
-0.368225	
-0.367188	
-0.367798	
-0.367493	
-0.367615	
-0.366882	
-0.367432	
-0.368042	
-0.367065	
-0.367004	
-0.36731	
-0.366882	
-0.367554	
-0.368164	
-0.367798	
-0.368652	
-0.368652	
-0.368652	
-0.370178	
-0.370178	
-0.371033	
-0.371216	
-0.371582	
-0.372192	
-0.372437	
-0.373962	
-0.375671	
-0.375366	
-0.375916	
-0.376343	
-0.375488	
-0.377075	
-0.377625	
-0.378784	
-0.378967	
-0.378357	
-0.378723	
-0.379089	
-0.378357	
-0.380066	
-0.3797	
-0.379639	
-0.380005	
-0.379944	
-0.38092	
-0.380798	
-0.381653	
-0.382446	
-0.381104	
-0.381165	
-0.380859	
-0.379883	
-0.381531	
-0.382263	
-0.380676	
-0.381714	
-0.381958	
-0.381714	
-0.382568	
-0.383057	
-0.383728	
-0.382996	
-0.382568	
-0.382629	
-0.38208	
-0.382629	
-0.383179	
-0.382263	
-0.383057	
-0.382874	
-0.382751	
-0.383423	
-0.383789	
-0.384399	
-0.384521	
-0.383606	
-0.383362	
-0.383728	
-0.383484	
-0.384399	
-0.384521	
-0.383179	
-0.384888	
-0.384521	
-0.384033	
-0.385376	
-0.386475	
-0.386292	
-0.385681	
-0.385986	
-0.385986	
-0.38562	
-0.38678	
-0.38739	
-0.38623	
-0.386353	
-0.386841	
-0.386169	
-0.387207	
-0.387573	
-0.388611	
-0.387512	
-0.386902	
-0.386963	
-0.386047	
-0.387451	
-0.387939	
-0.387146	
-0.386841	
-0.387207	
-0.387085	
-0.387329	
-0.387695	
-0.388611	
-0.388123	
-0.387512	
-0.388062	
-0.387756	
-0.38678	
-0.388916	
-0.389038	
-0.38855	
-0.389099	
-0.388794	
-0.387939	
-0.388855	
-0.388855	
-0.389404	
-0.387817	
-0.388245	
-0.388062	
-0.387695	
-0.388428	
-0.390076	
-0.38855	
-0.387939	
-0.388794	
-0.388245	
-0.388794	
-0.388733	
-0.389648	
-0.389221	
-0.388184	
-0.387817	
-0.388428	
-0.387329	
-0.387756	
-0.387207	
-0.386902	
-0.386597	
-0.386414	
-0.386108	
-0.386475	
-0.387085	
-0.387939	
-0.386658	
-0.386047	
-0.386292	
-0.386353	
-0.387024	
-0.38739	
-0.386414	
-0.386597	
-0.386719	
-0.386902	
-0.386963	
-0.388245	
-0.388428	
-0.387756	
-0.387268	
-0.387451	
-0.387024	
-0.388184	
-0.389771	
-0.389221	
-0.388916	
-0.388428	
-0.389038	
-0.390625	
-0.391541	
-0.391296	
-0.391235	
-0.390381	
-0.389709	
-0.390503	
-0.391052	
-0.391541	
-0.391846	
-0.39209	
-0.392029	
-0.391235	
-0.392273	
-0.39325	
-0.392395	
-0.392578	
-0.391602	
-0.390808	
-0.391479	
-0.390015	
-0.390747	
-0.391174	
-0.391602	
-0.391052	
-0.390686	
-0.391541	
-0.391724	
-0.39093	
-0.392212	
-0.391968	
-0.391418	
-0.39093	
-0.390503	
-0.390381	
-0.392944	
-0.391357	
-0.391602	
-0.391174	
-0.389709	
-0.391846	
-0.392151	
-0.392639	
-0.392273	
-0.39209	
-0.391785	
-0.392029	
-0.392395	
-0.393127	
-0.393005	
-0.392578	
-0.391541	
-0.391724	
-0.391968	
-0.392456	
-0.391968	
-0.39325	
-0.39209	
-0.390198	
-0.391418	
-0.39032	
-0.391174	
-0.392456	
-0.391174	
-0.390747	
-0.390137	
-0.389648	
-0.391846	
-0.391296	
-0.391418	
-0.391663	
-0.390259	
-0.390137	
-0.389343	
-0.388794	
-0.390015	
-0.390259	
-0.389221	
-0.389465	
-0.38916	
-0.388855	
-0.390381	
-0.39032	
-0.390625	
-0.389343	
-0.389282	
-0.389465	
-0.389282	
-0.389832	
-0.391357	
-0.390198	
-0.390076	
-0.390076	
-0.389221	
-0.390442	
-0.390442	
-0.390686	
-0.391785	
-0.389526	
-0.389954	
-0.389648	
-0.388245	
-0.390503	
-0.390808	
-0.390381	
-0.390686	
-0.390259	
-0.390259	
-0.391052	
-0.390564	
-0.392273	
-0.390503	
-0.390808	
-0.390686	
-0.389709	
-0.391296	
-0.392029	
-0.391846	
-0.391296	
-0.391602	
-0.391479	
-0.392151	
-0.392639	
-0.393066	
-0.394165	
-0.392517	
-0.393127	
-0.393188	
-0.392334	
-0.393982	
-0.393982	
-0.393311	
-0.393494	
-0.393372	
-0.393311	
-0.393616	
-0.39325	
-0.393921	
-0.393616	
-0.393372	
-0.393005	
-0.392334	
-0.393555	
-0.394104	
-0.394226	
-0.393433	
-0.394104	
-0.393982	
-0.394287	
-0.394897	
-0.396301	
-0.396362	
-0.395203	
-0.396729	
-0.39563	
-0.397339	
-0.397766	
-0.399292	
-0.398682	
-0.398743	
-0.398682	
-0.398438	
-0.399048	
-0.399292	
-0.399414	
-0.398682	
-0.39856	
-0.398376	
-0.39801	
-0.398865	
-0.399292	
-0.399536	
-0.398438	
-0.398315	
-0.397949	
-0.397888	
-0.397766	
-0.39856	
-0.397522	
-0.395264	
-0.395569	
-0.393921	
-0.394592	
-0.394592	
-0.394531	
-0.393921	
-0.39325	
-0.392822	
-0.391907	
-0.392395	
-0.392761	
-0.3927	
-0.391907	
-0.391541	
-0.391052	
-0.39032	
-0.391418	
-0.391357	
-0.391296	
-0.390747	
-0.390686	
-0.390564	
-0.390991	
-0.390625	
-0.391541	
-0.390076	
-0.389099	
-0.390137	
-0.38916	
-0.390686	
-0.390198	
-0.391113	
-0.390991	
-0.390076	
-0.390015	
-0.388916	
-0.389282	
-0.390564	
-0.390808	
-0.389465	
-0.389648	
-0.389893	
-0.388733	
-0.390259	
-0.390381	
-0.391113	
-0.390381	
-0.390015	
-0.390442	
-0.391113	
-0.390686	
-0.391846	
-0.390869	
-0.389954	
-0.390991	
-0.390442	
-0.390747	
-0.39093	
-0.391785	
-0.391235	
-0.391052	
-0.390564	
-0.389587	
-0.390137	
-0.390015	
-0.390991	
-0.389038	
-0.389526	
-0.388794	
-0.386414	
-0.388855	
-0.388855	
-0.388733	
-0.388916	
-0.388489	
-0.388428	
-0.389343	
-0.388123	
-0.389465	
-0.388489	
-0.387573	
-0.388794	
-0.388306	
-0.388916	
-0.389099	
-0.390015	
-0.389404	
-0.389465	
-0.389404	
-0.388245	
-0.389221	
-0.388489	
-0.391174	
-0.388916	
-0.389099	
-0.388611	
-0.387573	
-0.389526	
-0.389709	
-0.390259	
-0.390869	
-0.390503	
-0.390808	
-0.392334	
-0.391418	
-0.392761	
-0.391724	
-0.390747	
-0.391296	
-0.390747	
-0.39093	
-0.391907	
-0.392456	
-0.391418	
-0.392334	
-0.391968	
-0.391235	
-0.392151	
-0.39209	
-0.393677	
-0.392334	
-0.392578	
-0.392944	
-0.392029	
-0.393555	
-0.39386	
-0.394165	
-0.394104	
-0.393799	
-0.39325	
-0.393677	
-0.39325	
-0.394348	
-0.393372	
-0.392273	
-0.392578	
-0.391113	
-0.392517	
-0.392395	
-0.393188	
-0.392212	
-0.392944	
-0.392029	
-0.391602	
-0.392029	
-0.390503	
-0.392456	
-0.390503	
-0.389099	
-0.389282	
-0.388977	
-0.388855	
-0.38855	
-0.38916	
-0.388245	
-0.388	
-0.387817	
-0.387207	
-0.387878	
-0.38916	
-0.388794	
-0.387878	
-0.387146	
-0.386841	
-0.385925	
-0.387085	
-0.386841	
-0.386902	
-0.387268	
-0.38623	
-0.386047	
-0.387268	
-0.38623	
-0.386963	
-0.386536	
-0.386169	
-0.385742	
-0.386353	
-0.386658	
-0.38678	
-0.387024	
-0.387146	
-0.387146	
-0.386902	
-0.386841	
-0.387817	
-0.387634	
-0.38739	
-0.386353	
-0.386841	
-0.38678	
-0.385925	
-0.387146	
-0.387085	
-0.388184	
-0.387634	
-0.387024	
-0.38678	
-0.386597	
-0.387268	
-0.387512	
-0.386841	
-0.386414	
-0.385864	
-0.386292	
-0.386719	
-0.38678	
-0.387451	
-0.387512	
-0.387512	
-0.387695	
-0.387329	
-0.388855	
-0.387939	
-0.389038	
-0.388367	
-0.388123	
-0.388489	
-0.387817	
-0.388733	
-0.388855	
-0.389526	
-0.389648	
-0.389709	
-0.389954	
-0.390747	
-0.391418	
-0.391602	
-0.391296	
-0.390686	
-0.390747	
-0.389954	
-0.390808	
-0.391113	
-0.391541	
-0.391052	
-0.391479	
-0.390808	
-0.390198	
-0.392029	
-0.390808	
-0.390991	
-0.39032	
-0.389282	
-0.390564	
-0.390625	
-0.390686	
-0.391296	
-0.39093	
-0.391418	
-0.391418	
-0.391052	
-0.391357	
-0.392029	
-0.391479	
-0.391785	
-0.391296	
-0.391174	
-0.390381	
-0.391479	
-0.391418	
-0.391846	
-0.390991	
-0.391174	
-0.390808	
-0.390381	
-0.391968	
-0.390869	
-0.390747	
-0.389954	
-0.388794	
-0.389893	
-0.390198	
-0.389709	
-0.389832	
-0.389954	
-0.38916	
-0.389587	
-0.388611	
-0.388672	
-0.389648	
-0.388489	
-0.388367	
-0.388367	
-0.387634	
-0.387573	
-0.388489	
-0.389038	
-0.389465	
-0.388855	
-0.388733	
-0.388611	
-0.387939	
-0.389832	
-0.389404	
-0.389282	
-0.38855	
-0.387878	
-0.388245	
-0.388184	
-0.388672	
-0.389221	
-0.388916	
-0.387817	
-0.387695	
-0.386658	
-0.385681	
-0.386963	
-0.38562	
-0.385254	
-0.384521	
-0.382141	
-0.383972	
-0.384216	
-0.383606	
-0.384033	
-0.382751	
-0.382935	
-0.383972	
-0.382751	
-0.383728	
-0.383362	
-0.383789	
-0.383545	
-0.382629	
-0.383423	
-0.382446	
-0.383789	
-0.383911	
-0.384827	
-0.384399	
-0.385132	
-0.385437	
-0.385742	
-0.388062	
-0.387695	
-0.388123	
-0.387329	
-0.387451	
-0.388794	
-0.388611	
-0.389221	
-0.389771	
-0.388977	
-0.389282	
-0.390198	
-0.388855	
-0.390808	
-0.390137	
-0.389221	
-0.390076	
-0.388916	
-0.389343	
-0.389832	
-0.390564	
-0.391174	
-0.39093	
-0.39032	
-0.391113	
-0.390625	
-0.391174	
-0.391235	
-0.391296	
-0.391785	
-0.391113	
-0.390686	
-0.391052	
-0.390442	
-0.391174	
-0.392151	
-0.391235	
-0.391296	
-0.391968	
-0.39093	
-0.392151	
-0.391968	
-0.390747	
-0.391235	
-0.389648	
-0.38916	
-0.390198	
-0.390076	
-0.390991	
-0.391541	
-0.390381	
-0.390381	
-0.390808	
-0.389771	
-0.390137	
-0.390198	
-0.390442	
-0.390198	
-0.390198	
-0.390564	
-0.390869	
-0.391479	
-0.391357	
-0.391357	
-0.391724	
-0.391602	
-0.391357	
-0.392822	
-0.3927	
-0.391907	
-0.392639	
-0.391663	
-0.391663	
-0.3927	
-0.39209	
-0.393127	
-0.393555	
-0.393066	
-0.39325	
-0.393738	
-0.392273	
-0.392639	
-0.392944	
-0.392578	
-0.391357	
-0.391418	
-0.390808	
-0.391602	
-0.392029	
-0.391785	
-0.391724	
-0.391846	
-0.392212	
-0.392456	
-0.393005	
-0.392029	
-0.392334	
-0.391296	
-0.390259	
-0.390991	
-0.390991	
-0.389587	
-0.390625	
-0.390686	
-0.390503	
-0.389832	
-0.390137	
-0.389343	
-0.390076	
-0.390442	
-0.390198	
-0.389648	
-0.389587	
-0.389038	
-0.389404	
-0.389526	
-0.389465	
-0.389221	
-0.389282	
-0.388367	
-0.388733	
-0.38916	
-0.388428	
-0.388489	
-0.387695	
-0.386292	
-0.387512	
-0.386597	
-0.386902	
-0.388	
-0.388794	
-0.387817	
-0.388123	
-0.388367	
-0.389038	
-0.388855	
-0.389709	
-0.388794	
-0.388306	
-0.389038	
-0.389221	
-0.389282	
-0.389465	
-0.390808	
-0.390381	
-0.390381	
-0.390808	
-0.39093	
-0.392639	
-0.391663	
-0.393005	
-0.393005	
-0.391357	
-0.392883	
-0.39209	
-0.393005	
-0.39386	
-0.394653	
-0.393982	
-0.393982	
-0.39447	
-0.394348	
-0.395325	
-0.395813	
-0.395325	
-0.395874	
-0.395569	
-0.395264	
-0.395081	
-0.394287	
-0.395325	
-0.394897	
-0.394714	
-0.394836	
-0.394714	
-0.396545	
-0.395264	
-0.394836	
-0.39447	
-0.392944	
-0.393738	
-0.393494	
-0.394226	
-0.393799	
-0.39502	
-0.393982	
-0.393982	
-0.39325	
-0.393433	
-0.394714	
-0.394897	
-0.394165	
-0.394897	
-0.392944	
-0.393616	
-0.394287	
-0.393982	
-0.394775	
-0.394409	
-0.394531	
-0.394287	
-0.393921	
-0.395447	
-0.39447	
-0.394714	
-0.394226	
-0.394104	
-0.393921	
-0.393372	
-0.393799	
-0.393311	
-0.394104	
-0.393188	
-0.392517	
-0.392883	
-0.392578	
-0.394531	
-0.392822	
-0.393188	
-0.39325	
-0.392639	
-0.392151	
-0.392944	
-0.392273	
-0.391541	
-0.392456	
-0.391235	
-0.390869	
-0.391174	
-0.390747	
-0.391968	
-0.390625	
-0.390747	
-0.391113	
-0.389587	
-0.390747	
-0.390808	
-0.390503	
-0.391235	
-0.390503	
-0.390381	
-0.390381	
-0.390503	
-0.391785	
-0.391296	
-0.390808	
-0.390686	
-0.390381	
-0.389221	
-0.390137	
-0.390015	
-0.390076	
-0.390442	
-0.389587	
-0.389404	
-0.389709	
-0.390198	
-0.391052	
-0.390381	
-0.39032	
-0.389709	
-0.389099	
-0.390991	
-0.39093	
-0.389709	
-0.390686	
-0.391296	
-0.390869	
-0.390991	
-0.391174	
-0.390869	
-0.392639	
-0.392273	
-0.39209	
-0.391968	
-0.391296	
-0.392822	
-0.3927	
-0.3927	
-0.394104	
-0.393555	
-0.393127	
-0.393127	
-0.393921	
-0.394348	
-0.393494	
-0.392822	
-0.392212	
-0.392517	
-0.393005	
-0.393066	
-0.393005	
-0.393494	
-0.39325	
-0.392456	
-0.392883	
-0.392822	
-0.392273	
-0.394287	
-0.393311	
-0.393494	
-0.393738	
-0.39093	
-0.394287	
-0.394348	
-0.39447	
-0.395935	
-0.396484	
-0.396667	
-0.397278	
-0.39801	
-0.397522	
-0.397644	
-0.39801	
-0.397827	
-0.3974	
-0.3974	
-0.398071	
-0.3974	
-0.398438	
-0.398804	
-0.398132	
-0.397644	
-0.398193	
-0.39801	
-0.398926	
-0.39679	
-0.397217	
-0.396484	
-0.396301	
-0.396545	
-0.395691	
-0.395081	
-0.394958	
-0.394897	
-0.393616	
-0.393066	
-0.393555	
-0.39209	
-0.393311	
-0.39209	
-0.391968	
-0.391357	
-0.391174	
-0.391602	
-0.391235	
-0.391296	
-0.391418	
-0.390991	
-0.390625	
-0.390747	
-0.391052	
-0.391785	
-0.391174	
-0.390625	
-0.390076	
-0.389648	
-0.389343	
-0.389893	
-0.389282	
-0.390381	
-0.391357	
-0.390198	
-0.390808	
-0.390869	
-0.389343	
-0.390808	
-0.390686	
-0.390808	
-0.38916	
-0.389099	
-0.389648	
-0.389832	
-0.390259	
-0.391113	
-0.39032	
-0.390503	
-0.390381	
-0.390686	
-0.39093	
-0.39093	
-0.39032	
-0.39093	
-0.390381	
-0.390137	
-0.39093	
-0.389771	
-0.390686	
-0.391296	
-0.390747	
-0.390869	
-0.391052	
-0.391235	
-0.391235	
-0.391296	
-0.390869	
-0.389099	
-0.388794	
-0.388428	
-0.389343	
-0.388977	
-0.389465	
-0.389221	
-0.388672	
-0.388489	
-0.38855	
-0.389832	
-0.38916	
-0.388428	
-0.38916	
-0.38739	
-0.388	
-0.387756	
-0.387878	
-0.388855	
-0.389526	
-0.388916	
-0.389099	
-0.388367	
-0.388916	
-0.389343	
-0.389893	
-0.389221	
-0.388611	
-0.389099	
-0.388794	
-0.38916	
-0.388367	
-0.389343	
-0.389771	
-0.389343	
-0.389221	
-0.389709	
-0.390991	
-0.391052	
-0.391541	
-0.391357	
-0.389404	
-0.391418	
-0.390259	
-0.391174	
-0.390869	
-0.391357	
-0.391113	
-0.391235	
-0.391357	
-0.391724	
-0.391296	
-0.392029	
-0.392029	
-0.392334	
-0.391846	
-0.392273	
-0.391907	
-0.391296	
-0.392883	
-0.393677	
-0.393127	
-0.393127	
-0.393494	
-0.394226	
-0.392822	
-0.394043	
-0.393372	
-0.393005	
-0.392822	
-0.391785	
-0.392212	
-0.392151	
-0.392639	
-0.392334	
-0.391602	
-0.392029	
-0.392029	
-0.392944	
-0.391846	
-0.391357	
-0.391052	
-0.388916	
-0.390076	
-0.389771	
-0.388916	
-0.389099	
-0.389099	
-0.388489	
-0.388	
-0.388123	
-0.387451	
-0.387634	
-0.388062	
-0.387146	
-0.388123	
-0.387878	
-0.387207	
-0.386902	
-0.386475	
-0.386841	
-0.387146	
-0.386292	
-0.386169	
-0.385803	
-0.386414	
-0.386047	
-0.386536	
-0.38623	
-0.384644	
-0.386597	
-0.385742	
-0.386414	
-0.386292	
-0.387024	
-0.386597	
-0.386414	
-0.386353	
-0.387207	
-0.387024	
-0.386963	
-0.386902	
-0.387146	
-0.386597	
-0.386658	
-0.386963	
-0.386475	
-0.38678	
-0.387451	
-0.386902	
-0.387451	
-0.387512	
-0.388184	
-0.387146	
-0.388123	
-0.387329	
-0.385803	
-0.386475	
-0.385315	
-0.38623	
-0.385742	
-0.386414	
-0.386658	
-0.386963	
-0.386902	
-0.386841	
-0.388611	
-0.387634	
-0.387878	
-0.387817	
-0.38678	
-0.387878	
-0.387817	
-0.388	
-0.388428	
-0.388733	
-0.388733	
-0.388733	
-0.38916	
-0.388672	
-0.389587	
-0.390259	
-0.389954	
-0.390808	
-0.390442	
-0.390198	
-0.390808	
-0.389771	
-0.391235	
-0.390686	
-0.390625	
-0.389832	
-0.389954	
-0.392578	
-0.390442	
-0.391174	
-0.390442	
-0.389343	
-0.389893	
-0.389893	
-0.389893	
-0.390686	
-0.391357	
-0.390503	
-0.390808	
-0.390808	
-0.390442	
-0.390991	
-0.391235	
-0.390869	
-0.391479	
-0.390625	
-0.390869	
-0.391235	
-0.390015	
-0.391968	
-0.391052	
-0.390808	
-0.390625	
-0.390625	
-0.392395	
-0.390869	
-0.390991	
-0.390747	
-0.388977	
-0.389893	
-0.389771	
-0.390076	
-0.389343	
-0.390137	
-0.389526	
-0.389038	
-0.388855	
-0.388	
-0.389709	
-0.38855	
-0.389404	
-0.38855	
-0.386658	
-0.387939	
-0.387268	
-0.387268	
-0.38916	
-0.388428	
-0.388428	
-0.388306	
-0.388367	
-0.388855	
-0.388977	
-0.388916	
-0.389099	
-0.388	
-0.387756	
-0.388306	
-0.38855	
-0.388123	
-0.389526	
-0.388	
-0.387939	
-0.387817	
-0.387085	
-0.387817	
-0.386536	
-0.385986	
-0.386108	
-0.383789	
-0.384155	
-0.383972	
-0.383606	
-0.383606	
-0.383484	
-0.382751	
-0.382385	
-0.38269	
-0.383423	
-0.383667	
-0.382751	
-0.38385	
-0.383179	
-0.381714	
-0.382935	
-0.38269	
-0.382324	
-0.384094	
-0.383606	
-0.38385	
-0.383789	
-0.383606	
-0.385864	
-0.385681	
-0.386475	
-0.386841	
-0.387146	
-0.387573	
-0.387512	
-0.387939	
-0.388184	
-0.388611	
-0.388733	
-0.388855	
-0.389099	
-0.389771	
-0.390564	
-0.390137	
-0.390381	
-0.389893	
-0.388855	
-0.390076	
-0.389648	
-0.39032	
-0.39093	
-0.389893	
-0.39032	
-0.389587	
-0.390015	
-0.391541	
-0.391357	
-0.391052	
-0.391235	
-0.39093	
-0.39032	
-0.39093	
-0.390747	
-0.390076	
-0.391418	
-0.390625	
-0.390259	
-0.390564	
-0.391296	
-0.392273	
-0.390991	
-0.391541	
-0.39093	
-0.389404	
-0.390503	
-0.390137	
-0.39032	
-0.39093	
-0.390686	
-0.390442	
-0.39032	
-0.389954	
-0.390686	
-0.390869	
-0.389771	
-0.390869	
-0.390381	
-0.389343	
-0.389893	
-0.389954	
-0.390503	
-0.391602	
-0.390991	
-0.390991	
-0.390564	
-0.389771	
-0.392212	
-0.391785	
-0.392029	
-0.392212	
-0.391602	
-0.392334	
-0.391968	
-0.391113	
-0.392273	
-0.392944	
-0.392761	
-0.392517	
-0.392578	
-0.392944	
-0.393188	
-0.391907	
-0.392517	
-0.392395	
-0.391296	
-0.391907	
-0.391724	
-0.391602	
-0.392334	
-0.391968	
-0.39209	
-0.391357	
-0.391174	
-0.39325	
-0.392151	
-0.391479	
-0.392151	
-0.391418	
-0.391235	
-0.391663	
-0.390503	
-0.389709	
-0.390869	
-0.390198	
-0.390381	
-0.389832	
-0.390198	
-0.390747	
-0.389465	
-0.389832	
-0.390625	
-0.389587	
-0.389282	
-0.388977	
-0.388672	
-0.390015	
-0.389038	
-0.388672	
-0.388733	
-0.387268	
-0.389038	
-0.389038	
-0.388062	
-0.387939	
-0.388245	
-0.386597	
-0.387756	
-0.387268	
-0.387451	
-0.387268	
-0.387634	
-0.388	
-0.388245	
-0.388306	
-0.389343	
-0.388428	
-0.388489	
-0.389282	
-0.388062	
-0.388733	
-0.389526	
-0.388916	
-0.388855	
-0.389648	
-0.389343	
-0.390198	
-0.389221	
-0.39093	
-0.392395	
-0.391296	
-0.392273	
-0.39325	
-0.390747	
-0.393372	
-0.393188	
-0.392944	
-0.393555	
-0.393799	
	
