E:\DOCUMENTS AND SETTINGS\JPOTAS\MEUS DOCUMENTOS\UFRJ\RSCI-BM 12 WK SERIES\070731-RSCI-BM-12\RSCI-BM-12-REMG\070731-RSCI-BM-12-REMG-0003.ACQ
0.025000 msec/sample
1 channel
Analog input
Volts
CH1	
2000	
-0.392578	
-0.393799	
-0.392212	
-0.393005	
-0.393127	
-0.39209	
-0.392029	
-0.393555	
-0.393005	
-0.393188	
-0.392456	
-0.393311	
-0.392822	
-0.393311	
-0.394592	
-0.392395	
-0.391968	
-0.391602	
-0.390503	
-0.390442	
-0.391235	
-0.391296	
-0.390808	
-0.390808	
-0.391724	
-0.391479	
-0.391418	
-0.392822	
-0.391113	
-0.391479	
-0.391357	
-0.38916	
-0.390198	
-0.390747	
-0.39032	
-0.390137	
-0.390564	
-0.39093	
-0.392273	
-0.391479	
-0.392639	
-0.391479	
-0.391357	
-0.391418	
-0.389832	
-0.391174	
-0.391602	
-0.391479	
-0.390564	
-0.391418	
-0.39209	
-0.392578	
-0.39209	
-0.392578	
-0.391418	
-0.390015	
-0.391174	
-0.390564	
-0.390503	
-0.390259	
-0.39093	
-0.390198	
-0.39093	
-0.390625	
-0.391052	
-0.39093	
-0.391479	
-0.390564	
-0.390869	
-0.390076	
-0.389587	
-0.389893	
-0.389893	
-0.389709	
-0.389648	
-0.39032	
-0.390686	
-0.390747	
-0.390625	
-0.391296	
-0.391174	
-0.391113	
-0.390686	
-0.389709	
-0.39032	
-0.390198	
-0.390503	
-0.390442	
-0.390564	
-0.390442	
-0.390076	
-0.390564	
-0.390625	
-0.390869	
-0.390137	
-0.389648	
-0.388977	
-0.388733	
-0.387634	
-0.388855	
-0.388611	
-0.387817	
-0.38855	
-0.388855	
-0.389771	
-0.388977	
-0.390686	
-0.389099	
-0.38855	
-0.389038	
-0.388489	
-0.387573	
-0.389099	
-0.388733	
-0.387756	
-0.388733	
-0.38916	
-0.389343	
-0.389099	
-0.390564	
-0.389893	
-0.388184	
-0.388916	
-0.387634	
-0.388062	
-0.388367	
-0.388062	
-0.38739	
-0.388306	
-0.387634	
-0.388977	
-0.388245	
-0.389587	
-0.389526	
-0.388062	
-0.389404	
-0.38916	
-0.389343	
-0.389954	
-0.390564	
-0.390442	
-0.390381	
-0.390869	
-0.391785	
-0.391113	
-0.390991	
-0.392029	
-0.390686	
-0.391174	
-0.390869	
-0.390625	
-0.391418	
-0.391541	
-0.390869	
-0.390259	
-0.391296	
-0.391479	
-0.391113	
-0.391296	
-0.392517	
-0.390686	
-0.391174	
-0.390442	
-0.390564	
-0.390442	
-0.391052	
-0.390625	
-0.390137	
-0.391296	
-0.391602	
-0.391357	
-0.391357	
-0.392517	
-0.391968	
-0.391235	
-0.391174	
-0.390625	
-0.390991	
-0.391418	
-0.391785	
-0.391052	
-0.391296	
-0.391418	
-0.391785	
-0.391418	
-0.392456	
-0.392151	
-0.390808	
-0.39093	
-0.389221	
-0.390198	
-0.391418	
-0.39093	
-0.390503	
-0.390198	
-0.390198	
-0.390869	
-0.389404	
-0.384949	
-0.38385	
-0.38208	
-0.382141	
-0.381836	
-0.384216	
-0.389587	
-0.390442	
-0.390564	
-0.390869	
-0.390686	
-0.390442	
-0.390808	
-0.392151	
-0.391602	
-0.390381	
-0.390381	
-0.389648	
-0.389893	
-0.390381	
-0.39032	
-0.390381	
-0.389587	
-0.390503	
-0.390442	
-0.391785	
-0.391174	
-0.391418	
-0.390869	
-0.390259	
-0.390198	
-0.390869	
-0.389709	
-0.39032	
-0.389709	
-0.388855	
-0.389221	
-0.389282	
-0.389954	
-0.389343	
-0.389099	
-0.389587	
-0.38739	
-0.388367	
-0.388428	
-0.387939	
-0.388855	
-0.388733	
-0.388245	
-0.388855	
-0.388611	
-0.389954	
-0.389038	
-0.389099	
-0.388733	
-0.387939	
-0.388123	
-0.388184	
-0.38739	
-0.387878	
-0.387146	
-0.387207	
-0.387085	
-0.38678	
-0.387512	
-0.387085	
-0.387939	
-0.387573	
-0.386597	
-0.386719	
-0.386292	
-0.38623	
-0.386597	
-0.386108	
-0.38623	
-0.385681	
-0.386169	
-0.386658	
-0.385986	
-0.387024	
-0.388062	
-0.386658	
-0.387756	
-0.387939	
-0.388733	
-0.390137	
-0.391418	
-0.391479	
-0.391907	
-0.39447	
-0.395569	
-0.396362	
-0.398376	
-0.399292	
-0.399414	
-0.401855	
-0.402527	
-0.404785	
-0.406677	
-0.408325	
-0.408997	
-0.410095	
-0.411682	
-0.413757	
-0.413696	
-0.416443	
-0.417603	
-0.417603	
-0.418396	
-0.419067	
-0.419312	
-0.420715	
-0.421204	
-0.421204	
-0.422363	
-0.423828	
-0.424133	
-0.425049	
-0.425903	
-0.42572	
-0.427002	
-0.426636	
-0.427673	
-0.428772	
-0.429077	
-0.429138	
-0.429199	
-0.430786	
-0.432129	
-0.432556	
-0.434143	
-0.435303	
-0.435181	
-0.436218	
-0.435669	
-0.437073	
-0.437073	
-0.437866	
-0.437988	
-0.437927	
-0.439819	
-0.440918	
-0.441711	
-0.443909	
-0.445435	
-0.44458	
-0.446289	
-0.446899	
-0.449463	
-0.450012	
-0.45166	
-0.452576	
-0.453735	
-0.454773	
-0.457031	
-0.457031	
-0.458923	
-0.458008	
-0.456787	
-0.457703	
-0.456299	
-0.457153	
-0.456604	
-0.45575	
-0.454712	
-0.454102	
-0.453918	
-0.453979	
-0.453064	
-0.452759	
-0.45105	
-0.449036	
-0.449463	
-0.448303	
-0.448364	
-0.446716	
-0.445618	
-0.444763	
-0.443359	
-0.442322	
-0.440735	
-0.43866	
-0.436646	
-0.434753	
-0.431335	
-0.430603	
-0.428284	
-0.427673	
-0.424561	
-0.423035	
-0.421326	
-0.418579	
-0.417725	
-0.416565	
-0.414429	
-0.412903	
-0.410278	
-0.408081	
-0.406189	
-0.404419	
-0.403625	
-0.401306	
-0.399109	
-0.397156	
-0.394714	
-0.393616	
-0.392334	
-0.390808	
-0.389771	
-0.388428	
-0.386902	
-0.384949	
-0.384094	
-0.38385	
-0.382324	
-0.381287	
-0.380981	
-0.379639	
-0.379089	
-0.377991	
-0.37738	
-0.376099	
-0.374878	
-0.373474	
-0.372131	
-0.370422	
-0.370605	
-0.36969	
-0.368835	
-0.36853	
-0.367615	
-0.367493	
-0.367371	
-0.366699	
-0.366028	
-0.364746	
-0.363708	
-0.36261	
-0.361633	
-0.361145	
-0.359619	
-0.359192	
-0.358582	
-0.357666	
-0.358643	
-0.358643	
-0.358521	
-0.358521	
-0.357971	
-0.356812	
-0.357788	
-0.357788	
-0.358826	
-0.359558	
-0.35907	
-0.359741	
-0.359924	
-0.362061	
-0.363464	
-0.364197	
-0.365173	
-0.365784	
-0.365662	
-0.366821	
-0.367676	
-0.36853	
-0.368896	
-0.36908	
-0.368469	
-0.368896	
-0.369446	
-0.369812	
-0.369934	
-0.369812	
-0.369202	
-0.369873	
-0.369873	
-0.370056	
-0.370605	
-0.371155	
-0.371521	
-0.370544	
-0.37207	
-0.373169	
-0.373108	
-0.373474	
-0.37384	
-0.37262	
-0.373047	
-0.372925	
-0.373108	
-0.374451	
-0.374817	
-0.374695	
-0.37561	
-0.375305	
-0.376465	
-0.376099	
-0.376282	
-0.375366	
-0.375671	
-0.375671	
-0.376953	
-0.376038	
-0.376465	
-0.376465	
-0.376038	
-0.376343	
-0.376709	
-0.37677	
-0.376648	
-0.37677	
-0.375854	
-0.37677	
-0.377197	
-0.377075	
-0.377502	
-0.377869	
-0.378235	
-0.377502	
-0.378601	
-0.379333	
-0.379761	
-0.379822	
-0.38031	
-0.378662	
-0.378601	
-0.380005	
-0.380249	
-0.380798	
-0.380554	
-0.380798	
-0.380676	
-0.380981	
-0.382446	
-0.383179	
-0.382568	
-0.382141	
-0.379639	
-0.379761	
-0.38092	
-0.381409	
-0.381531	
-0.381958	
-0.381592	
-0.381775	
-0.381836	
-0.382568	
-0.38269	
-0.382751	
-0.382141	
-0.382019	
-0.381958	
-0.382202	
-0.382446	
-0.383118	
-0.383545	
-0.382935	
-0.383545	
-0.38385	
-0.384216	
-0.38501	
-0.384949	
-0.383789	
-0.384277	
-0.383789	
-0.38446	
-0.385376	
-0.385803	
-0.385681	
-0.385986	
-0.386597	
-0.386841	
-0.386963	
-0.387756	
-0.388367	
-0.387146	
-0.387024	
-0.386902	
-0.386047	
-0.387634	
-0.387207	
-0.387207	
-0.387512	
-0.387451	
-0.388245	
-0.387756	
-0.38916	
-0.38916	
-0.387146	
-0.388184	
-0.387695	
-0.387451	
-0.389648	
-0.389221	
-0.39032	
-0.389587	
-0.390198	
-0.390991	
-0.390991	
-0.391663	
-0.391663	
-0.389832	
-0.390991	
-0.389771	
-0.390076	
-0.391724	
-0.391541	
-0.390869	
-0.391418	
-0.391846	
-0.392395	
-0.391602	
-0.39209	
-0.391602	
-0.389526	
-0.389465	
-0.388367	
-0.387817	
-0.389221	
-0.38855	
-0.388123	
-0.387878	
-0.388184	
-0.388367	
-0.388123	
-0.388611	
-0.388672	
-0.387085	
-0.387573	
-0.386047	
-0.386292	
-0.387146	
-0.387207	
-0.387634	
-0.387207	
-0.388123	
-0.388184	
-0.388794	
-0.389221	
-0.389404	
-0.388367	
-0.388306	
-0.387756	
-0.388367	
-0.388977	
-0.388672	
-0.389404	
-0.389221	
-0.389282	
-0.389954	
-0.389832	
-0.390503	
-0.39093	
-0.389404	
-0.389343	
-0.388611	
-0.388428	
-0.390564	
-0.389954	
-0.389893	
-0.389648	
-0.389893	
-0.390198	
-0.390686	
-0.39093	
-0.39093	
-0.391296	
-0.390198	
-0.390137	
-0.389893	
-0.391113	
-0.391235	
-0.390869	
-0.39093	
-0.391113	
-0.391296	
-0.392334	
-0.391541	
-0.391724	
-0.391357	
-0.390137	
-0.390991	
-0.390015	
-0.390076	
-0.389587	
-0.389343	
-0.388794	
-0.388916	
-0.389404	
-0.389832	
-0.390015	
-0.390015	
-0.390015	
-0.387512	
-0.389282	
-0.388733	
-0.388733	
-0.389404	
-0.388672	
-0.388306	
-0.388916	
-0.38916	
-0.389893	
-0.39032	
-0.390381	
-0.390198	
-0.388855	
-0.388916	
-0.388733	
-0.388855	
-0.389832	
-0.389893	
-0.39032	
-0.390198	
-0.390564	
-0.390869	
-0.390808	
-0.391357	
-0.390381	
-0.390137	
-0.38916	
-0.389099	
-0.390198	
-0.390015	
-0.389893	
-0.389587	
-0.389465	
-0.389709	
-0.389709	
-0.390503	
-0.389771	
-0.389099	
-0.388977	
-0.388245	
-0.388367	
-0.389099	
-0.389526	
-0.389282	
-0.389282	
-0.388977	
-0.389099	
-0.389343	
-0.390747	
-0.390259	
-0.389893	
-0.389343	
-0.388733	
-0.388916	
-0.389893	
-0.389099	
-0.389465	
-0.389099	
-0.389038	
-0.389404	
-0.389221	
-0.390137	
-0.390564	
-0.388916	
-0.38916	
-0.387634	
-0.388	
-0.388794	
-0.388489	
-0.388184	
-0.387329	
-0.387268	
-0.387817	
-0.387817	
-0.388367	
-0.388306	
-0.38739	
-0.387512	
-0.386414	
-0.386963	
-0.38855	
-0.387939	
-0.388	
-0.387512	
-0.38739	
-0.388184	
-0.388245	
-0.388733	
-0.388245	
-0.388245	
-0.387878	
-0.38678	
-0.388	
-0.389404	
-0.388489	
-0.388611	
-0.388123	
-0.386841	
-0.388245	
-0.387939	
-0.388672	
-0.388123	
-0.388	
-0.388367	
-0.386536	
-0.388428	
-0.389771	
-0.389465	
-0.389954	
-0.390381	
-0.389221	
-0.390808	
-0.391052	
-0.391907	
-0.391602	
-0.390991	
-0.391846	
-0.389709	
-0.391052	
-0.391907	
-0.391907	
-0.391663	
-0.391846	
-0.390686	
-0.391541	
-0.391663	
-0.392395	
-0.39209	
-0.392334	
-0.392456	
-0.391235	
-0.391541	
-0.392395	
-0.391663	
-0.391418	
-0.391357	
-0.390442	
-0.391174	
-0.391113	
-0.392395	
-0.391663	
-0.391785	
-0.392273	
-0.390808	
-0.391663	
-0.392883	
-0.391785	
-0.391968	
-0.391785	
-0.391296	
-0.391785	
-0.39209	
-0.392822	
-0.392395	
-0.392456	
-0.392944	
-0.390686	
-0.392151	
-0.392029	
-0.390503	
-0.391663	
-0.391113	
-0.389709	
-0.391418	
-0.391113	
-0.39209	
-0.391113	
-0.391785	
-0.39093	
-0.389282	
-0.389038	
-0.389526	
-0.388611	
-0.389282	
-0.389648	
-0.388611	
-0.389465	
-0.389648	
-0.389832	
-0.390564	
-0.390137	
-0.390076	
-0.38916	
-0.388977	
-0.389771	
-0.389404	
-0.390137	
-0.389832	
-0.388733	
-0.389709	
-0.389648	
-0.389526	
-0.390564	
-0.390015	
-0.390015	
-0.389526	
-0.388733	
-0.389893	
-0.389404	
-0.389893	
-0.389832	
-0.388489	
-0.389709	
-0.389709	
-0.389526	
-0.390015	
-0.389221	
-0.389404	
-0.388428	
-0.388306	
-0.389038	
-0.387756	
-0.387939	
-0.387817	
-0.387268	
-0.388733	
-0.388306	
-0.388672	
-0.389587	
-0.388428	
-0.388855	
-0.388794	
-0.387695	
-0.388855	
-0.388184	
-0.388123	
-0.388367	
-0.388306	
-0.388367	
-0.387756	
-0.388123	
-0.388855	
-0.387756	
-0.388184	
-0.387939	
-0.386841	
-0.387146	
-0.386719	
-0.386353	
-0.387024	
-0.387024	
-0.386902	
-0.387024	
-0.386963	
-0.387329	
-0.387268	
-0.387512	
-0.387268	
-0.384949	
-0.38623	
-0.38623	
-0.386475	
-0.387268	
-0.387634	
-0.388306	
-0.388855	
-0.389648	
-0.390015	
-0.390686	
-0.390869	
-0.390991	
-0.389343	
-0.390625	
-0.390137	
-0.390076	
-0.390808	
-0.390747	
-0.391052	
-0.391907	
-0.392029	
-0.392639	
-0.392639	
-0.392578	
-0.391541	
-0.389526	
-0.390076	
-0.390259	
-0.388916	
-0.390076	
-0.389709	
-0.389648	
-0.389648	
-0.389832	
-0.39032	
-0.390015	
-0.389343	
-0.389465	
-0.387207	
-0.387085	
-0.387695	
-0.386841	
-0.387817	
-0.387817	
-0.386475	
-0.387573	
-0.387756	
-0.387817	
-0.387878	
-0.38855	
-0.387695	
-0.385986	
-0.386475	
-0.38623	
-0.385742	
-0.38623	
-0.386108	
-0.385681	
-0.386414	
-0.386047	
-0.386414	
-0.386414	
-0.387817	
-0.387085	
-0.386047	
-0.385498	
-0.385315	
-0.385498	
-0.386353	
-0.385803	
-0.386169	
-0.38623	
-0.386963	
-0.387756	
-0.388184	
-0.388367	
-0.388428	
-0.387146	
-0.388	
-0.388367	
-0.388672	
-0.388123	
-0.388733	
-0.388733	
-0.388672	
-0.388184	
-0.388794	
-0.390015	
-0.389343	
-0.388916	
-0.388306	
-0.388245	
-0.387634	
-0.388245	
-0.388184	
-0.388428	
-0.388062	
-0.387207	
-0.386841	
-0.387451	
-0.388245	
-0.388611	
-0.388184	
-0.387695	
-0.387573	
-0.385925	
-0.387451	
-0.387146	
-0.386536	
-0.387146	
-0.385986	
-0.38739	
-0.387878	
-0.388916	
-0.389282	
-0.389038	
-0.388123	
-0.387512	
-0.387207	
-0.388	
-0.388367	
-0.388611	
-0.388794	
-0.387573	
-0.388184	
-0.388611	
-0.389832	
-0.389587	
-0.389893	
-0.388733	
-0.387695	
-0.388306	
-0.388611	
-0.388794	
-0.388611	
-0.388489	
-0.388794	
-0.387939	
-0.388733	
-0.389771	
-0.389526	
-0.389038	
-0.38855	
-0.387634	
-0.387268	
-0.388367	
-0.389221	
-0.388611	
-0.388367	
-0.388489	
-0.388611	
-0.389038	
-0.389954	
-0.390015	
-0.390564	
-0.390137	
-0.388672	
-0.388916	
-0.388916	
-0.390808	
-0.390015	
-0.390015	
-0.389709	
-0.388733	
-0.390442	
-0.390808	
-0.390564	
-0.391235	
-0.390747	
-0.390137	
-0.389526	
-0.38916	
-0.390991	
-0.39032	
-0.390381	
-0.389954	
-0.38855	
-0.389893	
-0.389954	
-0.39032	
-0.390686	
-0.390625	
-0.390381	
-0.390503	
-0.389954	
-0.390991	
-0.391235	
-0.391235	
-0.391541	
-0.390259	
-0.390686	
-0.390625	
-0.390625	
-0.391235	
-0.390076	
-0.388794	
-0.388489	
-0.387939	
-0.388794	
-0.388184	
-0.38855	
-0.388489	
-0.387268	
-0.387756	
-0.388062	
-0.389038	
-0.388977	
-0.388184	
-0.387085	
-0.386353	
-0.386963	
-0.387085	
-0.387329	
-0.38739	
-0.387207	
-0.386292	
-0.387451	
-0.387939	
-0.388977	
-0.38855	
-0.388123	
-0.387512	
-0.386902	
-0.386353	
-0.386963	
-0.387451	
-0.38739	
-0.387451	
-0.387024	
-0.388062	
-0.387695	
-0.388062	
-0.387878	
-0.386902	
-0.387207	
-0.386536	
-0.386108	
-0.386963	
-0.387268	
-0.387939	
-0.387634	
-0.387756	
-0.388	
-0.387939	
-0.388306	
-0.389221	
-0.388123	
-0.388184	
-0.387634	
-0.387268	
-0.388428	
-0.389709	
-0.389038	
-0.389038	
-0.388855	
-0.388672	
-0.389038	
-0.389648	
-0.390564	
-0.389832	
-0.388977	
-0.38855	
-0.387512	
-0.388184	
-0.389465	
-0.388733	
-0.388794	
-0.388489	
-0.387878	
-0.388855	
-0.388855	
-0.389771	
-0.388428	
-0.388794	
-0.388611	
-0.387939	
-0.388611	
-0.389709	
-0.389526	
-0.388794	
-0.389221	
-0.387695	
-0.38916	
-0.388855	
-0.390137	
-0.389282	
-0.389587	
-0.388733	
-0.387817	
-0.38916	
-0.390076	
-0.389465	
-0.390137	
-0.390137	
-0.389954	
-0.390564	
-0.39093	
-0.39209	
-0.391785	
-0.391418	
-0.390198	
-0.388306	
-0.390503	
-0.390137	
-0.390747	
-0.390686	
-0.390564	
-0.390198	
-0.390625	
-0.390747	
-0.391846	
-0.391846	
-0.391602	
-0.390442	
-0.38855	
-0.390747	
-0.390259	
-0.391418	
-0.391541	
-0.391479	
-0.391235	
-0.390991	
-0.391724	
-0.393005	
-0.392822	
-0.392883	
-0.391663	
-0.390381	
-0.390869	
-0.391846	
-0.393677	
-0.392517	
-0.392639	
-0.392212	
-0.391052	
-0.392029	
-0.39209	
-0.391785	
-0.391479	
-0.390076	
-0.38916	
-0.389038	
-0.388184	
-0.389648	
-0.388611	
-0.388306	
-0.38855	
-0.387451	
-0.388184	
-0.388733	
-0.389526	
-0.388428	
-0.387634	
-0.386963	
-0.387207	
-0.387024	
-0.388733	
-0.388367	
-0.388184	
-0.388062	
-0.388123	
-0.38916	
-0.389893	
-0.390137	
-0.390381	
-0.389465	
-0.389099	
-0.389526	
-0.389404	
-0.390808	
-0.389648	
-0.390259	
-0.390381	
-0.389282	
-0.390381	
-0.391052	
-0.391785	
-0.391296	
-0.391235	
-0.391174	
-0.390747	
-0.389954	
-0.392334	
-0.391296	
-0.391357	
-0.391296	
-0.39032	
-0.392334	
-0.392456	
-0.393005	
-0.392944	
-0.393311	
-0.391968	
-0.392517	
-0.392151	
-0.393005	
-0.393127	
-0.392761	
-0.392883	
-0.392151	
-0.392822	
-0.393066	
-0.393921	
-0.392944	
-0.393616	
-0.392151	
-0.391602	
-0.391418	
-0.391113	
-0.391174	
-0.39093	
-0.390503	
-0.390015	
-0.391052	
-0.391724	
-0.392639	
-0.391541	
-0.391418	
-0.390198	
-0.389893	
-0.391052	
-0.390259	
-0.390991	
-0.390015	
-0.390503	
-0.390137	
-0.390381	
-0.391052	
-0.392761	
-0.391235	
-0.392395	
-0.391113	
-0.390259	
-0.390381	
-0.389893	
-0.390991	
-0.390991	
-0.391418	
-0.391418	
-0.391724	
-0.392151	
-0.393738	
-0.391724	
-0.392639	
-0.391235	
-0.390137	
-0.390991	
-0.389648	
-0.390808	
-0.390564	
-0.390686	
-0.391174	
-0.390747	
-0.390808	
-0.391663	
-0.390808	
-0.391296	
-0.390076	
-0.388611	
-0.390137	
-0.389709	
-0.390686	
-0.389954	
-0.390137	
-0.390198	
-0.389832	
-0.390991	
-0.391846	
-0.390747	
-0.391174	
-0.391479	
-0.389832	
-0.39093	
-0.39093	
-0.391418	
-0.390686	
-0.390869	
-0.390381	
-0.390503	
-0.390808	
-0.392212	
-0.391174	
-0.391113	
-0.391541	
-0.389221	
-0.390259	
-0.390198	
-0.389526	
-0.389709	
-0.389526	
-0.389282	
-0.388184	
-0.389709	
-0.390015	
-0.39032	
-0.389587	
-0.390808	
-0.38855	
-0.389343	
-0.389648	
-0.390076	
-0.389038	
-0.389709	
-0.389709	
-0.388489	
-0.389709	
-0.390442	
-0.390503	
-0.389648	
-0.391724	
-0.389282	
-0.389648	
-0.390015	
-0.389282	
-0.389832	
-0.389404	
-0.388855	
-0.388062	
-0.388672	
-0.389404	
-0.389282	
-0.388733	
-0.390259	
-0.388916	
-0.388672	
-0.389954	
-0.389343	
-0.390686	
-0.391113	
-0.391052	
-0.390747	
-0.391357	
-0.391541	
-0.392395	
-0.391907	
-0.393188	
-0.391296	
-0.391174	
-0.392334	
-0.391052	
-0.392334	
-0.392944	
-0.392151	
-0.392029	
-0.392212	
-0.392517	
-0.392883	
-0.392273	
-0.393066	
-0.39209	
-0.391907	
-0.392273	
-0.392151	
-0.393433	
-0.392029	
-0.392029	
-0.391968	
-0.39209	
-0.392395	
-0.392944	
-0.392273	
-0.392334	
-0.393066	
-0.392517	
-0.393188	
-0.392334	
-0.393677	
-0.393188	
-0.393127	
-0.392578	
-0.391479	
-0.392517	
-0.393555	
-0.392944	
-0.393311	
-0.393982	
-0.391541	
-0.3927	
-0.392456	
-0.392517	
-0.391907	
-0.392334	
-0.391846	
-0.391052	
-0.391846	
-0.3927	
-0.39209	
-0.392029	
-0.392578	
-0.39032	
-0.390869	
-0.390808	
-0.389526	
-0.392151	
-0.391418	
-0.391663	
-0.390747	
-0.391418	
-0.391724	
-0.39209	
-0.391846	
-0.393799	
-0.390991	
-0.391418	
-0.391602	
-0.390991	
-0.391296	
-0.391541	
-0.391357	
-0.391113	
-0.391418	
-0.391907	
-0.392944	
-0.391968	
-0.392273	
-0.391479	
-0.39093	
-0.391418	
-0.39093	
-0.391113	
-0.391296	
-0.390625	
-0.390564	
-0.390625	
-0.391113	
-0.391846	
-0.390686	
-0.390686	
-0.390015	
-0.388733	
-0.389832	
-0.389404	
-0.390076	
-0.389771	
-0.390137	
-0.389954	
-0.389893	
-0.389709	
-0.391479	
-0.389893	
-0.390015	
-0.389954	
-0.388306	
-0.389343	
-0.389282	
-0.388	
-0.389099	
-0.389221	
-0.38855	
-0.388611	
-0.388977	
-0.390076	
-0.388489	
-0.38855	
-0.388977	
-0.38562	
-0.387939	
-0.387756	
-0.388062	
-0.388062	
-0.387695	
-0.387756	
-0.386475	
-0.387634	
-0.388794	
-0.387451	
-0.387207	
-0.388123	
-0.38623	
-0.387878	
-0.387939	
-0.388672	
-0.389648	
-0.389709	
-0.390076	
-0.389954	
-0.390747	
-0.391785	
-0.391479	
-0.391357	
-0.392639	
-0.390686	
-0.391174	
-0.391541	
-0.390991	
-0.39209	
-0.392395	
-0.392883	
-0.392212	
-0.392151	
-0.392639	
-0.39209	
-0.391541	
-0.391846	
-0.390991	
-0.390564	
-0.390503	
-0.389954	
-0.390991	
-0.389954	
-0.390198	
-0.389587	
-0.388916	
-0.389648	
-0.389648	
-0.389282	
-0.390015	
-0.388245	
-0.388184	
-0.388428	
-0.388733	
-0.389282	
-0.38855	
-0.388123	
-0.388672	
-0.387207	
-0.388733	
-0.388733	
-0.387817	
-0.388123	
-0.387329	
-0.386597	
-0.38678	
-0.386597	
-0.387695	
-0.386719	
-0.386963	
-0.386963	
-0.386353	
-0.387146	
-0.388306	
-0.38678	
-0.38739	
-0.386902	
-0.385803	
-0.386353	
-0.385742	
-0.387024	
-0.386902	
-0.387451	
-0.387695	
-0.387817	
-0.388306	
-0.390259	
-0.388489	
-0.389832	
-0.388367	
-0.387207	
-0.388794	
-0.388245	
-0.389404	
-0.389709	
-0.389404	
-0.389343	
-0.388733	
-0.389343	
-0.39032	
-0.389526	
-0.390198	
-0.388306	
-0.387024	
-0.388672	
-0.387207	
-0.388855	
-0.388489	
-0.387939	
-0.388306	
-0.387817	
-0.38678	
-0.388855	
-0.387817	
-0.388245	
-0.387451	
-0.386658	
-0.387573	
-0.386169	
-0.387573	
-0.387878	
-0.387756	
-0.387695	
-0.387817	
-0.38739	
-0.388977	
-0.388245	
-0.389099	
-0.388916	
-0.387024	
-0.387939	
-0.387451	
-0.388123	
-0.388611	
-0.388367	
-0.388733	
-0.38855	
-0.388611	
-0.390015	
-0.389282	
-0.389221	
-0.389282	
-0.387024	
-0.387817	
-0.387817	
-0.387207	
-0.387817	
-0.388672	
-0.388062	
-0.387817	
-0.388062	
-0.388855	
-0.389404	
-0.388489	
-0.388916	
-0.387451	
-0.387024	
-0.38739	
-0.387451	
-0.388367	
-0.389038	
-0.388245	
-0.388611	
-0.388916	
-0.389038	
-0.389832	
-0.389709	
-0.389648	
-0.389038	
-0.388184	
-0.389038	
-0.388794	
-0.388977	
-0.389771	
-0.388794	
-0.388794	
-0.388611	
-0.388062	
-0.39032	
-0.389404	
-0.389038	
-0.389221	
-0.387451	
-0.388489	
-0.388611	
-0.388794	
-0.389282	
-0.388733	
-0.388245	
-0.388062	
-0.387573	
-0.390686	
-0.389648	
-0.389587	
-0.389587	
-0.387329	
-0.389343	
-0.389709	
-0.389465	
-0.390686	
-0.388489	
-0.388428	
-0.387817	
-0.386597	
-0.388489	
-0.387817	
-0.38739	
-0.388306	
-0.38446	
-0.386292	
-0.386475	
-0.38562	
-0.386841	
-0.385803	
-0.386292	
-0.386047	
-0.384766	
-0.386963	
-0.38623	
-0.386292	
-0.386414	
-0.384338	
-0.385376	
-0.385498	
-0.384766	
-0.385986	
-0.385681	
-0.385193	
-0.386108	
-0.385498	
-0.387024	
-0.386475	
-0.386963	
-0.38678	
-0.385498	
-0.385437	
-0.385925	
-0.385315	
-0.385742	
-0.384766	
-0.38562	
-0.385315	
-0.385193	
-0.385742	
-0.386108	
-0.386292	
-0.386108	
-0.385132	
-0.385376	
-0.385559	
-0.38562	
-0.386108	
-0.38623	
-0.386292	
-0.386353	
-0.386414	
-0.387329	
-0.388062	
-0.387024	
-0.387146	
-0.386292	
-0.386292	
-0.387024	
-0.387512	
-0.388	
-0.387878	
-0.387451	
-0.387512	
-0.387268	
-0.387817	
-0.388123	
-0.387146	
-0.387329	
-0.387207	
-0.385803	
-0.38678	
-0.386902	
-0.387146	
-0.386902	
-0.386963	
-0.386658	
-0.386719	
-0.387024	
-0.388062	
-0.386902	
-0.387207	
-0.387329	
-0.385193	
-0.387146	
-0.387085	
-0.386963	
-0.387878	
-0.387146	
-0.387268	
-0.38739	
-0.386597	
-0.388611	
-0.387817	
-0.387878	
-0.388184	
-0.387207	
-0.388184	
-0.387939	
-0.387878	
-0.38916	
-0.388672	
-0.388794	
-0.389099	
-0.388489	
-0.390076	
-0.388977	
-0.388611	
-0.389282	
-0.387268	
-0.388672	
-0.388794	
-0.387878	
-0.389771	
-0.388855	
-0.38916	
-0.38916	
-0.388672	
-0.390259	
-0.389771	
-0.389587	
-0.389832	
-0.388367	
-0.390015	
-0.390137	
-0.389526	
-0.390808	
-0.390564	
-0.390503	
-0.390625	
-0.390076	
-0.391785	
-0.392029	
-0.391174	
-0.391174	
-0.390076	
-0.39032	
-0.391663	
-0.391052	
-0.391785	
-0.391296	
-0.391174	
-0.390503	
-0.389038	
-0.390137	
-0.391052	
-0.388367	
-0.388733	
-0.387573	
-0.386047	
-0.387695	
-0.38739	
-0.387512	
-0.387634	
-0.387695	
-0.38739	
-0.38739	
-0.387817	
-0.389038	
-0.386597	
-0.387024	
-0.387634	
-0.385132	
-0.387756	
-0.388	
-0.387451	
-0.388672	
-0.388733	
-0.388916	
-0.38855	
-0.389587	
-0.391113	
-0.389343	
-0.388977	
-0.389526	
-0.388062	
-0.389587	
-0.389709	
-0.389893	
-0.390747	
-0.39032	
-0.390198	
-0.390137	
-0.390076	
-0.39209	
-0.390747	
-0.390808	
-0.391113	
-0.389648	
-0.391357	
-0.391479	
-0.391663	
-0.392639	
-0.391602	
-0.392029	
-0.391785	
-0.391296	
	
