E:\DOCUMENTS AND SETTINGS\JPOTAS\MEUS DOCUMENTOS\UFRJ\RSCI-BM 12 WK SERIES\070731-RSCI-BM-12\RSCI-BM-12-REMG\070731-RSCI-BM-12-REMG-0016.ACQ
0.025000 msec/sample
1 channel
Analog input
Volts
CH1	
2000	
-0.385681	
-0.385864	
-0.385315	
-0.383545	
-0.385559	
-0.385803	
-0.386414	
-0.386353	
-0.387512	
-0.386169	
-0.386475	
-0.387207	
-0.387329	
-0.387634	
-0.388733	
-0.389099	
-0.389465	
-0.390625	
-0.392029	
-0.391479	
-0.392212	
-0.392517	
-0.391846	
-0.393066	
-0.393494	
-0.393188	
-0.393738	
-0.39325	
-0.392029	
-0.393799	
-0.394104	
-0.394409	
-0.394287	
-0.395203	
-0.39386	
-0.394043	
-0.394226	
-0.394714	
-0.394226	
-0.394226	
-0.394287	
-0.394043	
-0.394226	
-0.394653	
-0.39502	
-0.39447	
-0.396057	
-0.394348	
-0.394836	
-0.395264	
-0.394348	
-0.39502	
-0.39447	
-0.39325	
-0.394775	
-0.394592	
-0.395142	
-0.394104	
-0.394226	
-0.393921	
-0.392273	
-0.393188	
-0.3927	
-0.3927	
-0.392395	
-0.391785	
-0.39093	
-0.391235	
-0.390625	
-0.390808	
-0.390015	
-0.39093	
-0.390015	
-0.39032	
-0.390259	
-0.388489	
-0.389526	
-0.389771	
-0.388611	
-0.389587	
-0.389954	
-0.390137	
-0.390198	
-0.390564	
-0.391724	
-0.390747	
-0.391113	
-0.391479	
-0.391418	
-0.391663	
-0.391296	
-0.391357	
-0.391663	
-0.391785	
-0.392456	
-0.392151	
-0.392639	
-0.391357	
-0.390686	
-0.392029	
-0.390991	
-0.391846	
-0.391479	
-0.390747	
-0.390686	
-0.391846	
-0.390869	
-0.392273	
-0.391846	
-0.392334	
-0.391174	
-0.391235	
-0.392517	
-0.3927	
-0.391418	
-0.391479	
-0.391785	
-0.392151	
-0.392029	
-0.392273	
-0.392212	
-0.393005	
-0.392883	
-0.392578	
-0.393005	
-0.392212	
-0.39325	
-0.393005	
-0.392883	
-0.392639	
-0.392944	
-0.392456	
-0.392944	
-0.392151	
-0.393494	
-0.391846	
-0.391663	
-0.391052	
-0.390625	
-0.390198	
-0.389526	
-0.389343	
-0.387878	
-0.38916	
-0.389099	
-0.388855	
-0.38916	
-0.388306	
-0.388245	
-0.388245	
-0.387207	
-0.389038	
-0.388672	
-0.388062	
-0.388733	
-0.388977	
-0.389404	
-0.39032	
-0.389954	
-0.390991	
-0.390442	
-0.389832	
-0.391052	
-0.390259	
-0.391479	
-0.392395	
-0.392151	
-0.392517	
-0.393921	
-0.39447	
-0.395386	
-0.395325	
-0.395691	
-0.395325	
-0.394897	
-0.39502	
-0.395935	
-0.394714	
-0.394653	
-0.394409	
-0.39447	
-0.39502	
-0.39502	
-0.394897	
-0.39624	
-0.394775	
-0.393738	
-0.394775	
-0.392639	
-0.394714	
-0.393799	
-0.393433	
-0.393433	
-0.393738	
-0.394104	
-0.394287	
-0.393921	
-0.393433	
-0.385498	
-0.38385	
-0.385376	
-0.385132	
-0.384338	
-0.384827	
-0.390564	
-0.39093	
-0.391357	
-0.391052	
-0.39093	
-0.39032	
-0.389709	
-0.389282	
-0.389709	
-0.388062	
-0.389099	
-0.388184	
-0.387695	
-0.387512	
-0.387634	
-0.387451	
-0.388123	
-0.38739	
-0.388855	
-0.38739	
-0.386902	
-0.388184	
-0.387085	
-0.388367	
-0.388977	
-0.38855	
-0.388367	
-0.389404	
-0.389893	
-0.390564	
-0.389648	
-0.390747	
-0.389587	
-0.390747	
-0.390869	
-0.390747	
-0.390808	
-0.390259	
-0.390442	
-0.390747	
-0.391174	
-0.392212	
-0.391479	
-0.392029	
-0.391479	
-0.391113	
-0.392395	
-0.391479	
-0.391724	
-0.391663	
-0.390625	
-0.391846	
-0.392517	
-0.392578	
-0.392944	
-0.392639	
-0.394531	
-0.392639	
-0.393066	
-0.3927	
-0.391907	
-0.39209	
-0.392212	
-0.391968	
-0.391846	
-0.391907	
-0.392456	
-0.392578	
-0.39209	
-0.392151	
-0.391541	
-0.392517	
-0.390869	
-0.390991	
-0.391418	
-0.390686	
-0.390503	
-0.391296	
-0.391235	
-0.392273	
-0.391663	
-0.392883	
-0.39209	
-0.391846	
-0.393677	
-0.392517	
-0.394348	
-0.394958	
-0.395996	
-0.397095	
-0.397278	
-0.398926	
-0.400391	
-0.4021	
-0.403137	
-0.403564	
-0.406189	
-0.406555	
-0.408691	
-0.410217	
-0.411804	
-0.412537	
-0.415344	
-0.416931	
-0.418823	
-0.419861	
-0.42218	
-0.422241	
-0.424377	
-0.4245	
-0.425659	
-0.426208	
-0.426636	
-0.427429	
-0.42926	
-0.430664	
-0.432129	
-0.434265	
-0.435181	
-0.435974	
-0.43866	
-0.438904	
-0.442078	
-0.444336	
-0.44696	
-0.448914	
-0.452209	
-0.454468	
-0.457214	
-0.458435	
-0.460999	
-0.461121	
-0.46283	
-0.463074	
-0.463989	
-0.465271	
-0.465454	
-0.466736	
-0.467285	
-0.467651	
-0.468506	
-0.467529	
-0.468506	
-0.46698	
-0.465698	
-0.466797	
-0.464844	
-0.465881	
-0.46582	
-0.465942	
-0.465881	
-0.466492	
-0.466492	
-0.46582	
-0.466431	
-0.466064	
-0.463989	
-0.464661	
-0.462219	
-0.462463	
-0.461365	
-0.460327	
-0.459473	
-0.459351	
-0.458679	
-0.458313	
-0.457214	
-0.457764	
-0.455078	
-0.454468	
-0.452759	
-0.451355	
-0.449951	
-0.447876	
-0.445862	
-0.444763	
-0.442505	
-0.441284	
-0.438477	
-0.436646	
-0.433472	
-0.430237	
-0.429688	
-0.425903	
-0.424194	
-0.422119	
-0.419067	
-0.416382	
-0.415894	
-0.414429	
-0.41333	
-0.41156	
-0.411499	
-0.408203	
-0.406616	
-0.40509	
-0.404114	
-0.402222	
-0.400269	
-0.398987	
-0.397827	
-0.396423	
-0.395203	
-0.393372	
-0.392456	
-0.390808	
-0.388672	
-0.388611	
-0.386658	
-0.385742	
-0.384521	
-0.38269	
-0.381653	
-0.380371	
-0.379333	
-0.37793	
-0.376343	
-0.376587	
-0.37384	
-0.373108	
-0.373291	
-0.37207	
-0.372192	
-0.371704	
-0.371094	
-0.371155	
-0.370544	
-0.370544	
-0.36908	
-0.368408	
-0.367615	
-0.36676	
-0.367371	
-0.364929	
-0.364136	
-0.363159	
-0.361694	
-0.359863	
-0.359558	
-0.358948	
-0.357727	
-0.357605	
-0.356689	
-0.355042	
-0.355835	
-0.355896	
-0.355896	
-0.355957	
-0.355408	
-0.355835	
-0.357422	
-0.357788	
-0.358337	
-0.359131	
-0.360474	
-0.35968	
-0.361633	
-0.36145	
-0.362854	
-0.363525	
-0.363647	
-0.364929	
-0.365356	
-0.366821	
-0.367737	
-0.368652	
-0.370483	
-0.369995	
-0.371277	
-0.371033	
-0.371399	
-0.372314	
-0.372009	
-0.373047	
-0.374756	
-0.375427	
-0.376526	
-0.376709	
-0.378601	
-0.376648	
-0.37738	
-0.377014	
-0.376953	
-0.376709	
-0.375732	
-0.376465	
-0.37738	
-0.377197	
-0.377441	
-0.377136	
-0.378174	
-0.376343	
-0.376465	
-0.376404	
-0.375305	
-0.374573	
-0.373535	
-0.37323	
-0.374023	
-0.373596	
-0.374512	
-0.374146	
-0.374817	
-0.373901	
-0.374817	
-0.375061	
-0.374146	
-0.375244	
-0.374756	
-0.375549	
-0.375854	
-0.376221	
-0.377014	
-0.376526	
-0.377808	
-0.376831	
-0.37616	
-0.377075	
-0.376038	
-0.377625	
-0.377441	
-0.377747	
-0.378418	
-0.378418	
-0.379272	
-0.379028	
-0.38031	
-0.379333	
-0.37854	
-0.379822	
-0.380676	
-0.380615	
-0.380859	
-0.381531	
-0.382813	
-0.382629	
-0.383606	
-0.384644	
-0.384705	
-0.385193	
-0.384888	
-0.385742	
-0.385498	
-0.385315	
-0.385864	
-0.386292	
-0.385986	
-0.386963	
-0.387878	
-0.389038	
-0.388306	
-0.389343	
-0.387939	
-0.388794	
-0.388123	
-0.386902	
-0.388306	
-0.387695	
-0.387939	
-0.388184	
-0.387756	
-0.388	
-0.388	
-0.387756	
-0.388245	
-0.387146	
-0.387756	
-0.387085	
-0.387207	
-0.386658	
-0.386841	
-0.385803	
-0.386963	
-0.386719	
-0.387329	
-0.38678	
-0.387939	
-0.385986	
-0.387024	
-0.385803	
-0.38623	
-0.385559	
-0.384705	
-0.385742	
-0.38562	
-0.385498	
-0.386414	
-0.385803	
-0.38678	
-0.385254	
-0.384949	
-0.384888	
-0.384766	
-0.385986	
-0.38562	
-0.385681	
-0.384644	
-0.385437	
-0.385925	
-0.386292	
-0.386292	
-0.386108	
-0.385986	
-0.38678	
-0.385254	
-0.386597	
-0.385376	
-0.385498	
-0.38501	
-0.385803	
-0.386047	
-0.386475	
-0.386414	
-0.387451	
-0.385925	
-0.385376	
-0.386108	
-0.386597	
-0.38678	
-0.386475	
-0.386841	
-0.386841	
-0.387268	
-0.387512	
-0.387634	
-0.387878	
-0.387268	
-0.387329	
-0.387756	
-0.385864	
-0.388	
-0.387573	
-0.386902	
-0.386658	
-0.386841	
-0.386841	
-0.387207	
-0.387268	
-0.387939	
-0.38623	
-0.385498	
-0.385803	
-0.386108	
-0.386047	
-0.384644	
-0.385437	
-0.38501	
-0.38501	
-0.385498	
-0.386047	
-0.385681	
-0.384644	
-0.384949	
-0.384888	
-0.383911	
-0.384888	
-0.38385	
-0.383423	
-0.383545	
-0.383484	
-0.383545	
-0.383972	
-0.383484	
-0.384644	
-0.383362	
-0.38324	
-0.382996	
-0.383362	
-0.383423	
-0.38385	
-0.383545	
-0.38324	
-0.384399	
-0.384766	
-0.384766	
-0.386475	
-0.386353	
-0.386536	
-0.387512	
-0.386536	
-0.389038	
-0.388489	
-0.389648	
-0.389587	
-0.390381	
-0.390564	
-0.391663	
-0.391602	
-0.3927	
-0.391541	
-0.391968	
-0.391418	
-0.392029	
-0.391663	
-0.391907	
-0.392273	
-0.391418	
-0.392517	
-0.39325	
-0.393188	
-0.393616	
-0.393494	
-0.392639	
-0.3927	
-0.391785	
-0.392578	
-0.392334	
-0.3927	
-0.392395	
-0.393555	
-0.393188	
-0.393738	
-0.393494	
-0.39447	
-0.393066	
-0.393127	
-0.392395	
-0.39325	
-0.392883	
-0.392456	
-0.392395	
-0.392151	
-0.392761	
-0.392761	
-0.391846	
-0.392334	
-0.391785	
-0.390564	
-0.390564	
-0.390015	
-0.389404	
-0.389038	
-0.38855	
-0.387817	
-0.388428	
-0.38916	
-0.390015	
-0.388855	
-0.389526	
-0.389038	
-0.387512	
-0.387268	
-0.388	
-0.387451	
-0.388184	
-0.388062	
-0.388672	
-0.389587	
-0.39032	
-0.390686	
-0.390869	
-0.390625	
-0.389954	
-0.389709	
-0.389832	
-0.39032	
-0.390503	
-0.390442	
-0.390015	
-0.390442	
-0.390503	
-0.391052	
-0.391052	
-0.391296	
-0.391174	
-0.389099	
-0.389587	
-0.389771	
-0.390137	
-0.390991	
-0.390503	
-0.389282	
-0.390503	
-0.391113	
-0.391541	
-0.391724	
-0.392029	
-0.390808	
-0.390808	
-0.391479	
-0.39093	
-0.391296	
-0.391541	
-0.391785	
-0.391907	
-0.392212	
-0.392944	
-0.393433	
-0.393555	
-0.39325	
-0.391663	
-0.391907	
-0.392395	
-0.392212	
-0.392029	
-0.391663	
-0.390381	
-0.391602	
-0.391602	
-0.392334	
-0.391113	
-0.391418	
-0.389587	
-0.389038	
-0.388916	
-0.387634	
-0.388489	
-0.388184	
-0.387817	
-0.387878	
-0.387939	
-0.388245	
-0.388428	
-0.388367	
-0.388855	
-0.388062	
-0.387695	
-0.389221	
-0.38916	
-0.388916	
-0.389221	
-0.388428	
-0.389709	
-0.389893	
-0.391541	
-0.391296	
-0.392517	
-0.391357	
-0.39209	
-0.392639	
-0.392578	
-0.394104	
-0.394165	
-0.393799	
-0.39447	
-0.395081	
-0.394714	
-0.395386	
-0.395142	
-0.394775	
-0.394226	
-0.393616	
-0.393921	
-0.394226	
-0.394348	
-0.393921	
-0.393433	
-0.394287	
-0.394287	
-0.39502	
-0.395813	
-0.395752	
-0.39386	
-0.392578	
-0.393433	
-0.392578	
-0.392944	
-0.393066	
-0.392395	
-0.3927	
-0.392517	
-0.393433	
-0.3927	
-0.393005	
-0.392212	
-0.391296	
-0.390747	
-0.390564	
-0.389954	
-0.389404	
-0.389526	
-0.388916	
-0.389221	
-0.38855	
-0.389282	
-0.389587	
-0.389709	
-0.38739	
-0.386353	
-0.386658	
-0.387085	
-0.386108	
-0.386597	
-0.386047	
-0.386536	
-0.386536	
-0.387207	
-0.387634	
-0.388855	
-0.387512	
-0.387329	
-0.387939	
-0.387817	
-0.388672	
-0.388916	
-0.388733	
-0.388794	
-0.388672	
-0.38916	
-0.389832	
-0.390381	
-0.390808	
-0.389587	
-0.389404	
-0.389832	
-0.389038	
-0.390137	
-0.390503	
-0.389404	
-0.390869	
-0.390625	
-0.391174	
-0.391418	
-0.392822	
-0.391663	
-0.390808	
-0.391418	
-0.389038	
-0.391602	
-0.391541	
-0.390869	
-0.391724	
-0.392212	
-0.392151	
-0.392395	
-0.392334	
-0.393066	
-0.391907	
-0.39093	
-0.392273	
-0.390564	
-0.39209	
-0.391296	
-0.391724	
-0.391602	
-0.391296	
-0.391663	
-0.391479	
-0.392212	
-0.391357	
-0.390686	
-0.391479	
-0.388611	
-0.390991	
-0.390991	
-0.391052	
-0.390747	
-0.390808	
-0.390808	
-0.391418	
-0.390808	
-0.392273	
-0.389832	
-0.389282	
-0.390686	
-0.389282	
-0.390137	
-0.390259	
-0.390076	
-0.390503	
-0.390137	
-0.390625	
-0.391663	
-0.391479	
-0.390686	
-0.390503	
-0.390991	
-0.389465	
-0.390686	
-0.390747	
-0.390015	
-0.390686	
-0.391724	
-0.391663	
-0.391907	
-0.391907	
-0.393127	
-0.391418	
-0.391418	
-0.392822	
-0.391235	
-0.391968	
-0.391968	
-0.391602	
-0.3927	
-0.392517	
-0.392639	
-0.394043	
-0.394043	
-0.394287	
-0.393799	
-0.393188	
-0.392273	
-0.394043	
-0.394226	
-0.393738	
-0.39447	
-0.394287	
-0.394409	
-0.394409	
-0.395813	
-0.396484	
-0.394043	
-0.394409	
-0.394043	
-0.392273	
-0.393311	
-0.392761	
-0.392212	
-0.391907	
-0.391296	
-0.390747	
-0.390503	
-0.390503	
-0.389587	
-0.388489	
-0.38739	
-0.386963	
-0.387329	
-0.386475	
-0.386597	
-0.387024	
-0.386414	
-0.386414	
-0.386902	
-0.387878	
-0.388367	
-0.386169	
-0.386353	
-0.385986	
-0.383179	
-0.385681	
-0.385864	
-0.384766	
-0.38562	
-0.385498	
-0.386108	
-0.38623	
-0.386536	
-0.386963	
-0.385986	
-0.385437	
-0.385498	
-0.385803	
-0.385498	
-0.385681	
-0.386169	
-0.386108	
-0.386169	
-0.386902	
-0.387878	
-0.388977	
-0.387146	
-0.386292	
-0.385681	
-0.385193	
-0.387268	
-0.387451	
-0.386841	
-0.387939	
-0.388123	
-0.388611	
-0.389404	
-0.389954	
-0.391235	
-0.39032	
-0.390503	
-0.39032	
-0.390747	
-0.391235	
-0.390808	
-0.390564	
-0.391174	
-0.391296	
-0.390625	
-0.391418	
-0.392212	
-0.39093	
-0.390747	
-0.390015	
-0.388489	
-0.389587	
-0.388733	
-0.387817	
-0.389221	
-0.388977	
-0.388855	
-0.388855	
-0.389465	
-0.390137	
-0.388489	
-0.388184	
-0.388916	
-0.38855	
-0.388306	
-0.388489	
-0.388611	
-0.388611	
-0.388672	
-0.388977	
-0.390015	
-0.390503	
-0.38916	
-0.388916	
-0.388367	
-0.387146	
-0.388977	
-0.388855	
-0.388367	
-0.388306	
-0.388367	
-0.388672	
-0.388672	
-0.388855	
-0.389771	
-0.388184	
-0.387573	
-0.387878	
-0.386108	
-0.38739	
-0.387268	
-0.387207	
-0.387695	
-0.388	
-0.387939	
-0.388428	
-0.389404	
-0.38916	
-0.387817	
-0.387634	
-0.38739	
-0.388611	
-0.389038	
-0.389221	
-0.390137	
-0.390076	
-0.390381	
-0.390991	
-0.391846	
-0.392212	
-0.391907	
-0.392151	
-0.392151	
-0.39093	
-0.391907	
-0.391724	
-0.390686	
-0.391663	
-0.391357	
-0.391418	
-0.391907	
-0.391724	
-0.392395	
-0.390381	
-0.389282	
-0.388733	
-0.389648	
-0.389771	
-0.388916	
-0.388733	
-0.388489	
-0.387756	
-0.387268	
-0.387634	
-0.386841	
-0.385559	
-0.385132	
-0.385437	
-0.384033	
-0.384827	
-0.384949	
-0.383972	
-0.385071	
-0.385498	
-0.385742	
-0.385986	
-0.385864	
-0.386658	
-0.385254	
-0.384705	
-0.385071	
-0.383972	
-0.385437	
-0.385437	
-0.384766	
-0.385925	
-0.385925	
-0.38623	
-0.387146	
-0.387634	
-0.387024	
-0.38623	
-0.386353	
-0.385986	
-0.386902	
-0.387024	
-0.386963	
-0.387268	
-0.38739	
-0.387817	
-0.389038	
-0.390015	
-0.390869	
-0.389832	
-0.389893	
-0.390137	
-0.389282	
-0.391052	
-0.391113	
-0.390198	
-0.391907	
-0.392273	
-0.392456	
-0.393616	
-0.394348	
-0.392761	
-0.393188	
-0.391785	
-0.39325	
-0.392944	
-0.393005	
-0.3927	
-0.392822	
-0.392822	
-0.393127	
-0.392212	
-0.392334	
-0.392395	
-0.390991	
-0.390503	
-0.390015	
-0.389832	
-0.390503	
-0.390015	
-0.389587	
-0.389893	
-0.389282	
-0.389465	
-0.390015	
-0.390442	
-0.389282	
-0.38855	
-0.387756	
-0.389404	
-0.388306	
-0.388062	
-0.388123	
-0.387451	
-0.388489	
-0.388367	
-0.388672	
-0.389282	
-0.389038	
-0.387817	
-0.387573	
-0.387512	
-0.385681	
-0.387878	
-0.387573	
-0.387939	
-0.387878	
-0.388184	
-0.387878	
-0.388733	
-0.389526	
-0.389221	
-0.388123	
-0.387573	
-0.388123	
-0.388306	
-0.38855	
-0.388367	
-0.387512	
-0.38855	
-0.388428	
-0.388672	
-0.389404	
-0.389526	
-0.388855	
-0.388611	
-0.388184	
-0.387756	
-0.388367	
-0.388916	
-0.388855	
-0.389038	
-0.389343	
-0.389404	
-0.389893	
-0.39032	
-0.389954	
-0.389648	
-0.388672	
-0.387939	
-0.387756	
-0.388977	
-0.389038	
-0.388062	
-0.389038	
-0.388794	
-0.388794	
-0.389771	
-0.390076	
-0.389404	
-0.388489	
-0.386475	
-0.388672	
-0.388367	
-0.388245	
-0.38739	
-0.387573	
-0.387756	
-0.387756	
-0.387634	
-0.388306	
-0.387878	
-0.386719	
-0.38678	
-0.386292	
-0.38562	
-0.386475	
-0.386597	
-0.385681	
-0.38562	
-0.385742	
-0.385559	
-0.38623	
-0.386108	
-0.385742	
-0.384888	
-0.384033	
-0.384583	
-0.385132	
-0.384827	
-0.385376	
-0.385376	
-0.385315	
-0.385254	
-0.38623	
-0.386963	
-0.387878	
-0.386475	
-0.386902	
-0.387085	
-0.388062	
-0.38916	
-0.389648	
-0.390747	
-0.390808	
-0.390991	
-0.391541	
-0.392944	
-0.393677	
-0.393066	
-0.392395	
-0.391418	
-0.393433	
-0.393372	
-0.393188	
-0.393127	
-0.392395	
-0.393555	
-0.393738	
-0.394348	
-0.394897	
-0.394958	
-0.393982	
-0.39386	
-0.393433	
-0.392578	
-0.393921	
-0.393738	
-0.394165	
-0.394165	
-0.394165	
-0.394409	
-0.394653	
-0.395508	
-0.39563	
-0.393982	
-0.393616	
-0.393372	
-0.394165	
-0.394287	
-0.39386	
-0.39325	
-0.394043	
-0.393677	
-0.393738	
-0.394409	
-0.394165	
-0.392639	
-0.39209	
-0.390564	
-0.391052	
-0.391235	
-0.390808	
-0.39032	
-0.388977	
-0.389343	
-0.389343	
-0.389465	
-0.391174	
-0.391296	
-0.389648	
-0.389709	
-0.388	
-0.389709	
-0.38916	
-0.389404	
-0.388977	
-0.389526	
-0.389893	
-0.390198	
-0.391541	
-0.391479	
-0.391052	
-0.390991	
-0.389709	
-0.390442	
-0.39093	
-0.391235	
-0.391113	
-0.390259	
-0.391357	
-0.391541	
-0.391602	
-0.393433	
-0.392456	
-0.391357	
-0.390991	
-0.388672	
-0.391174	
-0.39093	
-0.391296	
-0.390869	
-0.391296	
-0.390686	
-0.390564	
-0.391235	
-0.392273	
-0.391541	
-0.391174	
-0.391052	
-0.390686	
-0.391663	
-0.391602	
-0.391479	
-0.391602	
-0.391663	
-0.39209	
-0.392334	
-0.393738	
-0.393555	
-0.392456	
-0.392029	
-0.390625	
-0.392761	
-0.3927	
-0.392273	
-0.392334	
-0.391357	
-0.391479	
-0.391541	
-0.391602	
-0.392822	
-0.391602	
-0.389893	
-0.388977	
-0.38916	
-0.388306	
-0.388672	
-0.388733	
-0.387878	
-0.388	
-0.388062	
-0.388245	
-0.389343	
-0.388611	
-0.388367	
-0.387512	
-0.386719	
-0.388489	
-0.388489	
-0.388916	
-0.388916	
-0.388	
-0.389771	
-0.389404	
-0.390198	
-0.39093	
-0.391724	
-0.390991	
-0.390137	
-0.391479	
-0.391602	
-0.392944	
-0.393433	
-0.394104	
-0.394287	
-0.394287	
-0.39502	
-0.395447	
-0.395325	
-0.395264	
-0.394653	
-0.393066	
-0.39386	
-0.394226	
-0.394531	
-0.394104	
-0.392883	
-0.394287	
-0.394531	
-0.394958	
-0.395752	
-0.394958	
-0.39386	
-0.393921	
-0.392395	
-0.394165	
-0.393616	
-0.393555	
-0.3927	
-0.392822	
-0.393127	
-0.392883	
-0.393799	
-0.393311	
-0.393433	
-0.392395	
-0.391052	
-0.391479	
-0.389771	
-0.390381	
-0.390015	
-0.389526	
-0.389221	
-0.389404	
-0.388306	
-0.390259	
-0.389709	
-0.38855	
-0.387573	
-0.386536	
-0.386902	
-0.387268	
-0.386841	
-0.386597	
-0.386597	
-0.386475	
-0.386536	
-0.386963	
-0.387939	
-0.387085	
-0.387024	
-0.386902	
-0.387207	
-0.387817	
-0.388794	
-0.388489	
-0.387817	
-0.389038	
-0.388733	
-0.388489	
-0.390564	
-0.390564	
-0.390869	
-0.389404	
-0.388428	
-0.390381	
-0.390076	
-0.389954	
-0.389893	
-0.390442	
-0.390808	
-0.391113	
-0.391235	
-0.392334	
-0.391968	
-0.390991	
-0.390869	
-0.391174	
-0.390869	
-0.391418	
-0.391541	
-0.39032	
-0.391907	
-0.392395	
-0.392578	
-0.393005	
-0.392883	
-0.392822	
-0.391846	
-0.390503	
-0.393005	
-0.390869	
-0.392273	
-0.391785	
-0.391663	
-0.391907	
-0.391479	
-0.392212	
-0.392822	
-0.391724	
-0.392029	
-0.390442	
-0.39093	
-0.391113	
-0.391357	
-0.391418	
-0.390259	
-0.39093	
-0.390564	
-0.391052	
-0.39209	
-0.391113	
-0.390625	
-0.390198	
-0.388672	
-0.390442	
-0.390015	
-0.390442	
-0.390564	
-0.39032	
-0.390259	
-0.390747	
-0.39093	
-0.392639	
-0.390137	
-0.391602	
-0.390259	
-0.389771	
-0.390564	
-0.390686	
-0.39093	
-0.39093	
-0.391418	
-0.391357	
-0.392151	
-0.392029	
-0.392578	
-0.392334	
-0.391724	
-0.390869	
-0.391724	
-0.39209	
-0.391907	
-0.391113	
-0.392395	
-0.392456	
-0.392822	
-0.393066	
-0.39502	
-0.393555	
-0.394287	
-0.393799	
-0.394531	
-0.393921	
-0.394043	
-0.394104	
-0.394348	
-0.394836	
-0.394714	
-0.394653	
-0.395325	
-0.396057	
-0.394897	
-0.39502	
-0.393677	
-0.393799	
-0.394348	
-0.394409	
-0.393738	
-0.393616	
-0.393005	
-0.392395	
-0.391541	
-0.392212	
-0.390686	
-0.390808	
-0.388855	
-0.388977	
-0.388489	
-0.38739	
-0.387817	
-0.386963	
-0.387207	
-0.387268	
-0.387024	
-0.387939	
-0.386963	
-0.387207	
-0.386902	
-0.38562	
-0.385681	
-0.386108	
-0.386108	
-0.386536	
-0.386597	
-0.386658	
-0.38623	
-0.387024	
-0.387817	
-0.387085	
-0.387085	
-0.385864	
-0.38562	
-0.384827	
-0.385681	
-0.386108	
-0.384827	
-0.386047	
-0.386353	
-0.386353	
-0.387268	
-0.387451	
-0.387268	
-0.387207	
-0.386475	
-0.386353	
-0.386597	
-0.387207	
-0.387146	
-0.387939	
-0.388	
-0.387939	
-0.388611	
-0.39032	
-0.389282	
-0.389465	
-0.389404	
-0.390076	
-0.389526	
-0.390747	
-0.390564	
-0.390808	
-0.390686	
-0.390808	
-0.39093	
-0.391113	
-0.391846	
-0.391785	
-0.390686	
-0.389648	
-0.390015	
-0.387939	
-0.389648	
-0.389404	
-0.38916	
-0.388916	
-0.388672	
-0.388733	
-0.389587	
-0.388916	
-0.389282	
-0.388367	
-0.387146	
-0.387512	
-0.388306	
-0.388306	
-0.386658	
-0.387939	
-0.388123	
-0.388428	
-0.388733	
-0.389343	
-0.389832	
-0.38855	
-0.388489	
-0.388672	
-0.386658	
-0.388611	
-0.387878	
-0.388611	
-0.388	
-0.388245	
-0.38855	
-0.388916	
-0.388184	
-0.389038	
-0.387146	
-0.386658	
-0.38739	
-0.387573	
-0.387451	
-0.385986	
-0.386902	
-0.386902	
-0.387634	
-0.387756	
-0.388611	
-0.387756	
-0.388428	
-0.387512	
-0.388489	
-0.388062	
-0.388489	
-0.388611	
-0.389038	
-0.389221	
-0.389587	
-0.389832	
-0.391541	
-0.390808	
-0.39209	
-0.390869	
-0.390869	
-0.391479	
-0.39093	
-0.391602	
-0.390808	
-0.391418	
-0.391724	
-0.391357	
-0.391479	
-0.392334	
-0.391235	
-0.391602	
-0.390259	
-0.390259	
-0.389771	
-0.389771	
-0.389526	
-0.389404	
-0.389038	
-0.388977	
-0.388306	
-0.38855	
-0.387512	
-0.387634	
-0.385803	
-0.384277	
-0.385315	
-0.383545	
-0.384888	
-0.38446	
-0.384827	
-0.384827	
-0.384949	
-0.385376	
-0.385681	
-0.385986	
-0.385681	
-0.385071	
-0.385376	
-0.384644	
-0.384216	
-0.385132	
-0.38501	
-0.385742	
-0.385437	
-0.386353	
-0.385864	
-0.386536	
-0.386902	
-0.38678	
-0.385132	
-0.386475	
-0.385376	
-0.386353	
-0.386353	
-0.387024	
-0.386475	
-0.387146	
-0.387939	
-0.389221	
-0.38916	
-0.390381	
-0.389893	
-0.390015	
-0.390198	
-0.390198	
-0.39093	
-0.389771	
-0.391052	
-0.391541	
-0.391724	
-0.392456	
-0.392578	
-0.392883	
-0.393494	
-0.392578	
-0.392822	
-0.392029	
-0.392639	
-0.392822	
-0.393066	
-0.392944	
-0.392822	
-0.392761	
-0.393738	
-0.391724	
-0.392334	
-0.391602	
-0.391235	
-0.390686	
-0.390869	
-0.390808	
-0.389221	
-0.390076	
-0.389832	
-0.389465	
-0.390076	
-0.391418	
-0.390137	
-0.390625	
-0.388916	
-0.389038	
-0.388672	
-0.387329	
-0.388611	
-0.388367	
-0.388794	
-0.388916	
-0.388733	
-0.389771	
-0.389099	
-0.388977	
-0.388489	
-0.386597	
-0.388	
-0.387268	
-0.388123	
-0.387573	
-0.387939	
-0.38855	
-0.388489	
-0.388977	
-0.389893	
-0.389038	
-0.389526	
-0.388	
-0.388916	
-0.388489	
-0.387573	
-0.388611	
-0.388306	
-0.388977	
-0.388977	
-0.388367	
-0.389099	
-0.388611	
-0.389343	
-0.389648	
-0.387512	
-0.389771	
-0.388672	
-0.388916	
-0.389099	
-0.389038	
-0.389343	
-0.389404	
-0.389771	
-0.390564	
-0.389709	
-0.390503	
-0.389465	
-0.388794	
-0.389282	
-0.387878	
-0.389893	
-0.388794	
-0.389404	
-0.389221	
-0.388916	
-0.389526	
-0.388916	
-0.388794	
-0.389404	
-0.387268	
-0.389282	
-0.387878	
-0.387268	
-0.388	
-0.387085	
-0.387756	
-0.388367	
-0.388184	
-0.38916	
-0.387573	
-0.387634	
-0.387512	
-0.386902	
-0.38739	
-0.38562	
-0.386902	
-0.386475	
-0.386292	
-0.385986	
-0.385864	
-0.386047	
-0.386047	
-0.385071	
-0.386292	
-0.384766	
	
