E:\DOCUMENTS AND SETTINGS\JPOTAS\MEUS DOCUMENTOS\UFRJ\RSCI-BM 12 WK SERIES\070731-RSCI-BM-12\RSCI-BM-12-REMG\070731-RSCI-BM-12-REMG-0015.ACQ
0.025000 msec/sample
1 channel
Analog input
Volts
CH1	
2000	
-0.388977	
-0.388367	
-0.388367	
-0.388	
-0.387756	
-0.387085	
-0.387695	
-0.387634	
-0.389282	
-0.388733	
-0.388855	
-0.388489	
-0.388611	
-0.389404	
-0.390259	
-0.390259	
-0.39032	
-0.388733	
-0.388062	
-0.389343	
-0.389832	
-0.389343	
-0.389343	
-0.388367	
-0.389587	
-0.389709	
-0.389832	
-0.390808	
-0.391113	
-0.389954	
-0.389526	
-0.389771	
-0.390259	
-0.390442	
-0.390137	
-0.389893	
-0.389893	
-0.389099	
-0.389587	
-0.389771	
-0.389954	
-0.390564	
-0.389954	
-0.38916	
-0.388916	
-0.389771	
-0.390625	
-0.390198	
-0.389954	
-0.390137	
-0.389404	
-0.390015	
-0.390808	
-0.39093	
-0.390991	
-0.390137	
-0.388916	
-0.391052	
-0.390686	
-0.390625	
-0.390259	
-0.388977	
-0.389221	
-0.389526	
-0.390137	
-0.39093	
-0.389954	
-0.389709	
-0.389526	
-0.389099	
-0.390381	
-0.389893	
-0.389221	
-0.388977	
-0.38916	
-0.388	
-0.389038	
-0.389221	
-0.39032	
-0.390198	
-0.389282	
-0.388428	
-0.389343	
-0.388855	
-0.390503	
-0.389465	
-0.389343	
-0.389465	
-0.389771	
-0.389282	
-0.390137	
-0.389771	
-0.39032	
-0.389221	
-0.388916	
-0.390564	
-0.390076	
-0.389709	
-0.389954	
-0.388977	
-0.388977	
-0.389465	
-0.389771	
-0.390198	
-0.38916	
-0.389282	
-0.388672	
-0.389038	
-0.389099	
-0.389709	
-0.388977	
-0.388611	
-0.387878	
-0.388123	
-0.388	
-0.388855	
-0.388672	
-0.388489	
-0.387939	
-0.387146	
-0.388489	
-0.388123	
-0.388245	
-0.388428	
-0.387573	
-0.388306	
-0.388062	
-0.388062	
-0.388855	
-0.387939	
-0.388123	
-0.387329	
-0.386902	
-0.388794	
-0.386902	
-0.387512	
-0.387573	
-0.387146	
-0.386658	
-0.387329	
-0.387512	
-0.387329	
-0.386841	
-0.386719	
-0.385681	
-0.386719	
-0.386292	
-0.38678	
-0.386047	
-0.385681	
-0.385742	
-0.384766	
-0.385803	
-0.386597	
-0.385803	
-0.385559	
-0.385437	
-0.384277	
-0.386841	
-0.385315	
-0.387085	
-0.387085	
-0.387146	
-0.387756	
-0.388367	
-0.388855	
-0.38916	
-0.388733	
-0.389099	
-0.387451	
-0.387695	
-0.388062	
-0.386597	
-0.386841	
-0.386902	
-0.386536	
-0.385925	
-0.386963	
-0.388123	
-0.388123	
-0.388184	
-0.387634	
-0.386719	
-0.38855	
-0.38739	
-0.388184	
-0.387512	
-0.386963	
-0.387146	
-0.386658	
-0.387756	
-0.388123	
-0.387817	
-0.388245	
-0.387268	
-0.38678	
-0.387939	
-0.385681	
-0.381775	
-0.387024	
-0.387085	
-0.38678	
-0.386902	
-0.387817	
-0.387939	
-0.386841	
-0.386902	
-0.385376	
-0.386475	
-0.386536	
-0.386536	
-0.386292	
-0.385437	
-0.386108	
-0.384705	
-0.386108	
-0.387207	
-0.386169	
-0.38623	
-0.385315	
-0.385437	
-0.386658	
-0.385254	
-0.387573	
-0.386108	
-0.385803	
-0.385986	
-0.38623	
-0.386536	
-0.387085	
-0.386719	
-0.387329	
-0.38678	
-0.386047	
-0.38678	
-0.386902	
-0.386536	
-0.38623	
-0.387085	
-0.387024	
-0.387085	
-0.387634	
-0.387634	
-0.38678	
-0.385559	
-0.384888	
-0.386841	
-0.385559	
-0.386902	
-0.385986	
-0.386047	
-0.386108	
-0.385681	
-0.386658	
-0.387085	
-0.386414	
-0.387024	
-0.385925	
-0.386047	
-0.386292	
-0.386414	
-0.386963	
-0.385925	
-0.385986	
-0.386292	
-0.386841	
-0.387573	
-0.387085	
-0.38678	
-0.386414	
-0.385254	
-0.387451	
-0.386353	
-0.386963	
-0.387268	
-0.386353	
-0.386841	
-0.386414	
-0.387573	
-0.388184	
-0.386902	
-0.387634	
-0.386597	
-0.385742	
-0.387573	
-0.386108	
-0.388184	
-0.387878	
-0.38855	
-0.389221	
-0.388977	
-0.391968	
-0.392822	
-0.393433	
-0.394531	
-0.39624	
-0.397766	
-0.398499	
-0.40033	
-0.402527	
-0.402405	
-0.405151	
-0.406616	
-0.408875	
-0.41095	
-0.411865	
-0.413696	
-0.414246	
-0.417358	
-0.417725	
-0.419739	
-0.420837	
-0.420532	
-0.42218	
-0.42218	
-0.423218	
-0.424622	
-0.424622	
-0.425598	
-0.425598	
-0.427795	
-0.428284	
-0.429688	
-0.431763	
-0.431213	
-0.433655	
-0.435669	
-0.438293	
-0.441467	
-0.442993	
-0.44574	
-0.447083	
-0.449768	
-0.452332	
-0.454773	
-0.456909	
-0.458435	
-0.460083	
-0.461548	
-0.462341	
-0.464783	
-0.464966	
-0.465698	
-0.466614	
-0.467102	
-0.468872	
-0.46875	
-0.470398	
-0.470276	
-0.471863	
-0.471985	
-0.472229	
-0.473022	
-0.473816	
-0.472839	
-0.472534	
-0.47052	
-0.47168	
-0.46991	
-0.468994	
-0.468628	
-0.466492	
-0.465027	
-0.463623	
-0.46228	
-0.462708	
-0.460449	
-0.45929	
-0.457275	
-0.455139	
-0.454346	
-0.452515	
-0.452454	
-0.450012	
-0.449524	
-0.448608	
-0.447083	
-0.447571	
-0.445435	
-0.443481	
-0.441711	
-0.438477	
-0.437622	
-0.434998	
-0.432739	
-0.430054	
-0.427673	
-0.424805	
-0.422852	
-0.420837	
-0.420105	
-0.416199	
-0.414917	
-0.411804	
-0.410278	
-0.408752	
-0.406677	
-0.404968	
-0.402405	
-0.401489	
-0.399841	
-0.396912	
-0.397827	
-0.395447	
-0.393311	
-0.391907	
-0.388611	
-0.388123	
-0.386719	
-0.385803	
-0.385132	
-0.383728	
-0.382446	
-0.380493	
-0.378662	
-0.379395	
-0.377991	
-0.377869	
-0.376404	
-0.375854	
-0.375427	
-0.373596	
-0.374207	
-0.372131	
-0.372437	
-0.371887	
-0.369568	
-0.370544	
-0.369385	
-0.368896	
-0.367615	
-0.366028	
-0.365845	
-0.36499	
-0.364563	
-0.363525	
-0.362671	
-0.361633	
-0.360535	
-0.360413	
-0.35968	
-0.358032	
-0.357788	
-0.356445	
-0.357849	
-0.3573	
-0.357483	
-0.358521	
-0.358276	
-0.358948	
-0.359314	
-0.35968	
-0.361206	
-0.361328	
-0.362732	
-0.362061	
-0.362732	
-0.364258	
-0.36438	
-0.366028	
-0.366089	
-0.367004	
-0.367798	
-0.368042	
-0.369568	
-0.369141	
-0.370544	
-0.369751	
-0.371399	
-0.371338	
-0.371338	
-0.372559	
-0.372864	
-0.373474	
-0.373718	
-0.373718	
-0.376221	
-0.375549	
-0.376648	
-0.376099	
-0.37677	
-0.37738	
-0.376831	
-0.37854	
-0.37793	
-0.378235	
-0.378479	
-0.378174	
-0.379272	
-0.378662	
-0.378845	
-0.37854	
-0.378723	
-0.378357	
-0.377441	
-0.37854	
-0.377991	
-0.377991	
-0.378174	
-0.377441	
-0.379517	
-0.378723	
-0.37915	
-0.379333	
-0.379822	
-0.380798	
-0.381104	
-0.381714	
-0.380859	
-0.382446	
-0.382202	
-0.381714	
-0.382874	
-0.381531	
-0.381409	
-0.381592	
-0.380676	
-0.381592	
-0.381714	
-0.382202	
-0.381714	
-0.382324	
-0.382263	
-0.382935	
-0.383911	
-0.38324	
-0.383301	
-0.383972	
-0.383545	
-0.383179	
-0.383362	
-0.383057	
-0.38446	
-0.384094	
-0.384277	
-0.384399	
-0.385193	
-0.385681	
-0.385071	
-0.385925	
-0.385071	
-0.386963	
-0.38623	
-0.385132	
-0.38678	
-0.386841	
-0.38678	
-0.386963	
-0.387024	
-0.388489	
-0.387512	
-0.387634	
-0.388794	
-0.387817	
-0.38855	
-0.388367	
-0.388672	
-0.388428	
-0.388977	
-0.389221	
-0.388916	
-0.389709	
-0.389893	
-0.389648	
-0.390076	
-0.389343	
-0.390381	
-0.390015	
-0.390198	
-0.390503	
-0.389771	
-0.390564	
-0.389893	
-0.389954	
-0.391235	
-0.39032	
-0.390259	
-0.391174	
-0.390137	
-0.391052	
-0.390869	
-0.390442	
-0.389404	
-0.390442	
-0.39032	
-0.390198	
-0.390869	
-0.391479	
-0.390625	
-0.390747	
-0.390686	
-0.391968	
-0.390808	
-0.390076	
-0.39093	
-0.390686	
-0.390869	
-0.390869	
-0.390686	
-0.390686	
-0.390625	
-0.390625	
-0.389832	
-0.389587	
-0.389954	
-0.389709	
-0.388855	
-0.389465	
-0.389282	
-0.389038	
-0.388428	
-0.389954	
-0.390259	
-0.389404	
-0.389954	
-0.390137	
-0.390625	
-0.390015	
-0.389771	
-0.390808	
-0.389771	
-0.389526	
-0.389526	
-0.390259	
-0.389587	
-0.389099	
-0.389038	
-0.388733	
-0.388977	
-0.389648	
-0.389526	
-0.388977	
-0.388977	
-0.389343	
-0.389343	
-0.389282	
-0.390381	
-0.389648	
-0.389038	
-0.388733	
-0.389526	
-0.389221	
-0.388428	
-0.387939	
-0.38855	
-0.387573	
-0.388123	
-0.388306	
-0.388611	
-0.388184	
-0.387817	
-0.387634	
-0.386353	
-0.387817	
-0.388062	
-0.388062	
-0.388245	
-0.387817	
-0.387939	
-0.387695	
-0.387329	
-0.387573	
-0.387573	
-0.386902	
-0.386536	
-0.386719	
-0.387146	
-0.386108	
-0.385681	
-0.385986	
-0.385254	
-0.385254	
-0.385498	
-0.386292	
-0.38678	
-0.386292	
-0.386536	
-0.386108	
-0.386963	
-0.387085	
-0.387024	
-0.386414	
-0.386108	
-0.387085	
-0.386963	
-0.386353	
-0.387268	
-0.387146	
-0.387634	
-0.387634	
-0.387512	
-0.387756	
-0.387939	
-0.387878	
-0.387817	
-0.388123	
-0.388245	
-0.38855	
-0.389099	
-0.388977	
-0.387817	
-0.387695	
-0.388672	
-0.388855	
-0.388184	
-0.388489	
-0.388184	
-0.388062	
-0.388306	
-0.388062	
-0.387878	
-0.389221	
-0.388062	
-0.388794	
-0.388062	
-0.389038	
-0.388672	
-0.388733	
-0.388855	
-0.387878	
-0.388184	
-0.388672	
-0.388794	
-0.389893	
-0.389526	
-0.389282	
-0.388977	
-0.388672	
-0.388916	
-0.388611	
-0.388367	
-0.388184	
-0.388306	
-0.388977	
-0.388367	
-0.387817	
-0.390686	
-0.388794	
-0.388306	
-0.387817	
-0.387329	
-0.387939	
-0.387695	
-0.388184	
-0.387329	
-0.388306	
-0.388367	
-0.387817	
-0.389343	
-0.389404	
-0.388916	
-0.388794	
-0.388184	
-0.389221	
-0.388977	
-0.388306	
-0.388245	
-0.388733	
-0.389221	
-0.388794	
-0.388733	
-0.389893	
-0.38916	
-0.388855	
-0.388672	
-0.389832	
-0.388855	
-0.38855	
-0.388611	
-0.387634	
-0.388672	
-0.388367	
-0.388428	
-0.389709	
-0.389282	
-0.38855	
-0.388489	
-0.387512	
-0.387939	
-0.388123	
-0.387634	
-0.388	
-0.387146	
-0.387573	
-0.387207	
-0.387695	
-0.388	
-0.388306	
-0.387207	
-0.387817	
-0.38855	
-0.386963	
-0.38739	
-0.387573	
-0.386169	
-0.387024	
-0.386841	
-0.386658	
-0.388	
-0.387268	
-0.387329	
-0.387207	
-0.386475	
-0.388367	
-0.387085	
-0.386963	
-0.387634	
-0.386658	
-0.386475	
-0.386108	
-0.385803	
-0.385803	
-0.38623	
-0.385254	
-0.385254	
-0.386597	
-0.384521	
-0.385376	
-0.385681	
-0.383362	
-0.385437	
-0.385376	
-0.385254	
-0.386108	
-0.385803	
-0.386475	
-0.386353	
-0.386963	
-0.387512	
-0.387573	
-0.388	
-0.388794	
-0.388367	
-0.388306	
-0.388733	
-0.387695	
-0.388672	
-0.388245	
-0.38739	
-0.386536	
-0.387817	
-0.385742	
-0.387085	
-0.386047	
-0.386292	
-0.387329	
-0.387573	
-0.387207	
-0.388733	
-0.387695	
-0.388489	
-0.387268	
-0.387634	
-0.387024	
-0.387451	
-0.387268	
-0.386719	
-0.387268	
-0.387451	
-0.387512	
-0.386963	
-0.387085	
-0.387268	
-0.386963	
-0.38623	
-0.388306	
-0.385803	
-0.386597	
-0.386108	
-0.387207	
-0.386414	
-0.386475	
-0.386353	
-0.386597	
-0.386169	
-0.387329	
-0.385681	
-0.386475	
-0.385437	
-0.38501	
-0.385498	
-0.383667	
-0.385376	
-0.384888	
-0.385071	
-0.385376	
-0.385315	
-0.385315	
-0.385315	
-0.384338	
-0.386536	
-0.385437	
-0.385559	
-0.385071	
-0.385742	
-0.385193	
-0.385132	
-0.385986	
-0.385986	
-0.385925	
-0.386169	
-0.385803	
-0.386597	
-0.385803	
-0.384949	
-0.386047	
-0.385193	
-0.386108	
-0.386108	
-0.385986	
-0.385254	
-0.385437	
-0.385193	
-0.38562	
-0.385498	
-0.386475	
-0.385315	
-0.385681	
-0.385376	
-0.385559	
-0.386108	
-0.38623	
-0.385986	
-0.38623	
-0.385864	
-0.386108	
-0.385742	
-0.386292	
-0.385986	
-0.385498	
-0.385864	
-0.384827	
-0.386841	
-0.386108	
-0.386108	
-0.386292	
-0.385803	
-0.38678	
-0.387695	
-0.386902	
-0.388306	
-0.38739	
-0.386047	
-0.386597	
-0.38739	
-0.387939	
-0.387146	
-0.387207	
-0.387207	
-0.386719	
-0.386597	
-0.387085	
-0.387695	
-0.386719	
-0.386597	
-0.386414	
-0.385864	
-0.387817	
-0.38739	
-0.38739	
-0.388184	
-0.386536	
-0.387878	
-0.387939	
-0.387268	
-0.388367	
-0.387268	
-0.386353	
-0.38739	
-0.388184	
-0.388489	
-0.387573	
-0.388062	
-0.388428	
-0.388367	
-0.388306	
-0.389465	
-0.389343	
-0.388245	
-0.388489	
-0.388	
-0.386963	
-0.388794	
-0.388855	
-0.388733	
-0.388733	
-0.388428	
-0.388611	
-0.388916	
-0.38855	
-0.389771	
-0.388245	
-0.388306	
-0.388062	
-0.38855	
-0.390137	
-0.389709	
-0.389526	
-0.390564	
-0.389954	
-0.390381	
-0.391541	
-0.391235	
-0.391357	
-0.391663	
-0.390808	
-0.390381	
-0.390686	
-0.390381	
-0.389832	
-0.389465	
-0.389282	
-0.389404	
-0.389221	
-0.389465	
-0.39093	
-0.389282	
-0.388916	
-0.38855	
-0.38916	
-0.390015	
-0.388672	
-0.388367	
-0.388489	
-0.387024	
-0.387939	
-0.388123	
-0.387878	
-0.388062	
-0.387756	
-0.386597	
-0.387329	
-0.388367	
-0.388306	
-0.388306	
-0.388	
-0.388794	
-0.388123	
-0.388672	
-0.388733	
-0.388977	
-0.388245	
-0.388367	
-0.387695	
-0.386963	
-0.389099	
-0.388306	
-0.38855	
-0.388611	
-0.388184	
-0.388123	
-0.388428	
-0.388123	
-0.38855	
-0.388367	
-0.387207	
-0.387512	
-0.388062	
-0.388733	
-0.388672	
-0.389221	
-0.389404	
-0.389221	
-0.38916	
-0.39032	
-0.390015	
-0.389404	
-0.389526	
-0.389587	
-0.388672	
-0.390503	
-0.389648	
-0.389648	
-0.389832	
-0.390259	
-0.390198	
-0.390503	
-0.390503	
-0.390381	
-0.388916	
-0.388489	
-0.388794	
-0.38916	
-0.389771	
-0.389038	
-0.389038	
-0.389221	
-0.389771	
-0.389465	
-0.390442	
-0.390015	
-0.389038	
-0.388977	
-0.388855	
-0.387451	
-0.389709	
-0.389404	
-0.389709	
-0.389221	
-0.389282	
-0.389404	
-0.389709	
-0.389893	
-0.389832	
-0.389343	
-0.388428	
-0.389099	
-0.390076	
-0.390381	
-0.39032	
-0.390259	
-0.390564	
-0.391174	
-0.391174	
-0.392151	
-0.392212	
-0.390564	
-0.390991	
-0.390442	
-0.389099	
-0.390808	
-0.390625	
-0.390625	
-0.390076	
-0.389893	
-0.391113	
-0.391357	
-0.391174	
-0.390808	
-0.390808	
-0.389832	
-0.390442	
-0.391541	
-0.39209	
-0.391113	
-0.391174	
-0.391052	
-0.391846	
-0.391785	
-0.39209	
-0.392883	
-0.39032	
-0.39209	
-0.392456	
-0.390564	
-0.3927	
-0.392822	
-0.3927	
-0.392822	
-0.393005	
-0.393433	
-0.393311	
-0.393677	
-0.393982	
-0.392761	
-0.392822	
-0.393005	
-0.3927	
-0.394043	
-0.3927	
-0.39209	
-0.391235	
-0.391541	
-0.390991	
-0.391357	
-0.391663	
-0.389648	
-0.39032	
-0.390137	
-0.389221	
-0.391541	
-0.391602	
-0.391724	
-0.391968	
-0.392029	
-0.392944	
-0.392334	
-0.392334	
-0.393188	
-0.390869	
-0.39032	
-0.390564	
-0.391113	
-0.391663	
-0.390381	
-0.391174	
-0.390869	
-0.390198	
-0.390686	
-0.391235	
-0.391846	
-0.390808	
-0.391113	
-0.389771	
-0.390747	
-0.391296	
-0.390991	
-0.390991	
-0.391174	
-0.390503	
-0.392334	
-0.391602	
-0.391907	
-0.392517	
-0.391541	
-0.391479	
-0.391174	
-0.390198	
-0.393127	
-0.392273	
-0.3927	
-0.391968	
-0.392883	
-0.393005	
-0.393127	
-0.393066	
-0.393372	
-0.392456	
-0.39209	
-0.393005	
-0.393799	
-0.393494	
-0.393311	
-0.39325	
-0.392883	
-0.393982	
-0.393005	
-0.393494	
-0.392883	
-0.392456	
-0.393188	
-0.392822	
-0.391541	
-0.393616	
-0.393127	
-0.3927	
-0.392761	
-0.392944	
-0.393066	
-0.393555	
-0.392944	
-0.394592	
-0.392883	
-0.392517	
-0.392517	
-0.39209	
-0.393372	
-0.393005	
-0.3927	
-0.392273	
-0.393127	
-0.392822	
-0.392822	
-0.392395	
-0.391235	
-0.392334	
-0.391602	
-0.391907	
-0.392822	
-0.3927	
-0.392456	
-0.392273	
-0.392212	
-0.393127	
-0.392456	
-0.392395	
-0.393066	
-0.391113	
-0.391907	
-0.391785	
-0.390686	
-0.392029	
-0.391663	
-0.390991	
-0.390198	
-0.390991	
-0.391357	
-0.391541	
-0.391235	
-0.39209	
-0.391602	
-0.390503	
-0.391602	
-0.392212	
-0.392029	
-0.391602	
-0.391663	
-0.391724	
-0.392029	
-0.391541	
-0.391785	
-0.391541	
-0.39032	
-0.390747	
-0.390991	
-0.39032	
-0.390869	
-0.390991	
-0.390991	
-0.390686	
-0.391357	
-0.391663	
-0.391052	
-0.391174	
-0.390991	
-0.390137	
-0.389099	
-0.389893	
-0.389526	
-0.390076	
-0.389709	
-0.389587	
-0.389954	
-0.389893	
-0.389526	
-0.390137	
-0.390076	
-0.389832	
-0.389282	
-0.388916	
-0.388794	
-0.389954	
-0.389954	
-0.390137	
-0.389343	
-0.389526	
-0.390625	
-0.389343	
-0.390076	
-0.389832	
-0.388367	
-0.388062	
-0.388	
-0.388	
-0.387451	
-0.387451	
-0.38739	
-0.385803	
-0.387146	
-0.38739	
-0.388306	
-0.388489	
-0.388489	
-0.388245	
-0.387878	
-0.387024	
-0.38855	
-0.388611	
-0.388489	
-0.388489	
-0.388794	
-0.389465	
-0.388977	
-0.389587	
-0.389465	
-0.388245	
-0.38916	
-0.388367	
-0.389038	
-0.389343	
-0.389465	
-0.389099	
-0.388794	
-0.389648	
-0.389587	
-0.389709	
-0.390564	
-0.389709	
-0.389038	
-0.388916	
-0.38855	
-0.389282	
-0.389587	
-0.389526	
-0.389648	
-0.388855	
-0.389709	
-0.389587	
-0.389587	
-0.390137	
-0.387939	
-0.389099	
-0.38855	
-0.389709	
-0.390015	
-0.390015	
-0.389587	
-0.389648	
-0.389954	
-0.390198	
-0.389526	
-0.390747	
-0.390076	
-0.389038	
-0.389038	
-0.388794	
-0.38916	
-0.389771	
-0.389343	
-0.388916	
-0.388123	
-0.390381	
-0.389038	
-0.389771	
-0.389893	
-0.388916	
-0.388733	
-0.388062	
-0.387146	
-0.388672	
-0.388428	
-0.388672	
-0.388733	
-0.389038	
-0.389282	
-0.389038	
-0.389709	
-0.389465	
-0.388977	
-0.388794	
-0.387512	
-0.389099	
-0.388916	
-0.388855	
-0.38916	
-0.38855	
-0.389343	
-0.38916	
-0.389526	
-0.390076	
-0.388611	
-0.389038	
-0.388672	
-0.388733	
-0.388428	
-0.389038	
-0.388855	
-0.388916	
-0.388733	
-0.388977	
-0.388794	
-0.389038	
-0.389221	
-0.388855	
-0.387878	
-0.387268	
-0.387695	
-0.387085	
-0.387329	
-0.387207	
-0.386902	
-0.388306	
-0.387573	
-0.387695	
-0.388733	
-0.387756	
-0.387756	
-0.388	
-0.386414	
-0.388184	
-0.387512	
-0.387268	
-0.387085	
-0.387085	
-0.387695	
-0.386841	
-0.387268	
-0.388611	
-0.388123	
-0.386963	
-0.386963	
-0.386169	
-0.385986	
-0.386597	
-0.386169	
-0.386047	
-0.386536	
-0.385742	
-0.385681	
-0.386169	
-0.385132	
-0.386108	
-0.38562	
-0.384399	
-0.385376	
-0.38501	
-0.38501	
-0.38501	
-0.384399	
-0.385742	
-0.385437	
-0.385742	
-0.386658	
-0.386353	
-0.386719	
-0.387085	
-0.386047	
-0.387695	
-0.388306	
-0.387878	
-0.387756	
-0.38855	
-0.388672	
-0.38739	
-0.387512	
-0.388245	
-0.387268	
-0.386108	
-0.385742	
-0.385193	
-0.386047	
-0.386658	
-0.386963	
-0.386902	
-0.388245	
-0.387268	
-0.387695	
-0.388245	
-0.386597	
-0.387024	
-0.386902	
-0.385864	
-0.387634	
-0.386963	
-0.386963	
-0.387024	
-0.386169	
-0.38739	
-0.386841	
-0.386963	
-0.388428	
-0.387451	
-0.386475	
-0.386169	
-0.386108	
-0.387085	
-0.386597	
-0.386475	
-0.385803	
-0.386414	
-0.385986	
-0.386047	
-0.386108	
-0.38623	
-0.385254	
-0.385498	
-0.384888	
-0.384949	
-0.385132	
-0.385559	
-0.384888	
-0.385132	
-0.385864	
-0.385132	
-0.38501	
-0.387268	
-0.385132	
-0.385437	
-0.38562	
-0.383728	
-0.386658	
-0.385681	
-0.385559	
-0.385986	
-0.384766	
-0.385986	
-0.386108	
-0.38678	
-0.387268	
-0.385986	
-0.385986	
-0.385559	
-0.385315	
-0.386536	
-0.385925	
-0.385986	
-0.385498	
-0.38623	
-0.385193	
-0.385742	
-0.385925	
-0.384949	
-0.385681	
-0.385742	
-0.384216	
-0.386292	
-0.385498	
-0.385864	
-0.385742	
-0.385559	
-0.386963	
-0.386047	
-0.386536	
-0.387695	
-0.385925	
-0.386169	
-0.385132	
-0.384033	
-0.386597	
-0.385864	
-0.386108	
-0.38623	
-0.38623	
-0.386841	
-0.387268	
-0.387329	
-0.387451	
-0.387512	
-0.387268	
-0.385498	
-0.387451	
-0.387329	
-0.387207	
-0.386536	
-0.386475	
-0.387268	
-0.386353	
-0.386597	
-0.388184	
-0.386902	
-0.386536	
-0.386169	
-0.38562	
-0.387695	
-0.38739	
-0.387329	
-0.387329	
-0.386353	
-0.387146	
-0.38739	
-0.387878	
-0.388428	
-0.387268	
-0.387024	
-0.386902	
-0.38678	
-0.388184	
-0.387878	
-0.387695	
-0.387695	
-0.388794	
-0.388489	
-0.38855	
-0.389404	
-0.388428	
-0.388733	
-0.388794	
-0.388	
-0.38916	
-0.388855	
-0.389099	
-0.388794	
-0.388855	
-0.38855	
-0.388855	
-0.388489	
-0.389771	
-0.388489	
-0.388611	
-0.388367	
-0.387695	
-0.390076	
-0.389832	
-0.389709	
-0.390381	
-0.391113	
-0.390686	
-0.391724	
-0.393005	
-0.392212	
-0.391968	
-0.391846	
-0.390808	
-0.392029	
-0.391907	
-0.391113	
-0.390564	
-0.390015	
-0.390442	
-0.390015	
-0.390381	
-0.390686	
-0.389526	
-0.389465	
-0.389648	
-0.387939	
-0.390564	
-0.389404	
-0.389221	
-0.389282	
-0.388977	
-0.388794	
-0.388672	
-0.388855	
-0.388733	
-0.388306	
-0.388489	
-0.387024	
-0.388184	
-0.388245	
-0.388245	
-0.388367	
-0.388062	
-0.390015	
-0.389282	
-0.389099	
-0.389893	
-0.389343	
-0.389038	
-0.38855	
-0.386719	
-0.389465	
-0.388489	
-0.388794	
-0.38855	
-0.38855	
-0.388794	
-0.389038	
-0.389404	
-0.389465	
-0.388184	
-0.388123	
-0.387634	
-0.387573	
-0.388489	
-0.388062	
-0.388611	
-0.389099	
-0.389648	
-0.388855	
-0.389709	
-0.390625	
-0.389771	
-0.389526	
-0.389282	
-0.387817	
-0.390076	
-0.389893	
-0.389709	
-0.390137	
-0.389526	
-0.390991	
-0.390259	
-0.390015	
-0.390808	
-0.389709	
-0.389221	
-0.388794	
-0.389221	
-0.390076	
-0.389038	
-0.389038	
-0.388855	
-0.389587	
-0.389099	
-0.389221	
-0.389343	
-0.389465	
-0.389343	
-0.38916	
-0.388428	
-0.388672	
-0.389282	
-0.389465	
-0.389465	
-0.389038	
-0.390076	
-0.389343	
-0.389893	
-0.391541	
-0.389038	
-0.389648	
-0.38916	
-0.389526	
-0.391541	
-0.389832	
-0.390198	
-0.390564	
-0.390686	
-0.391357	
-0.391296	
-0.392212	
-0.391296	
-0.391174	
-0.390808	
-0.389038	
-0.390015	
-0.39093	
-0.390564	
-0.390686	
-0.390198	
-0.391296	
-0.390991	
-0.391479	
-0.392029	
-0.390869	
-0.391479	
-0.391479	
-0.391052	
-0.391846	
-0.391113	
-0.391113	
-0.390991	
-0.390198	
-0.392212	
-0.391418	
-0.392761	
-0.391846	
-0.391907	
-0.392334	
-0.391357	
-0.392151	
-0.39325	
-0.3927	
-0.392944	
-0.392517	
-0.392883	
-0.392456	
-0.393127	
-0.394592	
-0.392761	
-0.392456	
-0.392456	
-0.391968	
-0.391541	
-0.392212	
-0.392151	
-0.391296	
-0.390869	
-0.391357	
-0.390503	
-0.390747	
-0.390869	
-0.390747	
-0.390076	
-0.389465	
-0.390564	
-0.391479	
-0.39093	
-0.391235	
-0.391846	
-0.391907	
-0.39209	
-0.392029	
-0.392395	
-0.391235	
-0.390747	
-0.390442	
-0.388794	
-0.390137	
-0.390808	
-0.390015	
-0.390503	
-0.390686	
-0.391541	
-0.390259	
-0.390625	
-0.392456	
-0.391113	
-0.390381	
-0.390137	
-0.390747	
-0.390869	
-0.390869	
-0.390747	
-0.390869	
-0.390076	
-0.391479	
-0.390808	
-0.391418	
-0.392517	
-0.392578	
-0.391357	
-0.391174	
-0.391907	
-0.393066	
-0.3927	
-0.392334	
-0.3927	
-0.392578	
-0.392517	
-0.392639	
-0.393127	
-0.391907	
-0.393433	
-0.392639	
-0.391785	
-0.393677	
-0.393311	
-0.393188	
-0.393005	
-0.391968	
-0.393738	
-0.392639	
-0.393066	
-0.394104	
-0.393372	
-0.393372	
-0.392822	
-0.392761	
-0.3927	
-0.393005	
-0.392212	
-0.392212	
-0.393188	
-0.392944	
-0.393066	
-0.393616	
-0.393188	
-0.394043	
-0.392639	
-0.391846	
-0.393127	
-0.392883	
-0.393127	
-0.392883	
-0.391663	
-0.393188	
-0.392334	
-0.392273	
-0.393494	
-0.39209	
-0.392822	
-0.39209	
-0.391052	
-0.392944	
-0.392212	
-0.392456	
-0.392334	
-0.392273	
-0.392273	
-0.392517	
-0.392334	
-0.392578	
-0.392517	
-0.392029	
-0.39209	
-0.391907	
-0.391174	
-0.391541	
-0.391052	
-0.390625	
-0.392151	
-0.391357	
-0.391357	
-0.392639	
-0.390381	
-0.3927	
-0.391907	
-0.389832	
-0.392456	
-0.390808	
-0.39209	
-0.391724	
-0.391785	
-0.391907	
-0.391357	
-0.391724	
-0.392456	
-0.391357	
-0.391479	
-0.390808	
-0.391052	
-0.390869	
-0.390991	
-0.391174	
-0.390686	
-0.391418	
-0.390991	
-0.391113	
-0.391357	
-0.390137	
-0.390991	
-0.389771	
-0.389343	
-0.390808	
-0.389648	
-0.389709	
-0.389648	
-0.389465	
-0.390076	
-0.389587	
-0.390259	
-0.391174	
-0.388672	
-0.390442	
-0.389526	
-0.388733	
-0.390198	
-0.388855	
-0.389648	
-0.389893	
-0.389893	
-0.390137	
-0.389343	
-0.389465	
-0.388916	
-0.38855	
-0.388611	
-0.387085	
	
