E:\DOCUMENTS AND SETTINGS\JPOTAS\MEUS DOCUMENTOS\UFRJ\RSCI-BM 12 WK SERIES\070730-RSCI-BM-09\RSCI-BM-09-LEMG\070730-RSCI-BM-09-LEMG-0018.ACQ
0.025000 msec/sample
1 channel
Analog input
Volts
CH1	
2000	
-0.406799	
-0.407898	
-0.407349	
-0.407104	
-0.407837	
-0.405701	
-0.406799	
-0.406433	
-0.405151	
-0.404358	
-0.403503	
-0.403625	
-0.40332	
-0.403198	
-0.40271	
-0.402954	
-0.403503	
-0.401611	
-0.402954	
-0.403503	
-0.403015	
-0.401794	
-0.401123	
-0.401794	
-0.402588	
-0.402893	
-0.402832	
-0.403015	
-0.403259	
-0.4021	
-0.402588	
-0.403137	
-0.40332	
-0.402161	
-0.401306	
-0.401978	
-0.402283	
-0.403015	
-0.402527	
-0.402954	
-0.403442	
-0.401733	
-0.403442	
-0.403015	
-0.403198	
-0.402527	
-0.401733	
-0.402283	
-0.402832	
-0.402832	
-0.403015	
-0.403381	
-0.403015	
-0.40271	
-0.403503	
-0.402588	
-0.404358	
-0.403687	
-0.402832	
-0.403442	
-0.403748	
-0.404724	
-0.40448	
-0.404663	
-0.404419	
-0.403931	
-0.40509	
-0.404053	
-0.405396	
-0.404663	
-0.403809	
-0.404114	
-0.404785	
-0.405457	
-0.404358	
-0.403992	
-0.403442	
-0.403809	
-0.404053	
-0.403137	
-0.403442	
-0.403259	
-0.402039	
-0.403625	
-0.404419	
-0.405334	
-0.404907	
-0.405518	
-0.405273	
-0.404663	
-0.405579	
-0.404602	
-0.405701	
-0.405151	
-0.403442	
-0.405518	
-0.406006	
-0.40686	
-0.406616	
-0.406799	
-0.406616	
-0.406189	
-0.40741	
-0.406799	
-0.406677	
-0.406616	
-0.405579	
-0.406738	
-0.40741	
-0.408142	
-0.40741	
-0.407532	
-0.407471	
-0.407043	
-0.40741	
-0.406189	
-0.407043	
-0.406311	
-0.404663	
-0.405518	
-0.406555	
-0.407227	
-0.405884	
-0.405945	
-0.40564	
-0.40564	
-0.406433	
-0.405823	
-0.405762	
-0.404785	
-0.403564	
-0.404846	
-0.40509	
-0.405945	
-0.404907	
-0.405029	
-0.404602	
-0.404602	
-0.404907	
-0.403809	
-0.404114	
-0.404053	
-0.402832	
-0.404602	
-0.404114	
-0.404846	
-0.404724	
-0.40509	
-0.404053	
-0.403625	
-0.405396	
-0.404541	
-0.404297	
-0.404053	
-0.403625	
-0.404663	
-0.404541	
-0.405151	
-0.404724	
-0.40509	
-0.403992	
-0.404053	
-0.404724	
-0.404358	
-0.403687	
-0.403015	
-0.402283	
-0.403625	
-0.403564	
-0.403992	
-0.403259	
-0.403748	
-0.402283	
-0.402222	
-0.403564	
-0.401855	
-0.401001	
-0.400696	
-0.39917	
-0.40033	
-0.400757	
-0.401184	
-0.400696	
-0.401184	
-0.400269	
-0.400574	
-0.401855	
-0.399963	
-0.400208	
-0.400269	
-0.400574	
-0.400818	
-0.401306	
-0.401978	
-0.401123	
-0.401917	
-0.401306	
-0.396729	
-0.382629	
-0.379333	
-0.379883	
-0.379883	
-0.380066	
-0.388733	
-0.403442	
-0.405945	
-0.406128	
-0.406494	
-0.404358	
-0.405518	
-0.407532	
-0.406067	
-0.406311	
-0.406311	
-0.405762	
-0.407043	
-0.407898	
-0.408081	
-0.40802	
-0.409058	
-0.407104	
-0.408264	
-0.409424	
-0.409119	
-0.408752	
-0.408203	
-0.407959	
-0.409302	
-0.409607	
-0.409302	
-0.409241	
-0.410339	
-0.40979	
-0.410156	
-0.410828	
-0.409729	
-0.409729	
-0.409546	
-0.40863	
-0.409607	
-0.410461	
-0.40979	
-0.409546	
-0.409607	
-0.409607	
-0.410522	
-0.410828	
-0.409973	
-0.410278	
-0.409607	
-0.409363	
-0.411194	
-0.411438	
-0.410583	
-0.411011	
-0.410217	
-0.410828	
-0.411255	
-0.411255	
-0.411377	
-0.411865	
-0.411621	
-0.414185	
-0.418396	
-0.421448	
-0.425171	
-0.430542	
-0.434204	
-0.44165	
-0.448547	
-0.455505	
-0.462524	
-0.469849	
-0.475586	
-0.482483	
-0.487244	
-0.490601	
-0.493774	
-0.496765	
-0.498596	
-0.499939	
-0.501892	
-0.501648	
-0.502014	
-0.501404	
-0.500854	
-0.502136	
-0.502625	
-0.502258	
-0.502869	
-0.501465	
-0.502014	
-0.500549	
-0.500183	
-0.497986	
-0.497314	
-0.494019	
-0.495422	
-0.494324	
-0.492859	
-0.492004	
-0.491272	
-0.489624	
-0.489014	
-0.488342	
-0.486572	
-0.484985	
-0.484436	
-0.483826	
-0.483765	
-0.483765	
-0.482544	
-0.481689	
-0.48114	
-0.480286	
-0.479431	
-0.479492	
-0.478088	
-0.47699	
-0.475342	
-0.475342	
-0.474243	
-0.472961	
-0.47052	
-0.468628	
-0.465759	
-0.463928	
-0.462158	
-0.460388	
-0.457031	
-0.455505	
-0.451782	
-0.451904	
-0.451355	
-0.450012	
-0.448975	
-0.449463	
-0.448425	
-0.44873	
-0.449646	
-0.449585	
-0.449097	
-0.44873	
-0.44873	
-0.448364	
-0.44873	
-0.446472	
-0.445679	
-0.44458	
-0.442932	
-0.441101	
-0.440613	
-0.436829	
-0.433594	
-0.429688	
-0.425354	
-0.422058	
-0.417297	
-0.410461	
-0.40448	
-0.397949	
-0.391113	
-0.384155	
-0.377991	
-0.369385	
-0.36084	
-0.351807	
-0.342712	
-0.335266	
-0.328064	
-0.319641	
-0.312988	
-0.306335	
-0.301147	
-0.296204	
-0.291992	
-0.288086	
-0.284912	
-0.281982	
-0.282166	
-0.281433	
-0.281372	
-0.282104	
-0.283752	
-0.283508	
-0.28595	
-0.288757	
-0.28949	
-0.291809	
-0.294739	
-0.297058	
-0.302002	
-0.30542	
-0.308655	
-0.31311	
-0.315002	
-0.319885	
-0.324402	
-0.327698	
-0.330505	
-0.333923	
-0.33667	
-0.340942	
-0.344604	
-0.346741	
-0.349915	
-0.351685	
-0.354675	
-0.358154	
-0.359619	
-0.361084	
-0.362793	
-0.363586	
-0.366943	
-0.367493	
-0.368774	
-0.370056	
-0.371521	
-0.371826	
-0.373413	
-0.37439	
-0.373352	
-0.373474	
-0.374329	
-0.375427	
-0.375732	
-0.376526	
-0.376892	
-0.377258	
-0.378052	
-0.37915	
-0.3797	
-0.379028	
-0.378601	
-0.37854	
-0.379211	
-0.380554	
-0.379517	
-0.379639	
-0.38031	
-0.380188	
-0.380493	
-0.380798	
-0.380371	
-0.380005	
-0.378967	
-0.3797	
-0.379761	
-0.379333	
-0.379028	
-0.378845	
-0.377747	
-0.377747	
-0.378601	
-0.377258	
-0.377014	
-0.375977	
-0.375732	
-0.375122	
-0.375366	
-0.374939	
-0.374512	
-0.373108	
-0.373291	
-0.373718	
-0.373657	
-0.371704	
-0.371887	
-0.371765	
-0.371582	
-0.37262	
-0.371948	
-0.371826	
-0.371765	
-0.372375	
-0.372925	
-0.372864	
-0.372375	
-0.372742	
-0.373108	
-0.372498	
-0.372375	
-0.374023	
-0.374084	
-0.374695	
-0.375244	
-0.375	
-0.375305	
-0.375854	
-0.37677	
-0.375427	
-0.376038	
-0.37793	
-0.378845	
-0.379395	
-0.379639	
-0.380249	
-0.38031	
-0.381287	
-0.382019	
-0.38208	
-0.382874	
-0.383057	
-0.384216	
-0.384705	
-0.386292	
-0.386047	
-0.386719	
-0.387573	
-0.388184	
-0.388489	
-0.389709	
-0.390259	
-0.38855	
-0.390015	
-0.390259	
-0.390259	
-0.391052	
-0.391418	
-0.392212	
-0.39093	
-0.391663	
-0.392395	
-0.391785	
-0.390991	
-0.391357	
-0.391602	
-0.391174	
-0.3927	
-0.391724	
-0.392151	
-0.391663	
-0.392029	
-0.391541	
-0.391235	
-0.391724	
-0.391418	
-0.391418	
-0.391235	
-0.39209	
-0.391357	
-0.391663	
-0.391724	
-0.391907	
-0.391785	
-0.39093	
-0.391968	
-0.389893	
-0.389893	
-0.389648	
-0.389587	
-0.389038	
-0.38916	
-0.389099	
-0.388184	
-0.389221	
-0.388428	
-0.388245	
-0.388306	
-0.387817	
-0.386902	
-0.387329	
-0.388	
-0.387939	
-0.388672	
-0.388489	
-0.388306	
-0.388245	
-0.387939	
-0.388428	
-0.388062	
-0.387939	
-0.389099	
-0.389099	
-0.389771	
-0.389404	
-0.389893	
-0.389587	
-0.390625	
-0.390503	
-0.389771	
-0.390015	
-0.390198	
-0.390625	
-0.390259	
-0.391602	
-0.390381	
-0.390381	
-0.391235	
-0.390808	
-0.391602	
-0.391968	
-0.392151	
-0.390808	
-0.391846	
-0.392151	
-0.391968	
-0.392822	
-0.370911	
-0.368164	
-0.368958	
-0.369751	
-0.370361	
-0.370117	
-0.393982	
-0.397705	
-0.397156	
-0.398132	
-0.398254	
-0.397644	
-0.397339	
-0.397522	
-0.397949	
-0.398499	
-0.398315	
-0.396118	
-0.396729	
-0.396912	
-0.396667	
-0.396362	
-0.395752	
-0.396606	
-0.396851	
-0.398193	
-0.398132	
-0.39801	
-0.39856	
-0.398254	
-0.397888	
-0.398438	
-0.398438	
-0.398743	
-0.399353	
-0.399902	
-0.399292	
-0.400024	
-0.399841	
-0.400818	
-0.400757	
-0.399658	
-0.401245	
-0.401123	
-0.40155	
-0.401367	
-0.401306	
-0.401917	
-0.402344	
-0.402893	
-0.402771	
-0.401917	
-0.401855	
-0.402039	
-0.402283	
-0.401245	
-0.402039	
-0.401184	
-0.401306	
-0.401001	
-0.402283	
-0.402344	
-0.403076	
-0.403503	
-0.406067	
-0.409546	
-0.413635	
-0.418762	
-0.423279	
-0.42926	
-0.434448	
-0.442017	
-0.449341	
-0.455505	
-0.461975	
-0.468933	
-0.473877	
-0.478699	
-0.484741	
-0.488464	
-0.491089	
-0.493042	
-0.496216	
-0.497742	
-0.497559	
-0.497803	
-0.497009	
-0.496948	
-0.495605	
-0.494934	
-0.49408	
-0.492737	
-0.490784	
-0.488525	
-0.488708	
-0.486816	
-0.485352	
-0.483826	
-0.480469	
-0.479004	
-0.477478	
-0.476563	
-0.474548	
-0.473328	
-0.471924	
-0.471924	
-0.472046	
-0.471985	
-0.472046	
-0.470398	
-0.471008	
-0.470886	
-0.472046	
-0.471985	
-0.471924	
-0.471436	
-0.469727	
-0.470703	
-0.469788	
-0.468506	
-0.466309	
-0.462891	
-0.460754	
-0.457947	
-0.455322	
-0.451782	
-0.449036	
-0.44635	
-0.444092	
-0.443787	
-0.442017	
-0.441467	
-0.440796	
-0.440857	
-0.438843	
-0.44043	
-0.44104	
-0.440002	
-0.439941	
-0.439392	
-0.439575	
-0.43988	
-0.43927	
-0.438049	
-0.435303	
-0.433533	
-0.43158	
-0.429138	
-0.425659	
-0.421753	
-0.417542	
-0.412354	
-0.409058	
-0.402161	
-0.39563	
-0.387817	
-0.378662	
-0.371399	
-0.362854	
-0.354553	
-0.345947	
-0.336731	
-0.328674	
-0.320007	
-0.312805	
-0.304626	
-0.298218	
-0.292236	
-0.285034	
-0.280518	
-0.27594	
-0.273132	
-0.269897	
-0.268311	
-0.267273	
-0.267944	
-0.267578	
-0.268372	
-0.269165	
-0.269531	
-0.271729	
-0.273926	
-0.277466	
-0.28009	
-0.282898	
-0.286499	
-0.290833	
-0.295959	
-0.299377	
-0.303955	
-0.307251	
-0.312012	
-0.315125	
-0.321045	
-0.325439	
-0.32959	
-0.333069	
-0.335999	
-0.340393	
-0.343628	
-0.346802	
-0.347473	
-0.351196	
-0.352051	
-0.355225	
-0.35791	
-0.359009	
-0.361328	
-0.362244	
-0.363953	
-0.364929	
-0.36731	
-0.366089	
-0.368469	
-0.369385	
-0.371765	
-0.372681	
-0.373169	
-0.373901	
-0.374817	
-0.37677	
-0.377014	
-0.377502	
-0.377319	
-0.378113	
-0.378174	
-0.378113	
-0.380554	
-0.380249	
-0.380981	
-0.380859	
-0.381165	
-0.381958	
-0.381958	
-0.380554	
-0.383484	
-0.380432	
-0.381348	
-0.38385	
-0.383606	
-0.383301	
-0.383362	
-0.384644	
-0.383423	
-0.38385	
-0.382813	
-0.38269	
-0.382751	
-0.381897	
-0.382568	
-0.382751	
-0.382324	
-0.381714	
-0.381409	
-0.382019	
-0.381409	
-0.381409	
-0.380371	
-0.380859	
-0.379089	
-0.380127	
-0.380249	
-0.3797	
-0.3797	
-0.379272	
-0.379456	
-0.378662	
-0.379578	
-0.37854	
-0.378113	
-0.377808	
-0.377808	
-0.377625	
-0.37793	
-0.377197	
-0.377075	
-0.376831	
-0.376404	
-0.376709	
-0.376465	
-0.375427	
-0.376892	
-0.376221	
-0.377747	
-0.379089	
-0.378784	
-0.378906	
-0.379456	
-0.381226	
-0.380249	
-0.38208	
-0.380493	
-0.382202	
-0.382324	
-0.38324	
-0.384583	
-0.38446	
-0.385315	
-0.385925	
-0.387695	
-0.387085	
-0.388306	
-0.387085	
-0.388123	
-0.388428	
-0.388184	
-0.389526	
-0.389709	
-0.389771	
-0.389771	
-0.390564	
-0.390076	
-0.390991	
-0.390198	
-0.390442	
-0.390442	
-0.390686	
-0.391357	
-0.391113	
-0.391663	
-0.391357	
-0.391296	
-0.391541	
-0.392761	
-0.392273	
-0.39032	
-0.391663	
-0.392639	
-0.392273	
-0.392456	
-0.392212	
-0.392639	
-0.391724	
-0.392578	
-0.392761	
-0.392273	
-0.390625	
-0.391907	
-0.391663	
-0.392151	
-0.392517	
-0.392456	
-0.392334	
-0.391785	
-0.393616	
-0.393127	
-0.393005	
-0.391846	
-0.391479	
-0.392761	
-0.393127	
-0.393005	
-0.393188	
-0.392944	
-0.392212	
-0.394287	
-0.394775	
-0.393311	
-0.393066	
-0.392151	
-0.391785	
-0.391357	
-0.392883	
-0.391785	
-0.392151	
-0.391663	
-0.391907	
-0.392883	
-0.392883	
-0.391968	
-0.390259	
-0.391296	
-0.390991	
-0.391052	
-0.391296	
-0.390808	
-0.390991	
-0.390808	
-0.391968	
-0.392578	
-0.391113	
-0.391052	
-0.390625	
-0.390991	
-0.390625	
-0.391907	
-0.391052	
-0.390564	
-0.391296	
-0.391663	
-0.391418	
-0.391968	
-0.391846	
-0.390686	
-0.390686	
-0.391296	
-0.392639	
-0.392395	
-0.392456	
-0.392761	
-0.392761	
-0.393616	
-0.39386	
-0.394226	
-0.393066	
-0.392639	
-0.393127	
-0.394226	
-0.39563	
-0.396179	
-0.396118	
-0.396729	
-0.396912	
-0.39856	
-0.398499	
-0.398071	
-0.398193	
-0.397949	
-0.398315	
-0.39978	
-0.400391	
-0.399902	
-0.400269	
-0.39978	
-0.401001	
-0.400513	
-0.40094	
-0.399048	
-0.397705	
-0.399353	
-0.399658	
-0.400635	
-0.399597	
-0.399536	
-0.399475	
-0.400513	
-0.401245	
-0.400269	
-0.39917	
-0.399109	
-0.399963	
-0.399963	
-0.400574	
-0.40033	
-0.400269	
-0.400269	
-0.399963	
-0.40155	
-0.401001	
-0.399048	
-0.399231	
-0.400269	
-0.400391	
-0.400146	
-0.400391	
-0.400085	
-0.400574	
-0.400696	
-0.401001	
-0.400208	
-0.399109	
-0.399292	
-0.398926	
-0.399597	
-0.399536	
-0.400269	
-0.399536	
-0.399475	
-0.39978	
-0.39978	
-0.400513	
-0.39978	
-0.398071	
-0.39801	
-0.398926	
-0.399475	
-0.400269	
-0.400085	
-0.400391	
-0.400452	
-0.40033	
-0.401978	
-0.401611	
-0.400452	
-0.400574	
-0.400452	
-0.400452	
-0.400269	
-0.400818	
-0.399536	
-0.399048	
-0.399597	
-0.398865	
-0.399597	
-0.398682	
-0.398926	
-0.399109	
-0.39801	
-0.398621	
-0.398743	
-0.398987	
-0.398071	
-0.39801	
-0.398499	
-0.398621	
-0.398376	
-0.397339	
-0.397278	
-0.396729	
-0.397766	
-0.397644	
-0.397766	
-0.397278	
-0.397705	
-0.397766	
-0.397339	
-0.399231	
-0.397949	
-0.397095	
-0.397339	
-0.397034	
-0.398682	
-0.398926	
-0.39917	
-0.399109	
-0.399109	
-0.399902	
-0.399841	
-0.400269	
-0.399048	
-0.399231	
-0.399048	
-0.399414	
-0.399658	
-0.400146	
-0.400574	
-0.400513	
-0.400452	
-0.400269	
-0.401123	
-0.400574	
-0.39978	
-0.399902	
-0.40033	
-0.401062	
-0.401184	
-0.402466	
-0.401123	
-0.402039	
-0.402161	
-0.402466	
-0.402466	
-0.401489	
-0.401062	
-0.400391	
-0.400513	
-0.400757	
-0.40094	
-0.401184	
-0.400818	
-0.401123	
-0.401062	
-0.402161	
-0.401306	
-0.400696	
-0.401001	
-0.400513	
-0.401794	
-0.401672	
-0.402527	
-0.401672	
-0.402222	
-0.403381	
-0.403687	
-0.404358	
-0.403015	
-0.403381	
-0.403198	
-0.404236	
-0.404358	
-0.404907	
-0.404846	
-0.405029	
-0.405029	
-0.404602	
-0.406433	
-0.405273	
-0.404236	
-0.404053	
-0.404114	
-0.405518	
-0.405396	
-0.40564	
-0.404541	
-0.404907	
-0.404846	
-0.40387	
-0.405518	
-0.403931	
-0.403687	
-0.403442	
-0.40332	
-0.403381	
-0.403503	
-0.404114	
-0.403259	
-0.403259	
-0.403381	
-0.403137	
-0.403809	
-0.40271	
-0.401794	
-0.402222	
-0.402466	
-0.402161	
-0.402039	
-0.401428	
-0.400635	
-0.400024	
-0.400085	
-0.400146	
-0.399414	
-0.398743	
-0.398254	
-0.397827	
-0.39856	
-0.398254	
-0.397949	
-0.397461	
-0.397705	
-0.39801	
-0.396667	
-0.398376	
-0.397339	
-0.396423	
-0.397034	
-0.396729	
-0.397217	
-0.397156	
-0.398132	
-0.397522	
-0.39801	
-0.399048	
-0.398438	
-0.398438	
-0.397156	
-0.397583	
-0.3974	
-0.398499	
-0.398132	
-0.398438	
-0.398438	
-0.39856	
-0.398865	
-0.397705	
-0.398865	
-0.397888	
-0.397827	
-0.397766	
-0.398376	
-0.398621	
-0.398743	
-0.399048	
-0.399475	
-0.39917	
-0.401001	
-0.398315	
-0.400513	
-0.398804	
-0.400024	
-0.398987	
-0.400146	
-0.400024	
-0.400757	
-0.401367	
-0.400757	
-0.400696	
-0.401917	
-0.401306	
-0.400757	
-0.399536	
-0.400696	
-0.400391	
-0.400879	
-0.400391	
-0.40033	
-0.40033	
-0.400208	
-0.401062	
-0.400269	
-0.401306	
-0.400146	
-0.400452	
-0.400146	
-0.401672	
-0.401794	
-0.402283	
-0.403748	
-0.402161	
-0.40271	
-0.403748	
-0.403015	
-0.403015	
-0.402222	
-0.40271	
-0.402222	
-0.40332	
-0.403381	
-0.403748	
-0.404602	
-0.403625	
-0.404114	
-0.404297	
-0.405151	
-0.404053	
-0.403748	
-0.404114	
-0.404236	
-0.404358	
-0.404358	
-0.404968	
-0.404663	
-0.404968	
-0.404297	
-0.404358	
-0.405212	
-0.40332	
-0.403137	
-0.403015	
-0.403625	
-0.403992	
-0.403748	
-0.404236	
-0.40332	
-0.403564	
-0.403687	
-0.403198	
-0.403564	
-0.401428	
-0.402588	
-0.401123	
-0.401672	
-0.401428	
-0.401245	
-0.400635	
-0.400024	
-0.400146	
-0.398865	
-0.399902	
-0.39856	
-0.397949	
-0.397705	
-0.397217	
-0.398315	
-0.39801	
-0.398499	
-0.397949	
-0.398193	
-0.397156	
-0.397888	
-0.398865	
-0.396912	
-0.397034	
-0.397522	
-0.397217	
-0.398132	
-0.397827	
-0.398193	
-0.397583	
-0.398438	
-0.397461	
-0.397766	
-0.39856	
-0.397156	
-0.397705	
-0.396423	
-0.397644	
-0.397644	
-0.398499	
-0.397888	
-0.397949	
-0.398315	
-0.398254	
-0.398804	
-0.398132	
-0.397949	
-0.39801	
-0.397522	
-0.398376	
-0.398804	
-0.399414	
-0.398315	
-0.398499	
-0.398438	
-0.399048	
-0.399963	
-0.397827	
-0.398254	
-0.398987	
-0.397949	
-0.399658	
-0.399963	
-0.399963	
-0.399841	
-0.40033	
-0.399963	
-0.399597	
-0.399902	
-0.398315	
-0.398132	
-0.398132	
-0.399048	
-0.398315	
-0.398682	
-0.398438	
-0.398193	
-0.399048	
-0.399475	
-0.399536	
-0.398926	
-0.398926	
-0.399353	
-0.397766	
-0.400208	
-0.399902	
-0.400452	
-0.400696	
-0.400635	
-0.400146	
-0.401245	
-0.401245	
-0.400391	
-0.400391	
-0.400879	
-0.399963	
-0.40094	
-0.401184	
-0.401855	
-0.401917	
-0.401855	
-0.401306	
-0.402283	
-0.402466	
-0.401672	
-0.401489	
-0.400818	
-0.401917	
-0.401794	
-0.402466	
-0.40155	
-0.401367	
-0.40155	
-0.401001	
-0.401062	
-0.399963	
-0.400269	
-0.400024	
-0.39856	
-0.400208	
-0.400513	
-0.401123	
-0.400146	
-0.400696	
-0.399902	
-0.400879	
-0.400391	
-0.398987	
-0.39917	
-0.398987	
-0.39801	
-0.399292	
-0.398926	
-0.399719	
-0.398682	
-0.398926	
-0.398071	
-0.399536	
-0.399231	
-0.398743	
-0.398071	
-0.39801	
-0.398438	
-0.398621	
-0.398987	
-0.398254	
-0.398499	
-0.399109	
-0.398682	
-0.398987	
-0.398254	
-0.398804	
-0.397278	
-0.396973	
-0.398804	
-0.398804	
-0.399048	
-0.398132	
-0.397888	
-0.397827	
-0.398193	
-0.398499	
-0.396484	
-0.397949	
-0.396606	
-0.396423	
-0.397461	
-0.397461	
-0.397278	
-0.396362	
-0.396301	
-0.395691	
-0.396301	
-0.396423	
-0.394287	
-0.394287	
-0.393921	
-0.394409	
-0.394958	
-0.395569	
-0.394043	
-0.394348	
-0.394836	
-0.393005	
-0.395203	
-0.395386	
-0.394226	
-0.39447	
-0.394226	
-0.395142	
-0.395325	
-0.395935	
-0.395264	
-0.395569	
-0.396362	
-0.395752	
-0.396912	
-0.396057	
-0.39624	
-0.395996	
-0.394653	
-0.396545	
-0.396912	
-0.396912	
-0.397217	
-0.396851	
-0.395752	
-0.397766	
-0.398499	
-0.397034	
-0.398315	
-0.398743	
-0.398376	
-0.39917	
-0.400818	
-0.400085	
-0.400696	
-0.400879	
-0.400208	
-0.402527	
-0.402039	
-0.401306	
-0.401489	
-0.401123	
-0.401917	
-0.402527	
-0.403259	
-0.403259	
-0.402649	
-0.40332	
-0.402893	
-0.40387	
-0.403076	
-0.402283	
-0.4021	
-0.402039	
-0.401978	
-0.402344	
-0.401978	
-0.402344	
-0.401428	
-0.400879	
-0.401855	
-0.402283	
-0.401001	
-0.401184	
-0.399841	
-0.400269	
-0.400635	
-0.401245	
-0.401001	
-0.401123	
-0.401184	
-0.40033	
-0.401184	
-0.401794	
-0.399841	
-0.400513	
-0.398682	
-0.39801	
-0.40033	
-0.400146	
-0.399963	
-0.39978	
-0.399902	
-0.398987	
-0.399658	
-0.39917	
-0.399292	
-0.398926	
-0.397949	
-0.398315	
-0.399231	
-0.399597	
-0.398621	
-0.398499	
-0.398621	
-0.398865	
-0.400146	
-0.399414	
-0.398438	
-0.398438	
-0.39801	
-0.399109	
-0.39917	
-0.39978	
-0.398743	
-0.39856	
-0.397705	
-0.397644	
-0.398132	
-0.396912	
-0.396301	
-0.395142	
-0.39624	
-0.396301	
-0.396301	
-0.39624	
-0.395691	
-0.395935	
-0.394104	
-0.396484	
-0.395813	
-0.395142	
-0.394653	
-0.394104	
-0.394165	
-0.394958	
-0.394958	
-0.394653	
-0.394775	
-0.394287	
-0.39386	
-0.394714	
-0.394531	
-0.394104	
-0.39386	
-0.393433	
-0.393066	
-0.39447	
-0.394714	
-0.394104	
-0.394592	
-0.394226	
-0.394653	
-0.395752	
-0.393982	
-0.394897	
-0.394348	
-0.394226	
-0.394348	
-0.395386	
-0.396301	
-0.396118	
-0.396729	
-0.396118	
-0.396851	
-0.397949	
-0.398438	
-0.39801	
-0.39801	
-0.398743	
-0.39917	
-0.399719	
-0.40033	
-0.400452	
-0.400635	
-0.400208	
-0.401062	
-0.400818	
-0.401611	
-0.40033	
-0.399536	
-0.400879	
-0.401001	
-0.40094	
-0.400024	
-0.400024	
-0.400085	
-0.399475	
-0.400879	
-0.398865	
-0.40033	
-0.399902	
-0.398865	
-0.399597	
-0.400635	
-0.400818	
-0.400085	
-0.400513	
-0.399597	
-0.398804	
-0.400452	
-0.400024	
-0.399719	
-0.399231	
-0.398132	
-0.39856	
-0.399414	
-0.400269	
-0.399475	
-0.400269	
-0.398621	
-0.399353	
-0.399963	
-0.399231	
-0.39856	
-0.398193	
-0.398376	
-0.398071	
-0.398743	
-0.398499	
-0.39856	
-0.398438	
-0.396912	
-0.397949	
-0.398193	
-0.398376	
-0.397644	
-0.397461	
-0.397888	
-0.397644	
-0.397278	
-0.397156	
-0.398132	
-0.397827	
-0.396851	
-0.398315	
-0.398438	
-0.398926	
-0.398071	
-0.39679	
-0.39856	
-0.398071	
-0.398743	
-0.397461	
-0.396912	
-0.396423	
-0.396423	
-0.397156	
-0.395691	
-0.396301	
-0.396179	
-0.393738	
-0.394592	
-0.395935	
-0.395996	
-0.39502	
-0.39563	
-0.394409	
-0.395081	
-0.395142	
-0.395752	
-0.394348	
-0.393982	
-0.3927	
-0.393738	
-0.394043	
-0.394165	
-0.393799	
-0.395325	
-0.393127	
-0.394287	
-0.395508	
-0.394836	
-0.394043	
-0.394409	
-0.394714	
-0.395142	
-0.395142	
-0.394897	
-0.39502	
-0.395508	
-0.39386	
-0.395325	
-0.395325	
-0.395264	
-0.395142	
-0.39502	
-0.394836	
-0.395813	
-0.395996	
-0.395752	
-0.396057	
-0.395691	
-0.394592	
-0.396118	
-0.395569	
-0.396362	
-0.396423	
-0.394653	
-0.395935	
-0.397217	
-0.397644	
-0.396912	
-0.3974	
-0.396912	
-0.396851	
-0.397461	
-0.396301	
-0.396545	
-0.39624	
-0.395264	
-0.395325	
-0.396301	
-0.396912	
-0.396362	
-0.396973	
-0.396362	
-0.395813	
-0.397766	
-0.397339	
-0.39624	
-0.396362	
-0.396423	
-0.396545	
-0.396973	
-0.397583	
-0.396423	
-0.397583	
-0.39801	
-0.397278	
-0.398071	
-0.399109	
-0.398315	
-0.397705	
-0.398804	
-0.399048	
-0.399292	
-0.398865	
-0.39917	
-0.399475	
-0.399353	
-0.399658	
-0.398987	
-0.399597	
-0.399475	
-0.398315	
-0.399048	
-0.399292	
-0.39856	
-0.399353	
-0.39917	
-0.398682	
-0.397461	
-0.398987	
-0.396851	
-0.397827	
-0.397217	
-0.39679	
-0.396362	
-0.39679	
-0.397278	
-0.396667	
-0.397156	
-0.396729	
-0.39679	
-0.397766	
-0.397095	
-0.395874	
-0.39563	
-0.395325	
-0.39563	
-0.395386	
-0.395203	
-0.394287	
-0.393677	
-0.393372	
-0.39325	
-0.393921	
-0.393738	
-0.39209	
-0.391968	
-0.391785	
-0.391602	
-0.391357	
-0.391907	
-0.391296	
-0.391235	
-0.390503	
-0.390808	
-0.390869	
-0.391663	
-0.39032	
-0.388672	
-0.390137	
-0.390259	
-0.390808	
-0.390747	
-0.391174	
-0.390869	
-0.390686	
-0.390625	
-0.390869	
-0.391846	
-0.391357	
-0.389526	
-0.391174	
-0.391418	
-0.391724	
-0.391357	
-0.392456	
-0.391113	
-0.390869	
-0.392334	
-0.391602	
-0.39209	
-0.391052	
-0.391174	
-0.391846	
-0.392029	
-0.392456	
-0.392212	
-0.393066	
-0.391785	
-0.391663	
-0.394104	
-0.392944	
-0.392944	
-0.392578	
-0.393005	
-0.392395	
-0.393738	
-0.393982	
-0.39386	
-0.393494	
-0.393799	
-0.39386	
-0.394348	
-0.394409	
-0.393738	
-0.392578	
-0.3927	
-0.392456	
-0.393066	
-0.393555	
-0.39325	
-0.39325	
-0.393188	
-0.394409	
-0.393311	
-0.395203	
-0.39447	
-0.392944	
-0.394775	
-0.39502	
-0.395569	
-0.395874	
-0.39624	
-0.395874	
-0.395508	
-0.396484	
-0.396362	
-0.397339	
-0.395813	
-0.394531	
-0.395996	
-0.396362	
-0.396973	
-0.396912	
-0.397766	
-0.397522	
-0.395935	
-0.398193	
-0.396851	
-0.397949	
-0.396667	
-0.397278	
-0.396973	
-0.397217	
-0.397949	
-0.397278	
-0.398193	
-0.397278	
-0.397278	
-0.398254	
-0.396912	
-0.396545	
-0.396423	
-0.396606	
-0.395508	
-0.397156	
-0.397095	
	
