E:\DOCUMENTS AND SETTINGS\JPOTAS\MEUS DOCUMENTOS\UFRJ\RSCI-BM 12 WK SERIES\070730-RSCI-BM-09\RSCI-BM-09-LEMG\070730-RSCI-BM-09-LEMG-0019.ACQ
0.025000 msec/sample
1 channel
Analog input
Volts
CH1	
2000	
-0.408081	
-0.407715	
-0.408813	
-0.408875	
-0.408569	
-0.407654	
-0.40863	
-0.408813	
-0.410095	
-0.409363	
-0.408569	
-0.407654	
-0.40863	
-0.40979	
-0.408875	
-0.408447	
-0.40802	
-0.408142	
-0.408447	
-0.408447	
-0.409424	
-0.408691	
-0.407898	
-0.407104	
-0.407837	
-0.407471	
-0.406921	
-0.406799	
-0.406433	
-0.406311	
-0.406433	
-0.406616	
-0.406799	
-0.406311	
-0.405701	
-0.404419	
-0.405579	
-0.405945	
-0.405212	
-0.404968	
-0.404602	
-0.404785	
-0.40509	
-0.405518	
-0.404968	
-0.40448	
-0.404175	
-0.403625	
-0.404602	
-0.403809	
-0.403076	
-0.403137	
-0.40271	
-0.403198	
-0.403076	
-0.403625	
-0.403381	
-0.403442	
-0.402405	
-0.401123	
-0.403198	
-0.402588	
-0.402405	
-0.402344	
-0.401306	
-0.401733	
-0.4021	
-0.402283	
-0.401367	
-0.401367	
-0.401306	
-0.399902	
-0.402222	
-0.401184	
-0.401855	
-0.401855	
-0.401184	
-0.402039	
-0.401733	
-0.402161	
-0.401978	
-0.402649	
-0.401672	
-0.40033	
-0.401794	
-0.402405	
-0.401855	
-0.401611	
-0.400818	
-0.401794	
-0.402405	
-0.40332	
-0.403015	
-0.403564	
-0.403137	
-0.401428	
-0.404175	
-0.403992	
-0.403931	
-0.40387	
-0.402893	
-0.404541	
-0.404846	
-0.40625	
-0.405396	
-0.406128	
-0.404846	
-0.404236	
-0.405579	
-0.406067	
-0.405945	
-0.405334	
-0.40509	
-0.405212	
-0.405396	
-0.406738	
-0.405518	
-0.406006	
-0.405273	
-0.405029	
-0.40686	
-0.406372	
-0.405701	
-0.406067	
-0.406128	
-0.40625	
-0.406372	
-0.407776	
-0.407043	
-0.407532	
-0.406799	
-0.405945	
-0.407898	
-0.408081	
-0.407654	
-0.407776	
-0.406982	
-0.408142	
-0.408508	
-0.408936	
-0.408508	
-0.409729	
-0.407532	
-0.408264	
-0.409546	
-0.409241	
-0.408081	
-0.407959	
-0.40802	
-0.408264	
-0.409058	
-0.409485	
-0.408386	
-0.408875	
-0.407715	
-0.407288	
-0.408142	
-0.407288	
-0.407227	
-0.407043	
-0.405518	
-0.406677	
-0.40686	
-0.407227	
-0.40625	
-0.406494	
-0.405029	
-0.405579	
-0.406494	
-0.405457	
-0.404968	
-0.404785	
-0.403687	
-0.404785	
-0.404968	
-0.405334	
-0.405396	
-0.405334	
-0.403381	
-0.404541	
-0.405396	
-0.40448	
-0.403809	
-0.403381	
-0.403259	
-0.403992	
-0.403809	
-0.404419	
-0.403687	
-0.403931	
-0.401978	
-0.403381	
-0.404419	
-0.402283	
-0.402222	
-0.4021	
-0.402161	
-0.396667	
-0.381714	
-0.3797	
-0.379211	
-0.38031	
-0.379333	
-0.387451	
-0.403442	
-0.40448	
-0.404541	
-0.403748	
-0.40387	
-0.403992	
-0.40448	
-0.404175	
-0.403564	
-0.403931	
-0.40271	
-0.403503	
-0.403687	
-0.402893	
-0.40332	
-0.401917	
-0.402771	
-0.403198	
-0.404358	
-0.403198	
-0.403381	
-0.403076	
-0.402161	
-0.404175	
-0.404724	
-0.404297	
-0.404175	
-0.404175	
-0.404968	
-0.40509	
-0.405884	
-0.405579	
-0.406006	
-0.405151	
-0.404602	
-0.406189	
-0.405701	
-0.406982	
-0.406555	
-0.404846	
-0.407593	
-0.407837	
-0.409851	
-0.40863	
-0.409363	
-0.409241	
-0.409912	
-0.410278	
-0.408936	
-0.410278	
-0.409668	
-0.408325	
-0.410095	
-0.4104	
-0.411926	
-0.410706	
-0.412415	
-0.413086	
-0.415222	
-0.419495	
-0.422424	
-0.426941	
-0.431702	
-0.437317	
-0.444336	
-0.451416	
-0.458618	
-0.466064	
-0.474121	
-0.47937	
-0.486938	
-0.491272	
-0.495361	
-0.498718	
-0.500549	
-0.503967	
-0.505493	
-0.50769	
-0.506592	
-0.50769	
-0.507263	
-0.507446	
-0.508606	
-0.506348	
-0.507507	
-0.507629	
-0.505127	
-0.506836	
-0.506104	
-0.505493	
-0.503479	
-0.503174	
-0.500854	
-0.500244	
-0.499695	
-0.49762	
-0.496155	
-0.494385	
-0.493774	
-0.493225	
-0.492676	
-0.49115	
-0.490112	
-0.489563	
-0.487793	
-0.488953	
-0.488342	
-0.486694	
-0.485962	
-0.484619	
-0.485413	
-0.485046	
-0.485596	
-0.483459	
-0.48291	
-0.481262	
-0.480713	
-0.479553	
-0.476624	
-0.474854	
-0.472839	
-0.469238	
-0.467896	
-0.465576	
-0.463318	
-0.460022	
-0.458557	
-0.454224	
-0.453247	
-0.453064	
-0.450256	
-0.44928	
-0.448303	
-0.447876	
-0.447205	
-0.447693	
-0.445984	
-0.445557	
-0.44519	
-0.443176	
-0.443604	
-0.442749	
-0.440491	
-0.439148	
-0.436584	
-0.436157	
-0.434265	
-0.433411	
-0.430237	
-0.427429	
-0.422546	
-0.419739	
-0.415283	
-0.410767	
-0.405334	
-0.399475	
-0.3927	
-0.386841	
-0.380615	
-0.374329	
-0.366089	
-0.357849	
-0.349365	
-0.340271	
-0.332275	
-0.324768	
-0.316956	
-0.310242	
-0.302734	
-0.298706	
-0.294189	
-0.289856	
-0.287048	
-0.283875	
-0.280823	
-0.281433	
-0.281738	
-0.282104	
-0.282654	
-0.283997	
-0.28479	
-0.287781	
-0.29071	
-0.291443	
-0.293945	
-0.296753	
-0.300659	
-0.304504	
-0.307495	
-0.312256	
-0.315613	
-0.31842	
-0.323059	
-0.327393	
-0.331116	
-0.335022	
-0.338074	
-0.341003	
-0.345703	
-0.347229	
-0.350342	
-0.353088	
-0.354553	
-0.357849	
-0.359924	
-0.361816	
-0.363647	
-0.365784	
-0.36554	
-0.368347	
-0.369385	
-0.370972	
-0.371277	
-0.372498	
-0.373962	
-0.375549	
-0.376648	
-0.377258	
-0.378479	
-0.377991	
-0.3797	
-0.379517	
-0.379517	
-0.379944	
-0.380981	
-0.381287	
-0.381775	
-0.382263	
-0.382019	
-0.382141	
-0.382202	
-0.383301	
-0.382141	
-0.38208	
-0.38269	
-0.38269	
-0.383179	
-0.383728	
-0.383728	
-0.382996	
-0.382935	
-0.38269	
-0.382507	
-0.382874	
-0.380737	
-0.380859	
-0.37915	
-0.379639	
-0.379517	
-0.378784	
-0.378479	
-0.377686	
-0.376953	
-0.375916	
-0.37616	
-0.374817	
-0.373108	
-0.373535	
-0.371948	
-0.372437	
-0.372314	
-0.371765	
-0.37085	
-0.370544	
-0.370422	
-0.369873	
-0.369385	
-0.368591	
-0.369019	
-0.366699	
-0.368896	
-0.368958	
-0.369934	
-0.369995	
-0.369568	
-0.369873	
-0.369995	
-0.372131	
-0.370239	
-0.370728	
-0.371521	
-0.37207	
-0.372681	
-0.373108	
-0.374573	
-0.373779	
-0.37439	
-0.376221	
-0.375427	
-0.378113	
-0.376953	
-0.377991	
-0.378235	
-0.379822	
-0.380188	
-0.380188	
-0.381226	
-0.381042	
-0.382019	
-0.381958	
-0.383789	
-0.383667	
-0.382996	
-0.384033	
-0.38385	
-0.385864	
-0.385559	
-0.386841	
-0.38623	
-0.386353	
-0.387146	
-0.387695	
-0.388428	
-0.387512	
-0.388611	
-0.388489	
-0.388855	
-0.389038	
-0.389893	
-0.38916	
-0.388855	
-0.389648	
-0.390686	
-0.390137	
-0.390686	
-0.391296	
-0.390503	
-0.390869	
-0.392212	
-0.3927	
-0.392944	
-0.392151	
-0.392517	
-0.391541	
-0.393555	
-0.393066	
-0.392944	
-0.393188	
-0.391663	
-0.394287	
-0.393555	
-0.39447	
-0.393372	
-0.393188	
-0.393616	
-0.394043	
-0.394409	
-0.393799	
-0.394104	
-0.393799	
-0.394104	
-0.394287	
-0.394409	
-0.394653	
-0.394043	
-0.393921	
-0.392456	
-0.393982	
-0.392944	
-0.393433	
-0.393066	
-0.39325	
-0.393127	
-0.3927	
-0.393555	
-0.392639	
-0.393066	
-0.392578	
-0.392273	
-0.393494	
-0.393555	
-0.392883	
-0.392761	
-0.392639	
-0.392883	
-0.393127	
-0.393372	
-0.391296	
-0.392151	
-0.392395	
-0.392029	
-0.391541	
-0.392456	
-0.391785	
-0.391113	
-0.391602	
-0.392273	
-0.392822	
-0.392334	
-0.391785	
-0.392212	
-0.391785	
-0.392517	
-0.39209	
-0.392151	
-0.391357	
-0.391907	
-0.392639	
-0.392029	
-0.392822	
-0.391785	
-0.392639	
-0.391663	
-0.392273	
-0.391357	
-0.392151	
-0.391907	
-0.391846	
-0.391846	
-0.392639	
-0.393005	
-0.3927	
-0.393494	
-0.392639	
-0.391663	
-0.393188	
-0.393677	
-0.392822	
-0.392456	
-0.392883	
-0.39325	
-0.393982	
-0.394531	
-0.394226	
-0.395874	
-0.394897	
-0.396362	
-0.395996	
-0.395996	
-0.396301	
-0.396423	
-0.395813	
-0.396973	
-0.39801	
-0.397034	
-0.396362	
-0.397156	
-0.398376	
-0.397583	
-0.39856	
-0.397156	
-0.397644	
-0.397949	
-0.398621	
-0.398315	
-0.397034	
-0.396301	
-0.397705	
-0.398743	
-0.397888	
-0.398132	
-0.398926	
-0.39917	
-0.398804	
-0.399963	
-0.399719	
-0.400879	
-0.399963	
-0.400757	
-0.401367	
-0.400879	
-0.401367	
-0.400208	
-0.401733	
-0.401733	
-0.40155	
-0.4021	
-0.402588	
-0.402466	
-0.401489	
-0.403076	
-0.402771	
-0.402527	
-0.402832	
-0.402161	
-0.402466	
-0.402893	
-0.403381	
-0.403137	
-0.402771	
-0.402466	
-0.402771	
-0.402222	
-0.402588	
-0.4021	
-0.402039	
-0.4021	
-0.401733	
-0.401001	
-0.40155	
-0.402161	
-0.40094	
-0.401001	
-0.401794	
-0.40033	
-0.400696	
-0.400635	
-0.400391	
-0.400208	
-0.400085	
-0.400757	
-0.400391	
-0.400024	
-0.399414	
-0.399658	
-0.399963	
-0.399658	
-0.400024	
-0.398804	
-0.399475	
-0.398987	
-0.398987	
-0.399048	
-0.399048	
-0.398254	
-0.397705	
-0.39917	
-0.398132	
-0.398254	
-0.398193	
-0.396362	
-0.397827	
-0.398132	
-0.398376	
-0.398132	
-0.398499	
-0.397766	
-0.397949	
-0.398376	
-0.3974	
-0.397461	
-0.396545	
-0.396484	
-0.397034	
-0.397522	
-0.397278	
-0.397461	
-0.397949	
-0.396851	
-0.398621	
-0.397461	
-0.397644	
-0.397522	
-0.397095	
-0.397217	
-0.397522	
-0.397522	
-0.39801	
-0.398621	
-0.397766	
-0.397461	
-0.398193	
-0.397644	
-0.398438	
-0.398071	
-0.398743	
-0.399292	
-0.399353	
-0.400146	
-0.400269	
-0.400757	
-0.398926	
-0.401001	
-0.400696	
-0.40094	
-0.400574	
-0.401062	
-0.401062	
-0.401062	
-0.401855	
-0.401855	
-0.402405	
-0.401978	
-0.402405	
-0.402344	
-0.401672	
-0.401489	
-0.40271	
-0.400757	
-0.401672	
-0.402527	
-0.402222	
-0.401978	
-0.4021	
-0.401733	
-0.402771	
-0.402405	
-0.402954	
-0.402466	
-0.403381	
-0.403137	
-0.403259	
-0.403198	
-0.403503	
-0.404175	
-0.403931	
-0.404419	
-0.404907	
-0.405029	
-0.40509	
-0.405457	
-0.404846	
-0.40509	
-0.405518	
-0.405457	
-0.405273	
-0.405762	
-0.404419	
-0.406555	
-0.405701	
-0.405579	
-0.405396	
-0.406006	
-0.404419	
-0.405334	
-0.405396	
-0.405212	
-0.405396	
-0.405334	
-0.404663	
-0.404663	
-0.403503	
-0.404175	
-0.404236	
-0.403809	
-0.403381	
-0.403198	
-0.402588	
-0.403198	
-0.403687	
-0.402588	
-0.403381	
-0.402771	
-0.401733	
-0.401917	
-0.402893	
-0.401978	
-0.402161	
-0.401733	
-0.403259	
-0.401794	
-0.4021	
-0.401367	
-0.402405	
-0.401123	
-0.401184	
-0.400146	
-0.400146	
-0.400574	
-0.401184	
-0.399414	
-0.400818	
-0.401123	
-0.401245	
-0.400513	
-0.40033	
-0.399109	
-0.399353	
-0.400208	
-0.399475	
-0.399048	
-0.399536	
-0.399292	
-0.399353	
-0.399536	
-0.399475	
-0.399292	
-0.399109	
-0.398499	
-0.398865	
-0.399353	
-0.399109	
-0.399231	
-0.397888	
-0.399963	
-0.400269	
-0.400269	
-0.399048	
-0.398987	
-0.399475	
-0.398315	
-0.399231	
-0.399109	
-0.398254	
-0.399475	
-0.399658	
-0.39978	
-0.399231	
-0.399658	
-0.400635	
-0.400635	
-0.400391	
-0.401001	
-0.401489	
-0.401062	
-0.400085	
-0.40094	
-0.401917	
-0.402222	
-0.402527	
-0.402405	
-0.401794	
-0.4021	
-0.402039	
-0.401917	
-0.402649	
-0.40271	
-0.40271	
-0.403748	
-0.403748	
-0.404724	
-0.405396	
-0.405273	
-0.403381	
-0.40332	
-0.404663	
-0.404846	
-0.404663	
-0.403931	
-0.403198	
-0.404602	
-0.404785	
-0.404724	
-0.405334	
-0.40509	
-0.404907	
-0.406006	
-0.404297	
-0.405396	
-0.405579	
-0.405151	
-0.404663	
-0.40625	
-0.407227	
-0.40686	
-0.40741	
-0.405945	
-0.405701	
-0.406311	
-0.406616	
-0.40564	
-0.405884	
-0.405945	
-0.406189	
-0.406372	
-0.407288	
-0.406616	
-0.406921	
-0.405884	
-0.406311	
-0.405945	
-0.406006	
-0.405579	
-0.404541	
-0.404907	
-0.405518	
-0.405212	
-0.404236	
-0.405212	
-0.40448	
-0.40332	
-0.403748	
-0.402405	
-0.403137	
-0.402649	
-0.402161	
-0.402527	
-0.403076	
-0.403198	
-0.403137	
-0.404053	
-0.403015	
-0.403015	
-0.403931	
-0.403076	
-0.402527	
-0.402832	
-0.403442	
-0.403625	
-0.403137	
-0.403992	
-0.403625	
-0.403625	
-0.402405	
-0.402588	
-0.401672	
-0.402649	
-0.401733	
-0.400879	
-0.401001	
-0.401123	
-0.40094	
-0.400757	
-0.400391	
-0.400391	
-0.400208	
-0.400269	
-0.399048	
-0.399719	
-0.399414	
-0.398132	
-0.398193	
-0.39978	
-0.399902	
-0.399475	
-0.400085	
-0.400024	
-0.398376	
-0.40033	
-0.399658	
-0.399963	
-0.399475	
-0.399292	
-0.399719	
-0.399963	
-0.400818	
-0.400269	
-0.401794	
-0.400574	
-0.40033	
-0.401428	
-0.401001	
-0.40094	
-0.401062	
-0.401672	
-0.40155	
-0.401794	
-0.402405	
-0.402527	
-0.403137	
-0.402039	
-0.402649	
-0.402161	
-0.402588	
-0.403198	
-0.402588	
-0.402283	
-0.403931	
-0.404236	
-0.404419	
-0.405151	
-0.405212	
-0.403748	
-0.404602	
-0.405273	
-0.40564	
-0.405273	
-0.404602	
-0.406067	
-0.405762	
-0.406189	
-0.405579	
-0.407043	
-0.405518	
-0.405823	
-0.406006	
-0.405334	
-0.406189	
-0.405823	
-0.405273	
-0.405945	
-0.40625	
-0.407471	
-0.407349	
-0.408325	
-0.406921	
-0.406982	
-0.407776	
-0.406311	
-0.406982	
-0.406372	
-0.406128	
-0.406921	
-0.407104	
-0.407349	
-0.40686	
-0.40802	
-0.406555	
-0.406982	
-0.408081	
-0.406982	
-0.407288	
-0.407166	
-0.406921	
-0.407166	
-0.406982	
-0.406677	
-0.406372	
-0.406189	
-0.405457	
-0.405579	
-0.405212	
-0.405151	
-0.404602	
-0.403687	
-0.404907	
-0.404724	
-0.404541	
-0.404358	
-0.405212	
-0.403992	
-0.403198	
-0.404419	
-0.403381	
-0.404297	
-0.403687	
-0.401489	
-0.403748	
-0.403992	
-0.404602	
-0.404297	
-0.405457	
-0.403931	
-0.403687	
-0.404358	
-0.403992	
-0.403748	
-0.403198	
-0.402405	
-0.402893	
-0.402466	
-0.402588	
-0.403259	
-0.402771	
-0.402771	
-0.402527	
-0.402344	
-0.401794	
-0.402039	
-0.400146	
-0.401123	
-0.401245	
-0.401062	
-0.401489	
-0.402161	
-0.400696	
-0.401245	
-0.400757	
-0.400452	
-0.401367	
-0.400879	
-0.399597	
-0.400879	
-0.401184	
-0.401184	
-0.401978	
-0.402588	
-0.401184	
-0.400452	
-0.401428	
-0.401978	
-0.40094	
-0.401245	
-0.401855	
-0.402527	
-0.401917	
-0.402344	
-0.403015	
-0.403748	
-0.402893	
-0.4021	
-0.402588	
-0.403503	
-0.403198	
-0.403137	
-0.402893	
-0.404358	
-0.404602	
-0.405273	
-0.405579	
-0.404846	
-0.404724	
-0.403992	
-0.403625	
-0.405518	
-0.405151	
-0.405029	
-0.404602	
-0.405701	
-0.406128	
-0.407227	
-0.408081	
-0.406433	
-0.406006	
-0.406372	
-0.406067	
-0.406372	
-0.406311	
-0.406372	
-0.406677	
-0.407043	
-0.407654	
-0.408325	
-0.408508	
-0.407654	
-0.407104	
-0.407043	
-0.408936	
-0.407898	
-0.408081	
-0.407837	
-0.408203	
-0.408386	
-0.408325	
-0.408508	
-0.408142	
-0.40802	
-0.407471	
-0.406555	
-0.40918	
-0.408386	
-0.407837	
-0.407959	
-0.408142	
-0.407837	
-0.40863	
-0.409058	
-0.40802	
-0.407593	
-0.407593	
-0.407288	
-0.407837	
-0.406555	
-0.40509	
-0.405579	
-0.406067	
-0.406128	
-0.406799	
-0.406494	
-0.405457	
-0.405029	
-0.405396	
-0.404846	
-0.405212	
-0.405396	
-0.403625	
-0.403748	
-0.404846	
-0.40509	
-0.406067	
-0.406433	
-0.404541	
-0.404358	
-0.404419	
-0.404114	
-0.403503	
-0.40332	
-0.403076	
-0.403259	
-0.403381	
-0.403748	
-0.40387	
-0.404114	
-0.403137	
-0.4021	
-0.402893	
-0.403809	
-0.40271	
-0.4021	
-0.402222	
-0.402344	
-0.402222	
-0.402893	
-0.402771	
-0.402283	
-0.401672	
-0.401184	
-0.400391	
-0.402161	
-0.40155	
-0.401001	
-0.401123	
-0.401855	
-0.401978	
-0.403198	
-0.403198	
-0.401672	
-0.401672	
-0.401733	
-0.402344	
-0.401917	
-0.401794	
-0.401245	
-0.401245	
-0.401733	
-0.402161	
-0.402771	
-0.403503	
-0.402344	
-0.401855	
-0.402832	
-0.40448	
-0.403442	
-0.403931	
-0.403931	
-0.403625	
-0.404419	
-0.40509	
-0.405334	
-0.404785	
-0.404846	
-0.403992	
-0.404053	
-0.406067	
-0.405334	
-0.405029	
-0.404358	
-0.405334	
-0.40564	
-0.406006	
-0.406982	
-0.40448	
-0.404175	
-0.404236	
-0.405273	
-0.405762	
-0.404968	
-0.405701	
-0.404358	
-0.405579	
-0.40625	
-0.40686	
-0.407532	
-0.407104	
-0.406433	
-0.406372	
-0.407959	
-0.407654	
-0.407593	
-0.40741	
-0.40741	
-0.408203	
-0.408386	
-0.409241	
-0.40918	
-0.408569	
-0.407715	
-0.408081	
-0.4104	
-0.408813	
-0.408508	
-0.408264	
-0.408386	
-0.408142	
-0.409058	
-0.409363	
-0.408569	
-0.407837	
-0.408081	
-0.407104	
-0.409546	
-0.407837	
-0.407837	
-0.407288	
-0.40741	
-0.407043	
-0.407837	
-0.407227	
-0.406433	
-0.406189	
-0.404968	
-0.405334	
-0.406677	
-0.405945	
-0.406006	
-0.404114	
-0.404968	
-0.405457	
-0.406921	
-0.405945	
-0.404724	
-0.404358	
-0.404053	
-0.404968	
-0.404724	
-0.404907	
-0.404297	
-0.402649	
-0.40387	
-0.40387	
-0.404602	
-0.403381	
-0.403198	
-0.402832	
-0.402649	
-0.404358	
-0.403076	
-0.402405	
-0.4021	
-0.401489	
-0.402405	
-0.40271	
-0.402954	
-0.402893	
-0.4021	
-0.399841	
-0.401489	
-0.402649	
-0.40155	
-0.401367	
-0.401123	
-0.40094	
-0.401794	
-0.403259	
-0.402344	
-0.402039	
-0.401123	
-0.401306	
-0.401978	
-0.402954	
-0.401855	
-0.401489	
-0.401611	
-0.401184	
-0.401917	
-0.40332	
-0.401855	
-0.401733	
-0.401733	
-0.402161	
-0.401917	
-0.403931	
-0.402832	
-0.403564	
-0.402893	
-0.403442	
-0.404297	
-0.404297	
-0.404724	
-0.404175	
-0.402405	
-0.40448	
-0.403931	
-0.405762	
-0.404846	
-0.404846	
-0.404724	
-0.406128	
-0.406006	
-0.405334	
-0.406189	
-0.405457	
-0.403198	
-0.405701	
-0.406189	
-0.405518	
-0.404846	
-0.404785	
-0.403381	
-0.406006	
-0.406982	
-0.406128	
-0.406738	
-0.40625	
-0.405579	
-0.40625	
-0.407349	
-0.406067	
-0.406738	
-0.406677	
-0.40625	
-0.407959	
-0.409058	
-0.407837	
-0.408203	
-0.407349	
-0.408325	
-0.408386	
-0.410217	
-0.408264	
-0.408691	
-0.408569	
-0.408875	
-0.408752	
-0.409424	
-0.409058	
-0.408325	
-0.407959	
-0.408142	
-0.407898	
-0.409424	
-0.408569	
-0.408325	
-0.40741	
-0.408203	
-0.408508	
-0.407837	
-0.407837	
-0.407288	
-0.406128	
-0.406982	
-0.406921	
-0.407227	
-0.40625	
-0.405945	
-0.405396	
-0.406189	
-0.406494	
-0.405884	
-0.40625	
-0.404907	
-0.402893	
-0.404907	
-0.405762	
-0.405762	
-0.405029	
-0.405029	
-0.404785	
-0.405151	
-0.406006	
-0.404846	
-0.404846	
-0.403687	
-0.402832	
-0.403564	
-0.404114	
-0.404297	
-0.403687	
-0.402466	
-0.40332	
-0.403503	
-0.404297	
-0.40332	
-0.403381	
-0.401611	
-0.402161	
-0.402344	
-0.402405	
-0.401978	
-0.401794	
-0.40094	
-0.401245	
-0.401917	
-0.402588	
-0.402161	
-0.401367	
-0.400879	
-0.401672	
-0.402222	
-0.401855	
-0.402161	
-0.401733	
-0.401489	
-0.401245	
-0.40271	
-0.402527	
-0.402222	
-0.401489	
-0.40155	
-0.402039	
-0.401917	
-0.402344	
-0.402039	
-0.401489	
-0.402161	
-0.402039	
-0.404785	
-0.404236	
-0.404602	
-0.40332	
-0.404114	
-0.40448	
-0.404785	
-0.404907	
-0.404846	
-0.404358	
-0.405396	
-0.404419	
-0.405701	
-0.405212	
-0.405518	
-0.40509	
-0.404663	
-0.405212	
-0.406189	
-0.406982	
-0.405701	
-0.406006	
-0.406921	
-0.407227	
-0.407349	
-0.407043	
-0.406799	
-0.405762	
-0.405396	
-0.406738	
-0.406982	
-0.407471	
-0.407166	
-0.406433	
-0.407471	
-0.407471	
-0.407898	
-0.408203	
-0.406982	
-0.406738	
-0.407349	
-0.408752	
-0.408142	
-0.408325	
-0.408508	
-0.40863	
-0.408264	
-0.409668	
-0.409607	
-0.40918	
-0.408508	
-0.408203	
-0.408386	
-0.408691	
-0.408691	
-0.40863	
-0.408936	
-0.408142	
-0.40741	
-0.408752	
-0.409973	
-0.409668	
-0.408508	
-0.407837	
-0.408081	
-0.408447	
-0.407593	
-0.40741	
-0.407227	
-0.406677	
-0.405823	
-0.407227	
-0.406555	
-0.406311	
-0.404968	
-0.40448	
-0.405396	
-0.405579	
-0.406006	
-0.405334	
-0.404541	
-0.405457	
-0.405579	
-0.405762	
-0.40564	
-0.40625	
-0.40448	
-0.405334	
-0.406189	
-0.406067	
-0.407227	
-0.405579	
-0.404419	
-0.404968	
-0.405762	
-0.405029	
-0.405396	
-0.40448	
-0.402771	
-0.402649	
-0.403992	
-0.404114	
-0.403564	
-0.402588	
-0.403015	
-0.401917	
-0.403503	
-0.402893	
-0.403015	
-0.401978	
-0.401428	
-0.401306	
-0.401611	
-0.402466	
-0.401611	
-0.401672	
-0.401672	
-0.401184	
-0.40271	
-0.40271	
-0.403198	
-0.401855	
-0.401672	
-0.402283	
-0.403015	
-0.402771	
-0.402405	
-0.402161	
-0.402466	
-0.402588	
-0.403687	
-0.404358	
-0.404175	
-0.402893	
-0.403687	
-0.404053	
-0.404236	
-0.405212	
-0.404663	
-0.403503	
-0.404968	
-0.405334	
-0.405029	
-0.406555	
-0.405823	
-0.404358	
-0.405457	
-0.405518	
-0.406311	
-0.406921	
-0.406494	
-0.40509	
-0.406494	
-0.406677	
-0.407104	
-0.408325	
-0.407227	
-0.406982	
-0.407654	
-0.408264	
-0.407959	
-0.407959	
-0.407837	
-0.408081	
-0.407715	
-0.408569	
-0.408386	
-0.408691	
-0.408203	
-0.408508	
-0.407959	
-0.40863	
-0.408997	
-0.409058	
-0.409424	
-0.409119	
-0.408752	
-0.410156	
-0.410095	
-0.409607	
-0.408752	
-0.409363	
-0.408691	
-0.409302	
-0.409241	
-0.409302	
-0.408508	
-0.409058	
-0.408752	
-0.40979	
-0.40979	
-0.409668	
-0.408508	
-0.408875	
-0.409119	
-0.409119	
-0.409424	
-0.408813	
-0.407776	
-0.408386	
-0.408081	
-0.407898	
-0.408691	
-0.407654	
-0.406799	
-0.406555	
-0.406433	
-0.406921	
-0.406799	
-0.406189	
-0.405701	
-0.405334	
-0.405457	
-0.406372	
-0.40802	
-0.405762	
-0.406067	
-0.406067	
-0.40686	
-0.406372	
-0.406921	
-0.405701	
-0.405212	
-0.406799	
-0.406921	
-0.406311	
-0.406799	
-0.405273	
-0.405029	
-0.404785	
-0.405151	
-0.405212	
-0.405334	
-0.405273	
-0.403748	
-0.404846	
-0.404968	
-0.404236	
-0.404419	
-0.403503	
-0.40332	
-0.401367	
-0.403931	
-0.403381	
-0.402588	
-0.402771	
-0.403015	
-0.401978	
-0.402649	
-0.403687	
-0.403198	
-0.401245	
-0.402283	
-0.402161	
-0.403687	
-0.402649	
-0.402588	
-0.402832	
-0.403076	
-0.402344	
-0.40332	
-0.404236	
-0.403198	
-0.4021	
-0.403748	
-0.403259	
-0.40448	
-0.404541	
-0.404297	
-0.404053	
-0.404846	
-0.405762	
-0.405396	
-0.406982	
-0.405396	
-0.405762	
-0.405334	
-0.406189	
-0.406738	
-0.407043	
-0.406616	
-0.405945	
-0.406799	
-0.407776	
-0.407104	
-0.408569	
-0.407104	
-0.407227	
-0.40686	
-0.408142	
-0.408081	
-0.408997	
-0.408264	
-0.406677	
-0.408142	
-0.408508	
-0.408508	
-0.408203	
-0.407776	
-0.408325	
-0.407532	
-0.410339	
-0.409241	
-0.408936	
-0.409363	
-0.409302	
-0.409119	
-0.409729	
-0.410583	
-0.409485	
-0.408997	
-0.409851	
-0.409912	
-0.41095	
-0.410217	
-0.410156	
-0.409668	
-0.410095	
-0.410278	
-0.409912	
-0.410828	
-0.410156	
-0.408997	
-0.40979	
-0.408875	
-0.410095	
-0.410522	
-0.410217	
-0.409546	
-0.409912	
-0.408813	
-0.40918	
-0.410034	
-0.408386	
-0.407471	
-0.407166	
-0.407104	
-0.407776	
-0.407471	
-0.407166	
-0.404968	
-0.405518	
-0.407104	
-0.406616	
-0.408569	
-0.406555	
-0.406555	
-0.405701	
-0.405701	
-0.405884	
-0.407715	
-0.406372	
-0.406311	
-0.405518	
-0.404785	
-0.404785	
-0.406189	
-0.404907	
-0.405396	
-0.403381	
-0.405151	
-0.405396	
-0.405273	
-0.404602	
-0.404724	
-0.404297	
-0.402649	
-0.404358	
-0.405457	
-0.403442	
-0.404358	
-0.403687	
-0.404785	
-0.404236	
-0.404297	
-0.403687	
-0.403503	
-0.40332	
-0.40332	
-0.403503	
-0.403076	
-0.403137	
-0.402954	
-0.401367	
-0.404053	
-0.403992	
-0.40448	
-0.40332	
-0.403015	
-0.403748	
-0.403931	
-0.404602	
-0.403259	
-0.402588	
-0.403503	
-0.4021	
-0.404541	
-0.404297	
-0.405151	
-0.404663	
-0.404846	
-0.40564	
-0.405457	
-0.406433	
-0.40564	
-0.405212	
-0.405884	
-0.405762	
-0.406738	
-0.406982	
-0.406738	
-0.405762	
-0.40741	
-0.406738	
-0.407471	
-0.408875	
-0.407227	
-0.407043	
-0.406555	
-0.407104	
-0.406921	
-0.40741	
-0.406067	
-0.405334	
-0.406738	
-0.406006	
-0.406677	
-0.408997	
-0.406799	
-0.407532	
-0.407166	
-0.409119	
-0.40802	
-0.408936	
-0.407715	
-0.408325	
-0.408752	
-0.409058	
-0.409912	
-0.410461	
	
