E:\DOCUMENTS AND SETTINGS\JPOTAS\MEUS DOCUMENTOS\UFRJ\RSCI-BM 12 WK SERIES\070719-RSCI-BM-02\RSCI-BM-02-LEMG\070719-RSCI-BM-02-LEMG-0001.ACQ
0.025000 msec/sample
1 channel
Analog input
Volts
CH1	
2000	
-0.394104	
-0.393616	
-0.394104	
-0.394104	
-0.39447	
-0.393738	
-0.393738	
-0.39447	
-0.393616	
-0.39447	
-0.394897	
-0.394592	
-0.394775	
-0.395081	
-0.394531	
-0.394104	
-0.395569	
-0.394958	
-0.393799	
-0.394897	
-0.395142	
-0.394775	
-0.395264	
-0.394592	
-0.393799	
-0.393616	
-0.393616	
-0.392273	
-0.393066	
-0.390381	
-0.391541	
-0.391418	
-0.391541	
-0.391235	
-0.392334	
-0.391968	
-0.39093	
-0.391235	
-0.391479	
-0.390625	
-0.39093	
-0.39032	
-0.390259	
-0.389404	
-0.390198	
-0.390137	
-0.390869	
-0.390503	
-0.39032	
-0.391113	
-0.390808	
-0.390869	
-0.390381	
-0.390259	
-0.390991	
-0.390076	
-0.391113	
-0.392029	
-0.392273	
-0.392151	
-0.3927	
-0.392273	
-0.3927	
-0.394775	
-0.393982	
-0.394104	
-0.395264	
-0.395569	
-0.395874	
-0.396362	
-0.396667	
-0.396118	
-0.396912	
-0.396423	
-0.396973	
-0.39801	
-0.396423	
-0.396118	
-0.3974	
-0.398071	
-0.397949	
-0.398743	
-0.398254	
-0.397461	
-0.397644	
-0.397156	
-0.3974	
-0.396729	
-0.396973	
-0.396057	
-0.395569	
-0.396423	
-0.396179	
-0.396362	
-0.396362	
-0.395203	
-0.395935	
-0.39563	
-0.395142	
-0.394104	
-0.393921	
-0.393372	
-0.393372	
-0.39325	
-0.393372	
-0.393005	
-0.392639	
-0.392517	
-0.391602	
-0.392578	
-0.392883	
-0.391296	
-0.391785	
-0.391907	
-0.391602	
-0.391602	
-0.3927	
-0.39209	
-0.392334	
-0.392456	
-0.392212	
-0.392395	
-0.392212	
-0.390686	
-0.391541	
-0.39093	
-0.391968	
-0.392578	
-0.393677	
-0.393616	
-0.392578	
-0.392883	
-0.392761	
-0.393372	
-0.392639	
-0.3927	
-0.391479	
-0.392517	
-0.392578	
-0.393127	
-0.39325	
-0.392578	
-0.392639	
-0.392212	
-0.392761	
-0.3927	
-0.391968	
-0.391724	
-0.391541	
-0.392456	
-0.392456	
-0.392822	
-0.392639	
-0.392334	
-0.392273	
-0.392639	
-0.393066	
-0.392212	
-0.392273	
-0.392029	
-0.391418	
-0.392273	
-0.3927	
-0.393555	
-0.393494	
-0.392944	
-0.392761	
-0.392944	
-0.393921	
-0.393066	
-0.392151	
-0.392517	
-0.3927	
-0.392944	
-0.393127	
-0.393188	
-0.392761	
-0.392883	
-0.392639	
-0.391968	
-0.393494	
-0.391907	
-0.391418	
-0.391296	
-0.391846	
-0.391541	
-0.392029	
-0.391663	
-0.39093	
-0.391296	
-0.391663	
-0.390869	
-0.39209	
-0.391663	
-0.391479	
-0.389832	
-0.391418	
-0.37085	
-0.372253	
-0.375305	
-0.375671	
-0.376282	
-0.376465	
-0.401245	
-0.397095	
-0.393677	
-0.393799	
-0.392944	
-0.394226	
-0.394897	
-0.395691	
-0.395081	
-0.395325	
-0.395386	
-0.395813	
-0.396484	
-0.396484	
-0.395874	
-0.39679	
-0.395447	
-0.397217	
-0.397339	
-0.398193	
-0.3974	
-0.397583	
-0.396484	
-0.397278	
-0.397888	
-0.397278	
-0.395874	
-0.397217	
-0.395752	
-0.398254	
-0.398621	
-0.398376	
-0.397766	
-0.397461	
-0.398315	
-0.398254	
-0.39917	
-0.397888	
-0.397644	
-0.397949	
-0.398193	
-0.398865	
-0.399414	
-0.398193	
-0.397522	
-0.396667	
-0.395752	
-0.395569	
-0.395813	
-0.39325	
-0.393127	
-0.392456	
-0.391968	
-0.391479	
-0.392212	
-0.392517	
-0.393616	
-0.394836	
-0.397339	
-0.401062	
-0.403992	
-0.406067	
-0.410217	
-0.411743	
-0.415527	
-0.419617	
-0.422119	
-0.424072	
-0.426575	
-0.427917	
-0.429993	
-0.433289	
-0.434204	
-0.437683	
-0.440002	
-0.443115	
-0.445618	
-0.44812	
-0.448608	
-0.450073	
-0.451599	
-0.453918	
-0.456543	
-0.457153	
-0.459106	
-0.460632	
-0.462585	
-0.465393	
-0.468018	
-0.468689	
-0.47113	
-0.473328	
-0.475525	
-0.479065	
-0.481934	
-0.483154	
-0.486694	
-0.488159	
-0.49176	
-0.494568	
-0.498108	
-0.499634	
-0.502136	
-0.503479	
-0.505432	
-0.507629	
-0.506348	
-0.506592	
-0.505798	
-0.50531	
-0.50415	
-0.502991	
-0.499084	
-0.495544	
-0.492493	
-0.487427	
-0.483826	
-0.479309	
-0.472168	
-0.46759	
-0.461426	
-0.457458	
-0.453308	
-0.450012	
-0.44519	
-0.442505	
-0.438965	
-0.436523	
-0.433716	
-0.431091	
-0.42804	
-0.424622	
-0.419861	
-0.417847	
-0.414185	
-0.409607	
-0.404602	
-0.398865	
-0.391479	
-0.386292	
-0.38031	
-0.371094	
-0.364075	
-0.355042	
-0.345398	
-0.337524	
-0.328491	
-0.31781	
-0.307922	
-0.299255	
-0.288269	
-0.281189	
-0.273132	
-0.263733	
-0.256165	
-0.249329	
-0.243408	
-0.238953	
-0.235901	
-0.231201	
-0.22876	
-0.228394	
-0.227661	
-0.228699	
-0.229614	
-0.230713	
-0.233093	
-0.236328	
-0.239929	
-0.244873	
-0.247986	
-0.25293	
-0.257202	
-0.262573	
-0.268738	
-0.273376	
-0.278198	
-0.283264	
-0.287842	
-0.292969	
-0.298279	
-0.301086	
-0.305298	
-0.308533	
-0.312805	
-0.317261	
-0.31958	
-0.322998	
-0.325073	
-0.327026	
-0.330688	
-0.333496	
-0.334961	
-0.337158	
-0.338318	
-0.340393	
-0.342102	
-0.343018	
-0.343811	
-0.344604	
-0.345337	
-0.347412	
-0.34906	
-0.348999	
-0.350525	
-0.351929	
-0.353882	
-0.355042	
-0.357117	
-0.357239	
-0.359375	
-0.360229	
-0.362793	
-0.365234	
-0.36554	
-0.367188	
-0.368713	
-0.3703	
-0.371887	
-0.373535	
-0.374268	
-0.375793	
-0.376831	
-0.378174	
-0.380371	
-0.379944	
-0.380859	
-0.381775	
-0.381836	
-0.382996	
-0.383606	
-0.383423	
-0.383972	
-0.383057	
-0.383972	
-0.385925	
-0.38562	
-0.38562	
-0.38623	
-0.385437	
-0.38678	
-0.387695	
-0.387451	
-0.38739	
-0.386841	
-0.387207	
-0.387146	
-0.387634	
-0.386597	
-0.386108	
-0.385132	
-0.385681	
-0.385498	
-0.384949	
-0.384766	
-0.384827	
-0.384949	
-0.384521	
-0.38562	
-0.385742	
-0.385559	
-0.385864	
-0.38501	
-0.38678	
-0.387024	
-0.387817	
-0.387634	
-0.387512	
-0.388672	
-0.389526	
-0.389832	
-0.389709	
-0.390076	
-0.389282	
-0.390808	
-0.389771	
-0.391418	
-0.390686	
-0.389954	
-0.390259	
-0.390076	
-0.389709	
-0.389343	
-0.388916	
-0.388611	
-0.388977	
-0.388	
-0.388062	
-0.387268	
-0.387146	
-0.386475	
-0.38739	
-0.386658	
-0.386414	
-0.385681	
-0.385803	
-0.385803	
-0.385376	
-0.385803	
-0.385132	
-0.385498	
-0.384338	
-0.386841	
-0.385498	
-0.385559	
-0.385376	
-0.386047	
-0.38562	
-0.386414	
-0.386902	
-0.386963	
-0.387634	
-0.386841	
-0.388123	
-0.387634	
-0.387756	
-0.387573	
-0.388	
-0.388062	
-0.388	
-0.388062	
-0.38739	
-0.388611	
-0.386719	
-0.38739	
-0.387634	
-0.386963	
-0.385803	
-0.38678	
-0.387085	
-0.387268	
-0.388306	
-0.387268	
-0.387329	
-0.386902	
-0.386963	
-0.386414	
-0.385498	
-0.384583	
-0.384705	
-0.382996	
-0.384277	
-0.38385	
-0.383118	
-0.382446	
-0.382385	
-0.382507	
-0.382202	
-0.381836	
-0.381836	
-0.381836	
-0.381592	
-0.382263	
-0.381897	
-0.382751	
-0.382019	
-0.383179	
-0.38269	
-0.382507	
-0.382813	
-0.382935	
-0.382935	
-0.382935	
-0.382263	
-0.38385	
-0.383362	
-0.383667	
-0.382996	
-0.383606	
-0.382751	
-0.384705	
-0.384033	
-0.383301	
-0.38446	
-0.384216	
-0.385437	
-0.384399	
-0.385803	
-0.384766	
-0.386047	
-0.386292	
-0.386169	
-0.386536	
-0.387329	
-0.387268	
-0.388062	
-0.388855	
-0.389709	
-0.390015	
-0.390137	
-0.390015	
-0.390869	
-0.390808	
-0.391663	
-0.39093	
-0.391174	
-0.392578	
-0.393311	
-0.393127	
-0.393311	
-0.393311	
-0.392822	
-0.394592	
-0.393066	
-0.393127	
-0.392151	
-0.392822	
-0.392761	
-0.39209	
-0.392883	
-0.393066	
-0.39325	
-0.392944	
-0.39325	
-0.392456	
-0.392395	
-0.392334	
-0.392212	
-0.393005	
-0.392639	
-0.393188	
-0.392761	
-0.393738	
-0.392822	
-0.393372	
-0.393005	
-0.392395	
-0.39209	
-0.392212	
-0.392334	
-0.391968	
-0.392822	
-0.391296	
-0.393188	
-0.391235	
-0.39209	
-0.392456	
-0.391663	
-0.391418	
-0.391541	
-0.393005	
-0.392517	
-0.393005	
-0.3927	
-0.393982	
-0.39325	
-0.392944	
-0.393555	
-0.393005	
-0.393066	
-0.391846	
-0.39386	
-0.393433	
-0.393982	
-0.394043	
-0.394287	
-0.393982	
-0.392822	
-0.39502	
-0.394165	
-0.39447	
-0.394226	
-0.39502	
-0.395264	
-0.395142	
-0.396362	
-0.39447	
-0.395996	
-0.395691	
-0.39679	
-0.395569	
-0.39624	
-0.396484	
-0.395508	
-0.397583	
-0.396912	
-0.397461	
-0.396851	
-0.398132	
-0.397278	
-0.397339	
-0.398499	
-0.397461	
-0.397156	
-0.396179	
-0.397888	
-0.396973	
-0.396729	
-0.396301	
-0.395752	
-0.394653	
-0.393616	
-0.395447	
-0.392944	
-0.39386	
-0.393616	
-0.393677	
-0.393372	
-0.393555	
-0.394104	
-0.391907	
-0.39386	
-0.393066	
-0.393127	
-0.393494	
-0.393005	
-0.3927	
-0.391296	
-0.393982	
-0.393188	
-0.392761	
-0.392639	
-0.392578	
-0.392334	
-0.391785	
-0.393799	
-0.392029	
-0.393127	
-0.39325	
-0.393311	
-0.393738	
-0.39447	
-0.395874	
-0.394775	
-0.396423	
-0.396057	
-0.397156	
-0.397278	
-0.396973	
-0.397522	
-0.396301	
-0.398926	
-0.398804	
-0.399414	
-0.398926	
-0.399658	
-0.400024	
-0.399902	
-0.401367	
-0.399231	
-0.400452	
-0.400208	
-0.400391	
-0.400024	
-0.400452	
-0.40033	
-0.39917	
-0.400635	
-0.399353	
-0.40033	
-0.399719	
-0.399048	
-0.399048	
-0.397339	
-0.399658	
-0.39917	
-0.400024	
-0.398804	
-0.398743	
-0.397766	
-0.397949	
-0.399231	
-0.396423	
-0.39679	
-0.395569	
-0.396423	
-0.396057	
-0.396179	
-0.395325	
-0.394226	
-0.395874	
-0.39502	
-0.39563	
-0.394592	
-0.395142	
-0.394531	
-0.39386	
-0.395569	
-0.394897	
-0.394531	
-0.394165	
-0.394531	
-0.393738	
-0.394836	
-0.395996	
-0.394531	
-0.395508	
-0.394348	
-0.395569	
-0.39563	
-0.396362	
-0.395813	
-0.394653	
-0.396118	
-0.39624	
-0.396729	
-0.395691	
-0.395691	
-0.395996	
-0.39563	
-0.397339	
-0.397034	
-0.395874	
-0.395691	
-0.39624	
-0.396118	
-0.396057	
-0.396301	
-0.394531	
-0.395569	
-0.394592	
-0.395874	
-0.396118	
-0.395813	
-0.395203	
-0.394714	
-0.395508	
-0.39563	
-0.396912	
-0.395813	
-0.395325	
-0.395935	
-0.395325	
-0.396484	
-0.397034	
-0.396301	
-0.396301	
-0.395752	
-0.397461	
-0.396912	
-0.396973	
-0.396179	
-0.396362	
-0.395447	
-0.39679	
-0.397278	
-0.396667	
-0.397095	
-0.396118	
-0.395325	
-0.396667	
-0.397217	
-0.396851	
-0.395142	
-0.395874	
-0.395874	
-0.396057	
-0.396362	
-0.395264	
-0.394775	
-0.394409	
-0.396057	
-0.395325	
-0.395508	
-0.395081	
-0.395142	
-0.39502	
-0.394348	
-0.396484	
-0.395142	
-0.395203	
-0.394714	
-0.394348	
-0.394958	
-0.395203	
-0.395325	
-0.393799	
-0.394409	
-0.395142	
-0.396057	
-0.39679	
-0.396912	
-0.396912	
-0.396667	
-0.398743	
-0.398438	
-0.398682	
-0.399353	
-0.39917	
-0.398743	
-0.399536	
-0.400879	
-0.400269	
-0.399902	
-0.399902	
-0.40033	
-0.400818	
-0.401245	
-0.401062	
-0.400208	
-0.400818	
-0.400696	
-0.400635	
-0.402039	
-0.401306	
-0.400635	
-0.400391	
-0.401917	
-0.401245	
-0.401428	
-0.401245	
-0.401062	
-0.40033	
-0.400696	
-0.401428	
-0.401062	
-0.400757	
-0.400208	
-0.400391	
-0.401794	
-0.401672	
-0.401184	
-0.400879	
-0.400574	
-0.400635	
-0.400635	
-0.401245	
-0.399719	
-0.399109	
-0.39856	
-0.399536	
-0.398682	
-0.399048	
-0.398193	
-0.39801	
-0.3974	
-0.398254	
-0.39801	
-0.397949	
-0.397827	
-0.396851	
-0.395996	
-0.398071	
-0.397705	
-0.397522	
-0.397766	
-0.3974	
-0.39679	
-0.397888	
-0.398315	
-0.398071	
-0.398376	
-0.397339	
-0.398804	
-0.398682	
-0.399719	
-0.398132	
-0.398132	
-0.39856	
-0.398621	
-0.399414	
-0.398804	
-0.398804	
-0.398621	
-0.397705	
-0.399719	
-0.399292	
-0.399048	
-0.399231	
-0.399048	
-0.398254	
-0.400024	
-0.400635	
-0.399719	
-0.399536	
-0.39856	
-0.400208	
-0.400574	
-0.400757	
-0.400574	
-0.400757	
-0.399963	
-0.40033	
-0.400818	
-0.400391	
-0.400208	
-0.399658	
-0.398926	
-0.400146	
-0.400452	
-0.401062	
-0.399963	
-0.399963	
-0.39978	
-0.400024	
-0.400635	
-0.399658	
-0.399536	
-0.398804	
-0.399353	
-0.399536	
-0.399231	
-0.398926	
-0.398499	
-0.398254	
-0.397522	
-0.39917	
-0.397644	
-0.397888	
-0.397766	
-0.395508	
-0.398743	
-0.397949	
-0.398743	
-0.398132	
-0.397766	
-0.397888	
-0.397766	
-0.399597	
-0.398193	
-0.39801	
-0.397461	
-0.397827	
-0.398987	
-0.398071	
-0.398254	
-0.39801	
-0.398132	
-0.397522	
-0.398438	
-0.397766	
-0.398865	
-0.398865	
-0.397156	
-0.399719	
-0.400024	
-0.400208	
-0.400146	
-0.400146	
-0.399902	
-0.399902	
-0.401428	
-0.400085	
-0.400208	
-0.399658	
-0.399902	
-0.400269	
-0.400574	
-0.40155	
-0.400024	
-0.400818	
-0.400574	
-0.40094	
-0.401794	
-0.400879	
-0.401001	
-0.399902	
-0.400879	
-0.402222	
-0.401611	
-0.401245	
-0.401062	
-0.401123	
-0.399719	
-0.401184	
-0.399292	
-0.399536	
-0.399109	
-0.39856	
-0.398682	
-0.397766	
-0.398438	
-0.397705	
-0.396606	
-0.396851	
-0.396729	
-0.397156	
-0.395325	
-0.395264	
-0.394226	
-0.394592	
-0.39502	
-0.394104	
-0.394104	
-0.393677	
-0.394409	
-0.392578	
-0.394531	
-0.393921	
-0.394043	
-0.39386	
-0.393005	
-0.394348	
-0.394836	
-0.395935	
-0.396179	
-0.395691	
-0.396118	
-0.396362	
-0.398193	
-0.396057	
-0.397156	
-0.396973	
-0.397034	
-0.398376	
-0.397888	
-0.398743	
-0.398193	
-0.398682	
-0.398132	
-0.398682	
-0.399048	
-0.398071	
-0.398193	
-0.397644	
-0.399109	
-0.399414	
-0.398804	
-0.398804	
-0.398865	
-0.399841	
-0.398315	
-0.400452	
-0.399292	
-0.399536	
-0.399536	
-0.399231	
-0.400452	
-0.400024	
-0.40033	
-0.398987	
-0.399109	
-0.399597	
-0.399414	
-0.399475	
-0.398315	
-0.399109	
-0.397705	
-0.398865	
-0.399841	
-0.399231	
-0.399414	
-0.398499	
-0.399292	
-0.398132	
-0.399658	
-0.39917	
-0.398254	
-0.399109	
-0.399353	
-0.399963	
-0.39978	
-0.399597	
-0.399231	
-0.398804	
-0.400146	
-0.399475	
-0.399414	
-0.39917	
-0.399597	
-0.398376	
-0.398682	
-0.400085	
-0.399353	
-0.399841	
-0.398926	
-0.399353	
-0.399475	
-0.399475	
-0.399719	
-0.39801	
-0.398071	
-0.398682	
-0.398743	
-0.399597	
-0.398987	
-0.398743	
-0.398193	
-0.399048	
-0.398071	
-0.398804	
-0.398743	
-0.398254	
-0.397522	
-0.398132	
-0.399048	
-0.398743	
-0.399109	
-0.398987	
-0.398621	
-0.400085	
-0.40033	
-0.400146	
-0.399719	
-0.39978	
-0.39978	
-0.399292	
-0.401062	
-0.399902	
-0.400818	
-0.400024	
-0.400208	
-0.399353	
-0.400024	
-0.401062	
-0.399292	
-0.39978	
-0.400146	
-0.400635	
-0.401001	
-0.400452	
-0.399902	
-0.399414	
-0.400146	
-0.398132	
-0.397888	
-0.397705	
-0.396606	
-0.396423	
-0.395813	
-0.396057	
-0.395691	
-0.39624	
-0.395142	
-0.393982	
-0.394836	
-0.395142	
-0.394775	
-0.393738	
-0.393616	
-0.394226	
-0.393555	
-0.394775	
-0.393921	
-0.394348	
-0.393799	
-0.394165	
-0.393799	
-0.394287	
-0.394043	
-0.394043	
-0.39386	
-0.393677	
-0.393127	
-0.394653	
-0.394409	
-0.393738	
-0.393555	
-0.394348	
-0.393799	
-0.39386	
-0.394165	
-0.393494	
-0.393311	
-0.393616	
-0.39386	
-0.39386	
-0.394531	
-0.394043	
-0.394043	
-0.395081	
-0.395569	
-0.395874	
-0.396667	
-0.395081	
-0.396667	
-0.396118	
-0.397522	
-0.397034	
-0.3974	
-0.39679	
-0.397888	
-0.397705	
-0.397339	
-0.397705	
-0.397949	
-0.397888	
-0.397461	
-0.396545	
-0.397827	
-0.397461	
-0.396851	
-0.396484	
-0.396179	
-0.396729	
-0.396118	
-0.39563	
-0.395386	
-0.395752	
-0.395508	
-0.395996	
-0.395569	
-0.396484	
-0.395508	
-0.395325	
-0.395447	
-0.395203	
-0.39502	
-0.395264	
-0.394104	
-0.394714	
-0.394226	
-0.396179	
-0.395203	
-0.394714	
-0.394104	
-0.394592	
-0.394104	
-0.394409	
-0.39325	
-0.393616	
-0.393738	
-0.393616	
-0.393433	
-0.393921	
-0.394531	
-0.394043	
-0.393616	
-0.394043	
-0.395569	
-0.394592	
-0.395325	
-0.394226	
-0.394714	
-0.394348	
-0.394592	
-0.394287	
-0.39447	
-0.394714	
-0.394653	
-0.394104	
-0.394897	
-0.395081	
-0.394897	
-0.394348	
-0.395508	
-0.394287	
-0.396301	
-0.396301	
-0.39563	
-0.395813	
-0.395996	
-0.397339	
-0.396484	
-0.395569	
-0.396423	
-0.396606	
-0.396118	
-0.396729	
-0.397644	
-0.397339	
-0.397034	
-0.397339	
-0.396973	
-0.397278	
-0.397766	
-0.398132	
-0.396729	
-0.397339	
-0.397034	
-0.397644	
-0.397339	
-0.396912	
-0.39679	
-0.395691	
-0.395386	
-0.395203	
-0.394409	
-0.394592	
-0.393677	
-0.393616	
-0.393127	
-0.394043	
-0.394348	
-0.393311	
-0.39325	
-0.392517	
-0.394043	
-0.3927	
-0.3927	
-0.392456	
-0.392456	
-0.392395	
-0.391418	
-0.393616	
-0.392517	
-0.392639	
-0.392334	
-0.391235	
-0.3927	
-0.39209	
-0.392883	
-0.392029	
-0.392578	
-0.3927	
-0.393005	
-0.393677	
-0.393005	
-0.393555	
-0.394226	
-0.394165	
-0.394836	
-0.395325	
-0.396667	
-0.396362	
-0.39624	
-0.395996	
-0.397339	
-0.397949	
-0.397705	
-0.397644	
-0.397217	
-0.398621	
-0.398682	
-0.39801	
-0.398987	
-0.399231	
-0.399475	
-0.398865	
-0.400513	
-0.39978	
-0.398926	
-0.399231	
-0.398804	
-0.398987	
-0.398804	
-0.399048	
-0.398621	
-0.39856	
-0.397888	
-0.39801	
-0.39856	
-0.397705	
-0.397522	
-0.396851	
-0.396912	
-0.397339	
-0.39679	
-0.397217	
-0.395935	
-0.395325	
-0.395081	
-0.395935	
-0.395508	
-0.394653	
-0.395142	
-0.394348	
-0.393921	
-0.393555	
-0.3927	
-0.393494	
-0.393616	
-0.393616	
-0.393188	
-0.393921	
-0.394226	
-0.393066	
-0.393555	
-0.394226	
-0.393311	
-0.392761	
-0.3927	
-0.393555	
-0.393433	
-0.39386	
-0.393372	
-0.394104	
-0.394226	
-0.39386	
-0.393677	
-0.393127	
-0.394531	
-0.393555	
-0.393066	
-0.394104	
-0.393677	
-0.393738	
-0.393921	
-0.394531	
-0.394104	
-0.394226	
-0.394165	
-0.393311	
-0.393127	
-0.392456	
-0.393921	
-0.392944	
-0.393433	
-0.393433	
-0.393982	
-0.393799	
-0.393494	
-0.393799	
-0.393616	
-0.393188	
-0.39325	
-0.392883	
-0.39325	
-0.393311	
-0.393433	
-0.392944	
-0.393433	
-0.393616	
-0.394104	
-0.393555	
-0.392761	
-0.393616	
-0.392944	
-0.393127	
-0.393799	
-0.393982	
-0.394043	
-0.393188	
-0.394409	
-0.393616	
-0.393738	
-0.39386	
-0.393677	
-0.393555	
-0.391907	
-0.394409	
-0.39325	
-0.392883	
-0.392578	
-0.39386	
-0.393372	
-0.392273	
-0.392639	
-0.392883	
-0.39209	
-0.391663	
-0.391907	
-0.392822	
-0.392456	
-0.392334	
-0.392334	
-0.392761	
-0.39209	
-0.392029	
-0.391846	
-0.390686	
-0.391663	
-0.391235	
-0.391235	
-0.392273	
-0.392883	
-0.392578	
-0.392456	
-0.395081	
-0.394348	
-0.394836	
-0.395447	
-0.395813	
-0.395691	
-0.395691	
-0.397034	
-0.39679	
-0.397034	
-0.396667	
-0.397827	
-0.397766	
-0.397461	
-0.397583	
-0.397461	
-0.3974	
-0.3974	
-0.395691	
-0.398499	
-0.39801	
-0.397827	
-0.397949	
-0.398743	
-0.398132	
-0.398071	
-0.398621	
-0.396973	
-0.397644	
-0.3974	
-0.39679	
-0.398254	
-0.398254	
-0.398193	
-0.397278	
-0.399048	
-0.397888	
-0.398193	
-0.398621	
-0.397644	
-0.397461	
-0.397583	
-0.398376	
-0.39801	
-0.397827	
-0.397095	
-0.396912	
-0.397095	
-0.395874	
-0.395935	
-0.395325	
-0.395508	
-0.395325	
-0.394043	
-0.395569	
-0.394714	
-0.394897	
-0.395081	
-0.396179	
-0.39447	
-0.394409	
-0.394653	
-0.392883	
-0.394165	
-0.394409	
-0.393188	
-0.394714	
-0.39563	
-0.395813	
-0.39447	
-0.396118	
-0.395081	
-0.395874	
-0.396851	
-0.396057	
-0.395935	
-0.395752	
-0.396729	
-0.39624	
-0.39624	
-0.39563	
-0.396362	
-0.397034	
-0.396667	
-0.396606	
-0.396179	
-0.396423	
-0.396484	
-0.396057	
-0.397644	
-0.396851	
-0.396606	
-0.396729	
-0.398193	
-0.397766	
-0.397156	
-0.397827	
-0.397278	
-0.397583	
-0.397278	
-0.396118	
-0.397644	
-0.397461	
-0.397217	
-0.396057	
-0.397827	
-0.397156	
-0.397278	
-0.397644	
-0.396057	
-0.397095	
-0.396729	
-0.396729	
-0.396912	
-0.396545	
-0.396118	
-0.39679	
-0.397278	
-0.39624	
-0.396118	
-0.395203	
-0.395691	
-0.39563	
-0.394287	
-0.396057	
-0.395325	
-0.395264	
-0.39502	
-0.395142	
-0.395386	
-0.394348	
-0.394897	
-0.393677	
-0.394226	
-0.393921	
-0.393433	
-0.393982	
-0.393433	
-0.39325	
-0.392761	
-0.394348	
-0.393311	
-0.39325	
-0.393555	
-0.391907	
-0.392883	
-0.393005	
-0.39325	
-0.393799	
-0.393921	
-0.394714	
-0.394958	
-0.396606	
-0.396118	
-0.396606	
-0.395996	
-0.396179	
-0.396606	
-0.395874	
-0.397949	
-0.397095	
-0.397034	
-0.397034	
-0.398071	
-0.397827	
-0.397034	
-0.397644	
-0.396606	
-0.397461	
-0.3974	
-0.397644	
-0.39856	
-0.397949	
-0.397766	
-0.397583	
-0.399231	
-0.397766	
-0.398132	
-0.398071	
-0.397095	
-0.397705	
-0.396912	
-0.396118	
-0.396606	
-0.396606	
-0.395996	
-0.394592	
-0.396301	
-0.394409	
-0.394287	
-0.394104	
-0.393494	
-0.392761	
-0.392334	
-0.392273	
-0.392334	
-0.392273	
-0.392273	
-0.391541	
-0.391724	
-0.391113	
-0.391113	
-0.390686	
-0.390564	
-0.39093	
-0.389404	
-0.391907	
-0.391174	
-0.391357	
-0.391663	
-0.392456	
-0.391479	
-0.391846	
-0.392395	
-0.392151	
-0.392822	
-0.392517	
-0.392822	
-0.394409	
-0.393799	
-0.393616	
-0.39386	
-0.394531	
-0.394104	
-0.394653	
-0.395203	
-0.395203	
-0.395264	
-0.395203	
-0.394897	
-0.395996	
-0.395569	
-0.395935	
-0.395874	
-0.397278	
-0.396362	
-0.396545	
-0.39624	
-0.396545	
-0.396484	
-0.395874	
-0.396851	
-0.396851	
-0.397217	
-0.397034	
-0.3974	
-0.397461	
-0.397278	
-0.397583	
-0.396729	
-0.396301	
-0.396423	
-0.39563	
-0.397583	
-0.395691	
-0.395752	
-0.39563	
-0.396179	
-0.395508	
-0.395691	
-0.396179	
-0.395508	
-0.395447	
-0.395264	
-0.394409	
-0.395813	
-0.395203	
-0.395813	
-0.395691	
-0.396423	
-0.395996	
-0.395813	
-0.395142	
-0.395386	
-0.395447	
-0.39502	
-0.395264	
-0.395203	
-0.39502	
-0.395142	
-0.395569	
-0.395691	
-0.395203	
-0.395264	
-0.395569	
-0.395203	
-0.394775	
-0.393799	
-0.395203	
-0.394714	
-0.394897	
-0.394714	
-0.394653	
-0.394714	
-0.394775	
-0.39502	
-0.39386	
-0.395203	
-0.394775	
-0.394104	
-0.395752	
-0.395142	
-0.395203	
-0.395264	
-0.395935	
-0.395447	
-0.39563	
-0.395508	
-0.395569	
-0.395569	
-0.395752	
-0.396667	
-0.39679	
-0.396057	
-0.396545	
-0.396301	
-0.396912	
-0.396362	
-0.396118	
-0.396484	
-0.395935	
-0.395996	
-0.395081	
-0.396851	
-0.39679	
-0.39679	
-0.396667	
-0.396851	
-0.397095	
-0.396606	
-0.396484	
-0.39447	
-0.394897	
-0.394348	
-0.392273	
-0.393982	
-0.392883	
-0.392273	
-0.392578	
-0.392334	
-0.391541	
-0.391174	
-0.391968	
-0.391052	
-0.390808	
-0.39032	
-0.390503	
-0.391357	
-0.390442	
-0.390503	
-0.390503	
-0.391296	
-0.390381	
-0.390015	
-0.389954	
-0.390259	
-0.39032	
-0.389404	
-0.390015	
-0.390869	
-0.389709	
-0.390198	
-0.390503	
-0.390381	
-0.390442	
-0.390381	
-0.388794	
-0.390137	
-0.390198	
-0.388306	
-0.390259	
-0.39032	
-0.39032	
-0.390259	
-0.390747	
-0.390137	
-0.389954	
-0.391296	
-0.390564	
-0.391174	
-0.391357	
-0.391968	
-0.392944	
-0.393005	
-0.393433	
-0.393372	
-0.393738	
-0.393494	
-0.393738	
-0.394592	
-0.393921	
-0.39386	
-0.394043	
-0.394409	
-0.395386	
-0.39447	
-0.394714	
-0.394897	
-0.394287	
-0.393738	
-0.393616	
-0.392761	
-0.393188	
-0.392517	
-0.390991	
-0.393127	
-0.393188	
-0.392517	
-0.39209	
-0.393127	
-0.392029	
-0.392273	
-0.3927	
-0.391113	
-0.392212	
-0.391663	
-0.391052	
-0.391846	
-0.39209	
-0.391724	
-0.391724	
-0.391663	
-0.391724	
-0.391846	
-0.391724	
-0.390991	
-0.39093	
-0.390686	
-0.391052	
-0.391052	
-0.390442	
-0.390381	
-0.390503	
-0.389954	
-0.39032	
-0.390747	
-0.391174	
-0.390869	
-0.390686	
-0.390076	
-0.391479	
-0.391724	
-0.39093	
-0.391174	
-0.391907	
-0.390686	
-0.390869	
-0.391602	
-0.391052	
-0.391479	
-0.390991	
-0.39093	
-0.391724	
-0.392517	
-0.392029	
-0.392212	
-0.393066	
-0.392334	
-0.392883	
	
