E:\DOCUMENTS AND SETTINGS\JPOTAS\MEUS DOCUMENTOS\UFRJ\RSCI-BM 12 WK SERIES\070727-RSCI-BM-05\RSCI-BM-05-LEMG\070727-RSCI-BM-05-LEMG-0002.ACQ
0.025000 msec/sample
1 channel
Analog input
Volts
CH1	
2000	
-0.386658	
-0.386292	
-0.386902	
-0.385681	
-0.38562	
-0.386963	
-0.386536	
-0.386658	
-0.38739	
-0.387817	
-0.387695	
-0.38739	
-0.388245	
-0.386902	
-0.388367	
-0.388428	
-0.388	
-0.388245	
-0.387878	
-0.388489	
-0.388916	
-0.389404	
-0.388855	
-0.389587	
-0.390198	
-0.388306	
-0.390015	
-0.389954	
-0.389832	
-0.389526	
-0.389587	
-0.390442	
-0.389709	
-0.391541	
-0.391846	
-0.391602	
-0.392456	
-0.391663	
-0.391541	
-0.392212	
-0.390503	
-0.391602	
-0.391113	
-0.391724	
-0.391541	
-0.392273	
-0.392212	
-0.392395	
-0.393066	
-0.393555	
-0.392578	
-0.392822	
-0.391785	
-0.39325	
-0.391724	
-0.390869	
-0.391724	
-0.392456	
-0.392395	
-0.391846	
-0.392639	
-0.392395	
-0.391846	
-0.392395	
-0.391541	
-0.391968	
-0.391541	
-0.390625	
-0.391968	
-0.391541	
-0.392273	
-0.391846	
-0.391479	
-0.392334	
-0.389709	
-0.390869	
-0.390747	
-0.390869	
-0.390442	
-0.389893	
-0.389709	
-0.389404	
-0.390015	
-0.389893	
-0.390198	
-0.390747	
-0.388611	
-0.389465	
-0.390076	
-0.388367	
-0.389343	
-0.389221	
-0.389465	
-0.388489	
-0.389526	
-0.389893	
-0.389893	
-0.390381	
-0.389954	
-0.390076	
-0.389893	
-0.387451	
-0.389282	
-0.38855	
-0.387817	
-0.388062	
-0.38855	
-0.388062	
-0.388306	
-0.388	
-0.388123	
-0.387817	
-0.387634	
-0.387024	
-0.38855	
-0.387268	
-0.386536	
-0.387085	
-0.387756	
-0.388306	
-0.387085	
-0.387207	
-0.388184	
-0.387085	
-0.387085	
-0.386841	
-0.38678	
-0.387817	
-0.387024	
-0.387512	
-0.386475	
-0.388428	
-0.387512	
-0.387695	
-0.388489	
-0.388	
-0.388428	
-0.388367	
-0.386719	
-0.388489	
-0.388306	
-0.388367	
-0.388489	
-0.389282	
-0.389221	
-0.388794	
-0.389648	
-0.389038	
-0.389954	
-0.390137	
-0.38855	
-0.389893	
-0.389099	
-0.389465	
-0.389221	
-0.389954	
-0.389771	
-0.390137	
-0.390015	
-0.390991	
-0.390198	
-0.39093	
-0.389893	
-0.389709	
-0.389343	
-0.389404	
-0.388855	
-0.388855	
-0.389282	
-0.389099	
-0.388977	
-0.389648	
-0.389099	
-0.389404	
-0.388733	
-0.388794	
-0.389526	
-0.390381	
-0.390259	
-0.390747	
-0.392639	
-0.391907	
-0.391968	
-0.393311	
-0.392395	
-0.393616	
-0.39325	
-0.393555	
-0.39325	
-0.392517	
-0.393677	
-0.392578	
-0.394287	
-0.394287	
-0.393738	
-0.393982	
-0.393799	
-0.391052	
-0.387817	
-0.386047	
-0.387695	
-0.387085	
-0.387695	
-0.389709	
-0.393311	
-0.392822	
-0.392822	
-0.3927	
-0.392639	
-0.391907	
-0.39209	
-0.390869	
-0.392334	
-0.390991	
-0.391479	
-0.391357	
-0.391724	
-0.391724	
-0.390869	
-0.390747	
-0.39093	
-0.39032	
-0.391479	
-0.389893	
-0.389893	
-0.389526	
-0.389221	
-0.389404	
-0.38855	
-0.389832	
-0.388245	
-0.388062	
-0.387634	
-0.387146	
-0.387085	
-0.38623	
-0.385681	
-0.38623	
-0.385864	
-0.386902	
-0.385925	
-0.387573	
-0.386292	
-0.386597	
-0.387817	
-0.38678	
-0.387329	
-0.387878	
-0.387939	
-0.389832	
-0.390564	
-0.393066	
-0.395264	
-0.398376	
-0.401367	
-0.404846	
-0.409485	
-0.412476	
-0.417053	
-0.420349	
-0.425232	
-0.428162	
-0.430969	
-0.434814	
-0.438354	
-0.4422	
-0.445618	
-0.450012	
-0.45343	
-0.459534	
-0.465942	
-0.470825	
-0.478149	
-0.483459	
-0.488892	
-0.49231	
-0.494995	
-0.49585	
-0.496582	
-0.496094	
-0.494324	
-0.492737	
-0.491394	
-0.487122	
-0.485474	
-0.480652	
-0.476807	
-0.472717	
-0.469299	
-0.465027	
-0.460266	
-0.455811	
-0.44989	
-0.444885	
-0.43988	
-0.433533	
-0.430847	
-0.424866	
-0.421326	
-0.418213	
-0.414307	
-0.412598	
-0.410706	
-0.409546	
-0.408447	
-0.406616	
-0.406006	
-0.402344	
-0.402649	
-0.400391	
-0.398621	
-0.397339	
-0.395996	
-0.394348	
-0.393372	
-0.393555	
-0.391785	
-0.39209	
-0.392517	
-0.391418	
-0.393738	
-0.393188	
-0.394043	
-0.395508	
-0.39679	
-0.398865	
-0.399658	
-0.401184	
-0.40155	
-0.40155	
-0.401978	
-0.399292	
-0.399414	
-0.396973	
-0.394714	
-0.392761	
-0.390076	
-0.387146	
-0.383667	
-0.379822	
-0.375549	
-0.3703	
-0.366638	
-0.359375	
-0.354736	
-0.348816	
-0.341003	
-0.334167	
-0.326599	
-0.320007	
-0.312378	
-0.305969	
-0.2995	
-0.29364	
-0.288452	
-0.282959	
-0.278687	
-0.276794	
-0.273193	
-0.272644	
-0.272095	
-0.2724	
-0.27301	
-0.275146	
-0.2771	
-0.279724	
-0.28363	
-0.285278	
-0.29071	
-0.29364	
-0.298157	
-0.30188	
-0.306091	
-0.308594	
-0.311096	
-0.313965	
-0.31427	
-0.315735	
-0.315918	
-0.316406	
-0.317688	
-0.316223	
-0.318054	
-0.317688	
-0.317993	
-0.318542	
-0.319641	
-0.321167	
-0.322571	
-0.325928	
-0.327515	
-0.330078	
-0.332764	
-0.335571	
-0.337708	
-0.339783	
-0.341614	
-0.343628	
-0.344666	
-0.346069	
-0.347595	
-0.347229	
-0.348389	
-0.350098	
-0.349487	
-0.351135	
-0.351501	
-0.352417	
-0.352905	
-0.354187	
-0.353271	
-0.354858	
-0.355042	
-0.354919	
-0.356506	
-0.356995	
-0.357422	
-0.357971	
-0.358337	
-0.358643	
-0.359497	
-0.360596	
-0.360718	
-0.360901	
-0.361023	
-0.36145	
-0.362244	
-0.361145	
-0.362061	
-0.362122	
-0.36322	
-0.362732	
-0.363342	
-0.362976	
-0.363281	
-0.364807	
-0.364258	
-0.364197	
-0.365234	
-0.365723	
-0.36615	
-0.36615	
-0.365967	
-0.366394	
-0.367615	
-0.368042	
-0.367859	
-0.368103	
-0.368042	
-0.368469	
-0.367981	
-0.368347	
-0.368591	
-0.368286	
-0.369019	
-0.369446	
-0.369934	
-0.370483	
-0.369873	
-0.369995	
-0.369507	
-0.370361	
-0.369263	
-0.369385	
-0.36969	
-0.370361	
-0.369568	
-0.369995	
-0.370483	
-0.369812	
-0.370117	
-0.369019	
-0.368713	
-0.370605	
-0.368958	
-0.369568	
-0.369751	
-0.36908	
-0.370239	
-0.369934	
-0.370361	
-0.370056	
-0.370728	
-0.369385	
-0.369934	
-0.370728	
-0.370789	
-0.370483	
-0.3703	
-0.371277	
-0.371399	
-0.372925	
-0.371155	
-0.371887	
-0.372437	
-0.371826	
-0.37323	
-0.371521	
-0.372559	
-0.373047	
-0.37439	
-0.373474	
-0.374146	
-0.374756	
-0.373962	
-0.374451	
-0.373108	
-0.373962	
-0.373535	
-0.37384	
-0.373596	
-0.372864	
-0.372498	
-0.372559	
-0.372192	
-0.371155	
-0.37207	
-0.37085	
-0.368835	
-0.370911	
-0.37085	
-0.371033	
-0.370605	
-0.36969	
-0.370667	
-0.371094	
-0.372131	
-0.369934	
-0.371582	
-0.370789	
-0.370911	
-0.372437	
-0.371704	
-0.372253	
-0.372375	
-0.373779	
-0.37323	
-0.37323	
-0.374207	
-0.373535	
-0.373718	
-0.37384	
-0.375	
-0.37439	
-0.375244	
-0.375122	
-0.375671	
-0.376953	
-0.376221	
-0.376343	
-0.377075	
-0.377869	
-0.37677	
-0.376343	
-0.37677	
-0.377014	
-0.377441	
-0.378052	
-0.377441	
-0.378845	
-0.378723	
-0.379456	
-0.380188	
-0.380615	
-0.380798	
-0.380554	
-0.381897	
-0.381897	
-0.382141	
-0.382324	
-0.382019	
-0.382996	
-0.383362	
-0.384033	
-0.38385	
-0.383057	
-0.383118	
-0.381836	
-0.381592	
-0.382996	
-0.382996	
-0.383423	
-0.383789	
-0.38324	
-0.382996	
-0.384338	
-0.383728	
-0.383484	
-0.383545	
-0.383057	
-0.383423	
-0.38324	
-0.383057	
-0.382874	
-0.38446	
-0.383484	
-0.38324	
-0.384277	
-0.384521	
-0.383789	
-0.383606	
-0.38324	
-0.383972	
-0.383972	
-0.384033	
-0.383484	
-0.384888	
-0.384216	
-0.384216	
-0.384583	
-0.383362	
-0.383423	
-0.382813	
-0.382141	
-0.383179	
-0.383362	
-0.382507	
-0.382935	
-0.383789	
-0.38324	
-0.383484	
-0.384155	
-0.383606	
-0.383057	
-0.382874	
-0.383301	
-0.383057	
-0.383301	
-0.382324	
-0.38446	
-0.384216	
-0.384644	
-0.385132	
-0.385376	
-0.384583	
-0.384338	
-0.384094	
-0.383728	
-0.383667	
-0.38324	
-0.38269	
-0.38324	
-0.382813	
-0.38269	
-0.383789	
-0.383118	
-0.383057	
-0.382446	
-0.38269	
-0.382568	
-0.382324	
-0.381958	
-0.382629	
-0.382751	
-0.382507	
-0.382996	
-0.383301	
-0.382324	
-0.382141	
-0.381836	
-0.380188	
-0.382263	
-0.38147	
-0.380676	
-0.382019	
-0.381897	
-0.381226	
-0.381775	
-0.382935	
-0.382446	
-0.382385	
-0.381409	
-0.382141	
-0.382874	
-0.383301	
-0.382751	
-0.383484	
-0.383606	
-0.383667	
-0.384827	
-0.385437	
-0.383911	
-0.383972	
-0.383728	
-0.384338	
-0.385132	
-0.384644	
-0.383606	
-0.385742	
-0.385498	
-0.385742	
-0.38678	
-0.386963	
-0.385925	
-0.386292	
-0.385925	
-0.386536	
-0.386841	
-0.387329	
-0.38678	
-0.389343	
-0.388245	
-0.388367	
-0.388916	
-0.388855	
-0.388184	
-0.388245	
-0.387268	
-0.388184	
-0.388123	
-0.388733	
-0.387878	
-0.390076	
-0.389526	
-0.389832	
-0.390625	
-0.389954	
-0.389343	
-0.389404	
-0.388672	
-0.389709	
-0.389465	
-0.389648	
-0.388733	
-0.389587	
-0.389648	
-0.389465	
-0.389709	
-0.389343	
-0.388672	
-0.388489	
-0.389343	
-0.389099	
-0.389282	
-0.389282	
-0.388794	
-0.389282	
-0.389099	
-0.38916	
-0.388855	
-0.388733	
-0.388611	
-0.388123	
-0.388306	
-0.388	
-0.387695	
-0.388184	
-0.387817	
-0.387939	
-0.388062	
-0.387695	
-0.387512	
-0.38739	
-0.387146	
-0.385925	
-0.387085	
-0.387451	
-0.387268	
-0.38739	
-0.388184	
-0.387268	
-0.387695	
-0.38855	
-0.388	
-0.38739	
-0.387756	
-0.386475	
-0.38739	
-0.386902	
-0.386475	
-0.386108	
-0.386841	
-0.386719	
-0.386597	
-0.386169	
-0.386047	
-0.385803	
-0.385498	
-0.384583	
-0.385071	
-0.385681	
-0.385315	
-0.385376	
-0.385742	
-0.385437	
-0.385376	
-0.385803	
-0.385498	
-0.385437	
-0.385376	
-0.383911	
-0.384155	
-0.385498	
-0.385315	
-0.384338	
-0.385254	
-0.385437	
-0.386108	
-0.385437	
-0.386536	
-0.386353	
-0.385986	
-0.384827	
-0.385742	
-0.387024	
-0.386902	
-0.385925	
-0.387146	
-0.387268	
-0.387451	
-0.387878	
-0.388062	
-0.387573	
-0.387329	
-0.386536	
-0.387146	
-0.387817	
-0.388123	
-0.388916	
-0.388428	
-0.388245	
-0.388428	
-0.388916	
-0.389099	
-0.388733	
-0.388916	
-0.387878	
-0.387878	
-0.388672	
-0.388794	
-0.388428	
-0.388306	
-0.388062	
-0.387939	
-0.387756	
-0.388428	
-0.387268	
-0.387512	
-0.387268	
-0.387146	
-0.387878	
-0.387451	
-0.388489	
-0.388428	
-0.389099	
-0.389343	
-0.389954	
-0.390808	
-0.390442	
-0.390747	
-0.391968	
-0.390625	
-0.391418	
-0.392029	
-0.392944	
-0.3927	
-0.392578	
-0.392822	
-0.392456	
-0.393494	
-0.392395	
-0.391968	
-0.392578	
-0.392395	
-0.392578	
-0.392029	
-0.392944	
-0.39209	
-0.39209	
-0.392029	
-0.392395	
-0.392456	
-0.391296	
-0.390076	
-0.391846	
-0.390198	
-0.391113	
-0.391052	
-0.391479	
-0.390503	
-0.390869	
-0.390747	
-0.390625	
-0.391296	
-0.389709	
-0.388916	
-0.390137	
-0.389648	
-0.389587	
-0.389465	
-0.39032	
-0.389465	
-0.389038	
-0.389465	
-0.389099	
-0.389709	
-0.388062	
-0.386658	
-0.387329	
-0.385742	
-0.386536	
-0.386658	
-0.386475	
-0.385925	
-0.386475	
-0.385742	
-0.386353	
-0.387634	
-0.385742	
-0.385376	
-0.38623	
-0.386047	
-0.386353	
-0.386841	
-0.386841	
-0.386536	
-0.386597	
-0.386536	
-0.386597	
-0.387573	
-0.386047	
-0.38501	
-0.386719	
-0.385559	
-0.386292	
-0.38678	
-0.387146	
-0.386719	
-0.386841	
-0.386047	
-0.387573	
-0.387878	
-0.386475	
-0.386658	
-0.387512	
-0.386475	
-0.387085	
-0.387268	
-0.387207	
-0.387146	
-0.387207	
-0.387207	
-0.387756	
-0.388916	
-0.387634	
-0.387085	
-0.388367	
-0.38739	
-0.388611	
-0.388794	
-0.388794	
-0.388916	
-0.38916	
-0.388855	
-0.390442	
-0.390686	
-0.389404	
-0.389526	
-0.390137	
-0.389221	
-0.389282	
-0.389954	
-0.389038	
-0.38916	
-0.388855	
-0.387512	
-0.389221	
-0.389893	
-0.388672	
-0.388489	
-0.388733	
-0.388062	
-0.389465	
-0.390564	
-0.389709	
-0.39032	
-0.390198	
-0.390442	
-0.392212	
-0.392395	
-0.391357	
-0.390381	
-0.391602	
-0.391357	
-0.391174	
-0.391357	
-0.391296	
-0.391541	
-0.391724	
-0.392456	
-0.392639	
-0.393433	
-0.392151	
-0.392029	
-0.392639	
-0.391663	
-0.392822	
-0.39325	
-0.3927	
-0.392822	
-0.392151	
-0.392456	
-0.393372	
-0.393188	
-0.392883	
-0.391785	
-0.391907	
-0.391174	
-0.391785	
-0.391541	
-0.391357	
-0.391235	
-0.390503	
-0.391052	
-0.391724	
-0.392273	
-0.390686	
-0.390869	
-0.39093	
-0.389221	
-0.390625	
-0.390808	
-0.389893	
-0.390076	
-0.389526	
-0.389771	
-0.390198	
-0.390503	
-0.389771	
-0.389771	
-0.389587	
-0.387817	
-0.388855	
-0.388123	
-0.387756	
-0.387695	
-0.38739	
-0.387634	
-0.388367	
-0.388916	
-0.387634	
-0.387085	
-0.387634	
-0.385681	
-0.387024	
-0.387329	
-0.386658	
-0.386597	
-0.386108	
-0.385986	
-0.387024	
-0.387268	
-0.386536	
-0.386536	
-0.386719	
-0.384949	
-0.387024	
-0.38739	
-0.387024	
-0.387207	
-0.386719	
-0.387451	
-0.388062	
-0.387878	
-0.386841	
-0.387024	
-0.38678	
-0.385193	
-0.387512	
-0.387756	
-0.387451	
-0.387329	
-0.387512	
-0.387512	
-0.388367	
-0.388794	
-0.388489	
-0.388794	
-0.38855	
-0.387329	
-0.389038	
-0.389465	
-0.389099	
-0.389465	
-0.389038	
-0.389282	
-0.390137	
-0.390137	
-0.389832	
-0.389465	
-0.39032	
-0.388733	
-0.390076	
-0.390564	
-0.390503	
-0.390381	
-0.389709	
-0.389893	
-0.390015	
-0.389771	
-0.389771	
-0.390198	
-0.391113	
-0.389893	
-0.391235	
-0.391296	
-0.39093	
-0.391602	
-0.390991	
-0.391174	
-0.392944	
-0.392212	
-0.391907	
-0.392151	
-0.392029	
-0.389954	
-0.392273	
-0.392029	
-0.391907	
-0.392151	
-0.392517	
-0.391724	
-0.392883	
-0.392883	
-0.392639	
-0.392578	
-0.392151	
-0.391052	
-0.392273	
-0.392761	
-0.391785	
-0.391968	
-0.391663	
-0.391235	
-0.392273	
-0.391785	
-0.391785	
-0.391785	
-0.391541	
-0.389221	
-0.391052	
-0.390808	
-0.390503	
-0.390625	
-0.391052	
-0.389404	
-0.390564	
-0.390686	
-0.390259	
-0.390259	
-0.388733	
-0.388611	
-0.389648	
-0.390503	
-0.389648	
-0.389465	
-0.389465	
-0.389038	
-0.390625	
-0.390686	
-0.389648	
-0.390198	
-0.389343	
-0.388	
-0.390137	
-0.390015	
-0.390869	
-0.390503	
-0.390625	
-0.389893	
-0.391418	
-0.391357	
-0.390869	
-0.390808	
-0.390076	
-0.389221	
-0.39032	
-0.390137	
-0.389038	
-0.388916	
-0.388123	
-0.386902	
-0.387878	
-0.388	
-0.387268	
-0.386719	
-0.386047	
-0.384155	
-0.386108	
-0.385681	
-0.386047	
-0.385925	
-0.385681	
-0.385132	
-0.385864	
-0.387024	
-0.38623	
-0.385864	
-0.385681	
-0.384705	
-0.385925	
-0.385986	
-0.385925	
-0.386475	
-0.386658	
-0.385803	
-0.387451	
-0.388062	
-0.387634	
-0.387451	
-0.387695	
-0.38623	
-0.388062	
-0.388	
-0.388123	
-0.388123	
-0.387939	
-0.387512	
-0.388794	
-0.389954	
-0.389648	
-0.389343	
-0.388733	
-0.388184	
-0.389648	
-0.389038	
-0.389771	
-0.390198	
-0.389893	
-0.389099	
-0.391663	
-0.392578	
-0.392578	
-0.391907	
-0.392578	
-0.391602	
-0.391968	
-0.393005	
-0.393433	
-0.393616	
-0.393677	
-0.392761	
-0.393738	
-0.394043	
-0.393311	
-0.392761	
-0.392517	
-0.391602	
-0.392822	
-0.392029	
-0.39209	
-0.392822	
-0.3927	
-0.391785	
-0.393066	
-0.394287	
-0.393677	
-0.392883	
-0.392334	
-0.39093	
-0.391479	
-0.391296	
-0.392029	
-0.39209	
-0.392151	
-0.391968	
-0.392578	
-0.39325	
-0.392273	
-0.392578	
-0.391968	
-0.391174	
-0.390808	
-0.39093	
-0.391907	
-0.390747	
-0.391296	
-0.390503	
-0.391724	
-0.391846	
-0.391785	
-0.391418	
-0.390442	
-0.390015	
-0.390015	
-0.390198	
-0.391113	
-0.390625	
-0.390564	
-0.389648	
-0.390137	
-0.391235	
-0.390808	
-0.390442	
-0.389954	
-0.390137	
-0.390503	
-0.390564	
-0.391052	
-0.391418	
-0.391235	
-0.390869	
-0.391052	
-0.391418	
-0.391296	
-0.390686	
-0.390015	
-0.389038	
-0.389099	
-0.389038	
-0.389587	
-0.389099	
-0.389099	
-0.388611	
-0.388733	
-0.389221	
-0.388672	
-0.389404	
-0.388489	
-0.388	
-0.387939	
-0.388123	
-0.388794	
-0.388245	
-0.387634	
-0.387329	
-0.387634	
-0.388367	
-0.388123	
-0.388	
-0.387756	
-0.386292	
-0.386658	
-0.386597	
-0.388062	
-0.387573	
-0.387695	
-0.38739	
-0.387939	
-0.388855	
-0.388245	
-0.388855	
-0.388977	
-0.388	
-0.38855	
-0.388489	
-0.388733	
-0.389221	
-0.389526	
-0.388977	
-0.389526	
-0.390869	
-0.390686	
-0.390015	
-0.389832	
-0.388855	
-0.389893	
-0.389465	
-0.390625	
-0.390808	
-0.390625	
-0.391113	
-0.39093	
-0.391785	
-0.392029	
-0.392212	
-0.392395	
-0.392334	
-0.393066	
-0.392517	
-0.393372	
-0.392578	
-0.392456	
-0.392395	
-0.393005	
-0.393616	
-0.393921	
-0.393311	
-0.393372	
-0.393677	
-0.394104	
-0.393127	
-0.394104	
-0.394043	
-0.394043	
-0.393799	
-0.393921	
-0.394592	
-0.393982	
-0.393677	
-0.393555	
-0.393127	
-0.393372	
-0.39325	
-0.393555	
-0.393066	
-0.393005	
-0.3927	
-0.393188	
-0.393738	
-0.394043	
-0.393005	
-0.393494	
-0.393127	
-0.392761	
-0.392456	
-0.393311	
-0.392578	
-0.392273	
-0.39209	
-0.392212	
-0.39209	
-0.392212	
-0.391357	
-0.392212	
-0.390808	
-0.390991	
-0.390625	
-0.39032	
-0.390259	
-0.390625	
-0.390442	
-0.390808	
-0.391907	
-0.391663	
-0.390747	
-0.391296	
-0.390686	
-0.391052	
-0.390808	
-0.391418	
-0.391479	
-0.391479	
-0.390503	
-0.390259	
-0.391174	
-0.391052	
-0.390015	
-0.390015	
-0.388916	
-0.38855	
-0.388977	
-0.388916	
-0.388184	
-0.388977	
-0.38916	
-0.389099	
-0.389465	
-0.389038	
-0.388306	
-0.389038	
-0.388245	
-0.387451	
-0.388611	
-0.388245	
-0.388672	
-0.388855	
-0.388489	
-0.387634	
-0.388611	
-0.388733	
-0.388428	
-0.388916	
-0.389648	
-0.388123	
-0.388794	
-0.389282	
-0.388916	
-0.389282	
-0.38855	
-0.389526	
-0.39032	
-0.390198	
-0.389954	
-0.389893	
-0.389893	
-0.389404	
-0.390076	
-0.390503	
-0.39032	
-0.390503	
-0.390442	
-0.389771	
-0.390991	
-0.391113	
-0.391907	
-0.390747	
-0.391357	
-0.390991	
-0.39093	
-0.391541	
-0.391296	
-0.391174	
-0.391174	
-0.391296	
-0.391479	
-0.391357	
-0.391968	
-0.391663	
-0.391357	
-0.390503	
-0.389709	
-0.389832	
-0.390198	
-0.390015	
-0.390076	
-0.389343	
-0.390503	
-0.390747	
-0.391357	
-0.390991	
-0.3927	
-0.392273	
-0.3927	
-0.393494	
-0.393188	
-0.393494	
-0.394287	
-0.394592	
-0.394775	
-0.394592	
-0.395752	
-0.394653	
-0.396057	
-0.394836	
-0.395142	
-0.395203	
-0.394714	
-0.395264	
-0.395447	
-0.393982	
-0.394836	
-0.395569	
-0.395203	
-0.394409	
-0.395081	
-0.39447	
-0.393372	
-0.394531	
-0.3927	
-0.393799	
-0.393555	
-0.392761	
-0.393982	
-0.39386	
-0.393372	
-0.392822	
-0.393433	
-0.392212	
-0.391235	
-0.392517	
-0.390442	
-0.391479	
-0.39209	
-0.391785	
-0.391785	
-0.392273	
-0.391541	
-0.391907	
-0.391907	
-0.391235	
-0.390564	
-0.389954	
-0.388611	
-0.389832	
-0.389099	
-0.388123	
-0.388794	
-0.388977	
-0.388672	
-0.388855	
-0.38916	
-0.38739	
-0.387451	
-0.387878	
-0.387756	
-0.388062	
-0.388184	
-0.388306	
-0.388245	
-0.389343	
-0.388916	
-0.389526	
-0.388367	
-0.387756	
-0.387939	
-0.38855	
-0.387634	
-0.388367	
-0.388123	
-0.387878	
-0.388794	
-0.388916	
-0.38916	
-0.389648	
-0.389587	
-0.390137	
-0.389038	
-0.388794	
-0.389221	
-0.388672	
-0.388916	
-0.388611	
-0.388672	
-0.388916	
-0.389526	
-0.389771	
-0.389648	
-0.390137	
-0.389587	
-0.38916	
-0.389526	
-0.389343	
-0.390076	
-0.390198	
-0.390015	
-0.390808	
-0.391235	
-0.391663	
-0.390808	
-0.391907	
-0.390808	
-0.390137	
-0.391785	
-0.391357	
-0.391357	
-0.391113	
-0.391602	
-0.391296	
-0.391846	
-0.39093	
-0.390198	
-0.390808	
-0.389648	
-0.389404	
-0.390747	
-0.389221	
-0.390686	
-0.390564	
-0.391052	
-0.391968	
-0.392273	
-0.393005	
-0.392578	
-0.393738	
-0.39093	
-0.391418	
-0.392456	
-0.390991	
-0.392273	
-0.392761	
-0.39325	
-0.393433	
-0.393372	
-0.393311	
-0.393616	
-0.393982	
-0.392944	
-0.392639	
-0.394226	
-0.391846	
-0.394043	
-0.393555	
-0.394043	
-0.39447	
-0.394104	
-0.394775	
-0.395142	
-0.394409	
-0.393188	
-0.393494	
-0.39386	
-0.391357	
-0.392761	
-0.392822	
-0.392517	
-0.392395	
-0.392578	
-0.393311	
-0.393127	
-0.3927	
-0.392151	
-0.392334	
-0.392883	
-0.390198	
-0.391663	
-0.390808	
-0.391296	
-0.391663	
-0.391296	
-0.391418	
-0.391052	
-0.391113	
-0.390808	
-0.390625	
-0.389587	
-0.38916	
-0.390442	
-0.390015	
-0.388855	
-0.389648	
-0.389282	
-0.389099	
-0.38916	
-0.388794	
-0.389038	
-0.387451	
-0.38739	
-0.387573	
-0.388611	
-0.388306	
-0.387207	
-0.387634	
-0.388062	
-0.388184	
-0.387207	
-0.388306	
-0.387817	
-0.387268	
-0.386902	
-0.387451	
-0.38739	
-0.38739	
-0.386902	
-0.388245	
-0.387695	
-0.388855	
-0.388123	
-0.38916	
-0.388794	
-0.387451	
-0.388184	
-0.387268	
-0.387756	
-0.388	
-0.387451	
-0.388245	
-0.388306	
-0.388428	
-0.38855	
-0.390381	
-0.388794	
-0.388306	
-0.38855	
-0.389221	
-0.388245	
-0.389404	
-0.389343	
-0.389893	
-0.389648	
-0.389954	
-0.390808	
-0.391296	
-0.391418	
-0.391113	
-0.390625	
-0.389832	
-0.389465	
-0.39093	
-0.39032	
-0.389709	
-0.391174	
-0.390381	
-0.391113	
-0.390625	
-0.390625	
-0.390381	
-0.390869	
-0.390442	
-0.390564	
-0.391113	
-0.391418	
-0.390381	
-0.391418	
-0.391724	
-0.392456	
-0.392578	
-0.393555	
-0.392212	
-0.391968	
-0.391113	
-0.392639	
-0.392273	
-0.392395	
-0.392151	
-0.392456	
-0.392822	
-0.393494	
-0.392639	
-0.393372	
-0.392883	
-0.391785	
-0.391785	
-0.392822	
-0.392212	
-0.392456	
-0.392761	
-0.392578	
-0.391785	
-0.392334	
-0.392212	
-0.392578	
-0.392456	
-0.390442	
-0.390808	
-0.390503	
-0.390991	
-0.391357	
-0.390503	
-0.390442	
-0.390991	
-0.390991	
-0.391479	
-0.391235	
-0.391296	
-0.389954	
-0.389526	
-0.389465	
-0.389893	
-0.389709	
-0.389526	
-0.388794	
-0.389709	
-0.389771	
-0.390442	
-0.390869	
-0.389893	
-0.389465	
-0.389465	
-0.389343	
-0.388428	
-0.390259	
-0.391052	
-0.389954	
-0.390381	
-0.390381	
-0.391357	
-0.391602	
-0.391846	
-0.390137	
-0.390808	
-0.390625	
-0.389832	
-0.389587	
-0.38916	
-0.388794	
-0.388306	
-0.387817	
-0.38855	
-0.388489	
-0.388	
-0.386475	
-0.386047	
-0.385925	
-0.386108	
-0.385437	
-0.385742	
-0.385376	
-0.385315	
-0.385376	
-0.385742	
-0.386902	
-0.386292	
-0.385681	
-0.384033	
-0.385376	
-0.384827	
-0.385559	
-0.385803	
-0.386047	
-0.386169	
-0.386169	
-0.387268	
-0.387878	
-0.38739	
-0.387817	
-0.386475	
-0.386414	
-0.386963	
-0.387817	
-0.387756	
-0.387146	
-0.387512	
-0.387634	
-0.388489	
-0.389282	
-0.388611	
-0.389221	
-0.387024	
-0.388855	
-0.388977	
-0.388672	
-0.389099	
-0.388977	
-0.388794	
-0.389771	
-0.391052	
-0.391235	
-0.391113	
-0.391602	
-0.390808	
-0.391052	
-0.392212	
-0.39209	
-0.392456	
-0.392334	
-0.392517	
-0.392639	
-0.392883	
-0.393433	
-0.393005	
-0.393188	
-0.391418	
-0.390503	
-0.39209	
-0.392029	
-0.392395	
-0.391418	
-0.391113	
-0.392334	
-0.392944	
-0.392456	
-0.392456	
-0.392212	
-0.391479	
-0.391724	
-0.391418	
-0.39093	
-0.391663	
-0.391479	
-0.390198	
-0.391235	
-0.391296	
-0.391724	
-0.391479	
-0.392639	
-0.391907	
-0.391174	
-0.39093	
-0.391113	
-0.390686	
-0.39093	
-0.389709	
-0.390686	
-0.390442	
-0.390747	
-0.391479	
-0.390564	
-0.390076	
-0.389526	
-0.389526	
-0.388855	
-0.389099	
-0.389404	
-0.38855	
-0.388672	
-0.388916	
-0.390076	
-0.389648	
-0.389404	
-0.389221	
-0.389709	
-0.388855	
-0.389099	
-0.388672	
-0.389954	
-0.389648	
-0.390564	
-0.389526	
-0.39032	
-0.389832	
-0.38916	
-0.388916	
-0.388245	
-0.388	
-0.387634	
-0.387695	
-0.387939	
-0.387085	
-0.386963	
-0.387268	
-0.387329	
-0.387512	
-0.387512	
-0.387268	
-0.387024	
-0.386353	
-0.386902	
-0.386292	
-0.386597	
-0.386169	
-0.386414	
-0.38623	
-0.386597	
-0.386414	
-0.385986	
-0.385925	
-0.385681	
-0.38501	
-0.386414	
	
