E:\DOCUMENTS AND SETTINGS\JPOTAS\MEUS DOCUMENTOS\UFRJ\RSCI-BM 12 WK SERIES\070731-RSCI-BM-12\RSCI-BM-12-LEMG\070731-RSCI-BM-12-LEMG-0002.ACQ
0.025000 msec/sample
1 channel
Analog input
Volts
CH1	
2000	
-0.394409	
-0.394348	
-0.39386	
-0.394775	
-0.393066	
-0.391785	
-0.392151	
-0.391418	
-0.391357	
-0.392029	
-0.391113	
-0.390747	
-0.391968	
-0.391724	
-0.39209	
-0.392395	
-0.391785	
-0.39325	
-0.392212	
-0.390625	
-0.391663	
-0.391663	
-0.390503	
-0.391785	
-0.391541	
-0.39032	
-0.391479	
-0.391907	
-0.392273	
-0.392639	
-0.392395	
-0.393188	
-0.393555	
-0.392395	
-0.39386	
-0.394043	
-0.39386	
-0.395081	
-0.395447	
-0.39447	
-0.395996	
-0.396484	
-0.396729	
-0.397583	
-0.397278	
-0.398071	
-0.398132	
-0.396912	
-0.398071	
-0.398376	
-0.396179	
-0.398743	
-0.399414	
-0.398438	
-0.399048	
-0.398987	
-0.399109	
-0.400024	
-0.398499	
-0.399414	
-0.39978	
-0.398254	
-0.398193	
-0.398376	
-0.396606	
-0.398499	
-0.398071	
-0.396606	
-0.397339	
-0.397522	
-0.397461	
-0.397583	
-0.397156	
-0.39801	
-0.398804	
-0.396484	
-0.396545	
-0.396179	
-0.394836	
-0.395447	
-0.395691	
-0.394104	
-0.394836	
-0.394531	
-0.394958	
-0.395569	
-0.395203	
-0.395386	
-0.396362	
-0.394592	
-0.394287	
-0.395081	
-0.393982	
-0.394653	
-0.394592	
-0.394226	
-0.394287	
-0.394592	
-0.394592	
-0.395386	
-0.395325	
-0.395081	
-0.395935	
-0.394897	
-0.394531	
-0.395752	
-0.394958	
-0.39563	
-0.395691	
-0.39502	
-0.395691	
-0.395508	
-0.395935	
-0.395752	
-0.396545	
-0.395447	
-0.397034	
-0.395813	
-0.394714	
-0.395691	
-0.39447	
-0.395203	
-0.395203	
-0.394714	
-0.395813	
-0.395325	
-0.395569	
-0.395691	
-0.397095	
-0.39679	
-0.396301	
-0.395691	
-0.395081	
-0.396179	
-0.394653	
-0.394958	
-0.395569	
-0.394836	
-0.395874	
-0.395508	
-0.395203	
-0.395752	
-0.396729	
-0.396301	
-0.396362	
-0.396545	
-0.394775	
-0.396545	
-0.39502	
-0.393677	
-0.395203	
-0.39502	
-0.395691	
-0.39447	
-0.394836	
-0.394836	
-0.394958	
-0.394409	
-0.394104	
-0.394531	
-0.392578	
-0.394104	
-0.392273	
-0.390625	
-0.3927	
-0.391724	
-0.391724	
-0.391968	
-0.391968	
-0.391846	
-0.392639	
-0.392761	
-0.392639	
-0.393311	
-0.391968	
-0.392822	
-0.392517	
-0.391846	
-0.392944	
-0.392883	
-0.39386	
-0.394592	
-0.394897	
-0.395874	
-0.397705	
-0.397644	
-0.397461	
-0.398743	
-0.397583	
-0.398621	
-0.399048	
-0.398682	
-0.398926	
-0.39917	
-0.399475	
-0.39978	
-0.399658	
-0.393799	
-0.389099	
-0.387939	
-0.388	
-0.389282	
-0.387512	
-0.39502	
-0.400208	
-0.400391	
-0.400757	
-0.401306	
-0.400269	
-0.401306	
-0.401001	
-0.40094	
-0.402039	
-0.401733	
-0.401672	
-0.401794	
-0.401001	
-0.401001	
-0.401611	
-0.400574	
-0.39978	
-0.400452	
-0.399109	
-0.400513	
-0.400879	
-0.400024	
-0.401184	
-0.400208	
-0.399963	
-0.400269	
-0.399536	
-0.399292	
-0.398621	
-0.397827	
-0.395752	
-0.396057	
-0.395264	
-0.396118	
-0.39624	
-0.396423	
-0.396973	
-0.39679	
-0.397278	
-0.397278	
-0.397217	
-0.396973	
-0.397156	
-0.397339	
-0.39563	
-0.397583	
-0.397705	
-0.400024	
-0.401245	
-0.402466	
-0.404846	
-0.406189	
-0.40918	
-0.410767	
-0.413452	
-0.416443	
-0.417236	
-0.421204	
-0.424133	
-0.429932	
-0.435608	
-0.441589	
-0.448242	
-0.455078	
-0.461365	
-0.468201	
-0.473755	
-0.480469	
-0.485291	
-0.490112	
-0.493713	
-0.496887	
-0.500671	
-0.502747	
-0.506042	
-0.508911	
-0.511902	
-0.514832	
-0.515015	
-0.516724	
-0.517151	
-0.517578	
-0.516785	
-0.515015	
-0.514893	
-0.51178	
-0.512817	
-0.512451	
-0.512085	
-0.513062	
-0.514893	
-0.517212	
-0.519348	
-0.523132	
-0.526733	
-0.530701	
-0.535461	
-0.537354	
-0.540344	
-0.542297	
-0.545166	
-0.546265	
-0.546509	
-0.546936	
-0.546692	
-0.545288	
-0.543274	
-0.540405	
-0.537598	
-0.533264	
-0.52832	
-0.521973	
-0.51593	
-0.509705	
-0.502197	
-0.49646	
-0.490112	
-0.482971	
-0.476563	
-0.469543	
-0.463501	
-0.456848	
-0.450684	
-0.44397	
-0.438538	
-0.432251	
-0.426147	
-0.418823	
-0.413452	
-0.408203	
-0.401489	
-0.394287	
-0.387634	
-0.381042	
-0.373962	
-0.367249	
-0.35907	
-0.35144	
-0.344116	
-0.335144	
-0.328308	
-0.320313	
-0.313477	
-0.307495	
-0.300903	
-0.295532	
-0.290161	
-0.285645	
-0.281677	
-0.278381	
-0.275269	
-0.273621	
-0.271484	
-0.269897	
-0.269104	
-0.266907	
-0.268311	
-0.268616	
-0.269287	
-0.271057	
-0.272522	
-0.275024	
-0.278625	
-0.281555	
-0.285767	
-0.289063	
-0.293274	
-0.297546	
-0.301208	
-0.307373	
-0.311401	
-0.316223	
-0.320313	
-0.325012	
-0.327271	
-0.329651	
-0.332642	
-0.335266	
-0.337036	
-0.337708	
-0.338379	
-0.338745	
-0.34082	
-0.342407	
-0.343079	
-0.344666	
-0.346558	
-0.347595	
-0.349365	
-0.349976	
-0.352112	
-0.354065	
-0.355164	
-0.357178	
-0.357605	
-0.359009	
-0.362	
-0.363281	
-0.364197	
-0.365723	
-0.366272	
-0.367981	
-0.368164	
-0.368713	
-0.37146	
-0.369568	
-0.371643	
-0.371521	
-0.371765	
-0.374023	
-0.374451	
-0.375366	
-0.375	
-0.375366	
-0.376404	
-0.376343	
-0.376587	
-0.376953	
-0.376038	
-0.376465	
-0.376709	
-0.377075	
-0.377686	
-0.378113	
-0.378479	
-0.378662	
-0.380066	
-0.379395	
-0.379395	
-0.379822	
-0.379211	
-0.381714	
-0.379639	
-0.379822	
-0.380127	
-0.378235	
-0.380859	
-0.380432	
-0.380554	
-0.38147	
-0.38147	
-0.382019	
-0.381042	
-0.381165	
-0.381897	
-0.381348	
-0.381348	
-0.381287	
-0.381592	
-0.381592	
-0.382446	
-0.382874	
-0.382751	
-0.383362	
-0.382935	
-0.383423	
-0.38324	
-0.382202	
-0.383789	
-0.381897	
-0.381836	
-0.383057	
-0.381958	
-0.38324	
-0.383423	
-0.383545	
-0.383728	
-0.383606	
-0.384277	
-0.384277	
-0.382813	
-0.383606	
-0.382813	
-0.382446	
-0.383728	
-0.383301	
-0.384033	
-0.384155	
-0.384888	
-0.38501	
-0.384888	
-0.386414	
-0.386414	
-0.386169	
-0.386841	
-0.385925	
-0.385681	
-0.387024	
-0.387512	
-0.387756	
-0.388428	
-0.389832	
-0.389038	
-0.389709	
-0.390686	
-0.389893	
-0.390076	
-0.390442	
-0.389587	
-0.388794	
-0.390015	
-0.390076	
-0.390015	
-0.390076	
-0.390625	
-0.389893	
-0.390076	
-0.390503	
-0.390015	
-0.389343	
-0.388611	
-0.388062	
-0.386292	
-0.386841	
-0.385925	
-0.383789	
-0.385925	
-0.38562	
-0.384888	
-0.384888	
-0.385559	
-0.384766	
-0.384583	
-0.38446	
-0.384583	
-0.38385	
-0.384399	
-0.38385	
-0.382324	
-0.383911	
-0.384094	
-0.384827	
-0.383972	
-0.384827	
-0.383972	
-0.384033	
-0.384155	
-0.38385	
-0.384399	
-0.38269	
-0.384094	
-0.383728	
-0.382446	
-0.384033	
-0.384216	
-0.384766	
-0.384033	
-0.383911	
-0.384033	
-0.384033	
-0.38501	
-0.386169	
-0.384583	
-0.384766	
-0.385132	
-0.384888	
-0.385986	
-0.385681	
-0.385986	
-0.387268	
-0.387878	
-0.387695	
-0.38916	
-0.388733	
-0.38916	
-0.390808	
-0.389832	
-0.390625	
-0.390076	
-0.389221	
-0.391235	
-0.390808	
-0.391052	
-0.392517	
-0.391663	
-0.391418	
-0.391785	
-0.390076	
-0.391479	
-0.391846	
-0.389893	
-0.390747	
-0.390015	
-0.38916	
-0.389954	
-0.389709	
-0.389893	
-0.391296	
-0.389893	
-0.390137	
-0.389526	
-0.389038	
-0.390503	
-0.389587	
-0.389099	
-0.389282	
-0.388123	
-0.389465	
-0.390015	
-0.390198	
-0.390625	
-0.390869	
-0.390503	
-0.391357	
-0.39032	
-0.390198	
-0.39093	
-0.389465	
-0.390564	
-0.389709	
-0.390808	
-0.390564	
-0.390564	
-0.39093	
-0.391418	
-0.390503	
-0.390381	
-0.390137	
-0.388916	
-0.391418	
-0.389832	
-0.389954	
-0.390198	
-0.389465	
-0.389343	
-0.390137	
-0.390442	
-0.391602	
-0.390259	
-0.390747	
-0.391602	
-0.390625	
-0.392639	
-0.391602	
-0.390808	
-0.392517	
-0.391785	
-0.393188	
-0.393372	
-0.393799	
-0.39447	
-0.395447	
-0.39447	
-0.394897	
-0.394775	
-0.394226	
-0.395508	
-0.394897	
-0.394897	
-0.39447	
-0.395325	
-0.394775	
-0.394165	
-0.394531	
-0.394714	
-0.394287	
-0.393616	
-0.394043	
-0.392822	
-0.393433	
-0.392822	
-0.391968	
-0.391724	
-0.39093	
-0.391479	
-0.391663	
-0.391235	
-0.390808	
-0.391174	
-0.390076	
-0.39032	
-0.389832	
-0.388611	
-0.39032	
-0.389771	
-0.389099	
-0.38916	
-0.38916	
-0.389648	
-0.389832	
-0.389954	
-0.390137	
-0.390625	
-0.389709	
-0.390015	
-0.389648	
-0.390015	
-0.390625	
-0.389954	
-0.389832	
-0.38916	
-0.389404	
-0.390442	
-0.391052	
-0.390808	
-0.391357	
-0.392395	
-0.392151	
-0.392883	
-0.393066	
-0.393372	
-0.394348	
-0.394043	
-0.394287	
-0.394409	
-0.394592	
-0.395691	
-0.395569	
-0.396118	
-0.397034	
-0.396851	
-0.396484	
-0.397583	
-0.39679	
-0.396851	
-0.398499	
-0.3974	
-0.39801	
-0.398071	
-0.396851	
-0.3974	
-0.397766	
-0.398132	
-0.398743	
-0.397217	
-0.397217	
-0.397644	
-0.396912	
-0.396606	
-0.397095	
-0.396179	
-0.395935	
-0.396118	
-0.39563	
-0.395813	
-0.395996	
-0.396179	
-0.396545	
-0.396179	
-0.395691	
-0.39502	
-0.394592	
-0.39447	
-0.393921	
-0.393555	
-0.393738	
-0.394043	
-0.39447	
-0.393738	
-0.393738	
-0.394653	
-0.394775	
-0.394104	
-0.394409	
-0.393494	
-0.393188	
-0.394653	
-0.392822	
-0.393127	
-0.394348	
-0.393982	
-0.394287	
-0.394836	
-0.394104	
-0.394775	
-0.394958	
-0.394653	
-0.394836	
-0.39386	
-0.394226	
-0.395813	
-0.394104	
-0.393372	
-0.395203	
-0.395081	
-0.395325	
-0.395203	
-0.395447	
-0.395264	
-0.394897	
-0.395508	
-0.394958	
-0.394104	
-0.394409	
-0.395386	
-0.394592	
-0.394958	
-0.39447	
-0.394287	
-0.395142	
-0.395142	
-0.395935	
-0.39624	
-0.395325	
-0.396179	
-0.395386	
-0.394836	
-0.395874	
-0.395935	
-0.394836	
-0.395569	
-0.394836	
-0.394165	
-0.395203	
-0.396118	
-0.395874	
-0.39624	
-0.395386	
-0.395935	
-0.394836	
-0.39447	
-0.395142	
-0.395203	
-0.393921	
-0.394775	
-0.394409	
-0.394165	
-0.394836	
-0.394592	
-0.39447	
-0.394226	
-0.393433	
-0.393616	
-0.392639	
-0.391968	
-0.392456	
-0.391296	
-0.391357	
-0.392029	
-0.391663	
-0.390991	
-0.391907	
-0.392273	
-0.391968	
-0.392151	
-0.392395	
-0.393188	
-0.39209	
-0.392517	
-0.392822	
-0.391968	
-0.393127	
-0.393066	
-0.39386	
-0.394348	
-0.395386	
-0.39679	
-0.397278	
-0.397278	
-0.397522	
-0.398865	
-0.39801	
-0.398926	
-0.399475	
-0.397644	
-0.399231	
-0.399414	
-0.399414	
-0.399841	
-0.40033	
-0.400452	
-0.400574	
-0.40094	
-0.400269	
-0.399902	
-0.400452	
-0.400574	
-0.401123	
-0.398682	
-0.400452	
-0.400513	
-0.400818	
-0.401062	
-0.400635	
-0.401123	
-0.401672	
-0.401062	
-0.401001	
-0.400574	
-0.400269	
-0.400696	
-0.401306	
-0.399475	
-0.400818	
-0.401367	
-0.400208	
-0.400879	
-0.400513	
-0.400391	
-0.400757	
-0.400024	
-0.400635	
-0.39917	
-0.39801	
-0.398987	
-0.39856	
-0.396606	
-0.397217	
-0.396423	
-0.395813	
-0.396729	
-0.396423	
-0.395996	
-0.396179	
-0.396423	
-0.396606	
-0.395508	
-0.395203	
-0.396118	
-0.395813	
-0.395081	
-0.396179	
-0.395935	
-0.396057	
-0.396545	
-0.396912	
-0.397339	
-0.397217	
-0.397339	
-0.397217	
-0.397522	
-0.397522	
-0.397766	
-0.39801	
-0.397095	
-0.398376	
-0.398315	
-0.397766	
-0.398254	
-0.398682	
-0.398926	
-0.398254	
-0.39917	
-0.397949	
-0.398071	
-0.397522	
-0.397827	
-0.397461	
-0.396729	
-0.397827	
-0.397644	
-0.397827	
-0.397949	
-0.398865	
-0.39917	
-0.398071	
-0.39917	
-0.398743	
-0.39856	
-0.398499	
-0.398193	
-0.398926	
-0.398315	
-0.39917	
-0.399231	
-0.399414	
-0.399719	
-0.400208	
-0.400818	
-0.399475	
-0.399841	
-0.399109	
-0.398987	
-0.398987	
-0.398376	
-0.398193	
-0.397522	
-0.397583	
-0.396301	
-0.396729	
-0.396851	
-0.396851	
-0.397461	
-0.396423	
-0.395813	
-0.395386	
-0.39447	
-0.395508	
-0.395752	
-0.394653	
-0.394775	
-0.394836	
-0.394165	
-0.395203	
-0.396179	
-0.39624	
-0.397644	
-0.397278	
-0.396118	
-0.396606	
-0.395752	
-0.396973	
-0.397278	
-0.397095	
-0.398071	
-0.398132	
-0.398254	
-0.398315	
-0.398926	
-0.400391	
-0.401123	
-0.401489	
-0.400269	
-0.401367	
-0.399963	
-0.400513	
-0.401245	
-0.401062	
-0.401489	
-0.400818	
-0.401123	
-0.401733	
-0.401001	
-0.402161	
-0.402466	
-0.4021	
-0.40155	
-0.40155	
-0.399841	
-0.401489	
-0.401489	
-0.40094	
-0.401123	
-0.40094	
-0.401489	
-0.400635	
-0.40094	
-0.401123	
-0.401245	
-0.400085	
-0.399475	
-0.398743	
-0.397583	
-0.398071	
-0.397888	
-0.397095	
-0.396912	
-0.39679	
-0.396729	
-0.396484	
-0.396179	
-0.397034	
-0.396179	
-0.395203	
-0.394958	
-0.394592	
-0.394043	
-0.394775	
-0.394104	
-0.394226	
-0.393494	
-0.393188	
-0.394104	
-0.394348	
-0.394409	
-0.39502	
-0.395142	
-0.394592	
-0.394836	
-0.394958	
-0.395081	
-0.395935	
-0.395935	
-0.396179	
-0.395325	
-0.394775	
-0.396362	
-0.396301	
-0.396362	
-0.397217	
-0.396729	
-0.396667	
-0.397095	
-0.396912	
-0.397339	
-0.397827	
-0.397766	
-0.397522	
-0.397766	
-0.396484	
-0.398071	
-0.398621	
-0.398743	
-0.399414	
-0.398315	
-0.398315	
-0.398132	
-0.39856	
-0.398621	
-0.398865	
-0.39856	
-0.39856	
-0.399292	
-0.398132	
-0.398804	
-0.399109	
-0.399048	
-0.399841	
-0.398987	
-0.397888	
-0.398438	
-0.39801	
-0.39856	
-0.398132	
-0.397705	
-0.3974	
-0.397644	
-0.397461	
-0.397461	
-0.397827	
-0.397949	
-0.399597	
-0.397888	
-0.397583	
-0.397644	
-0.397034	
-0.398071	
-0.397827	
-0.398071	
-0.397705	
-0.397461	
-0.397766	
-0.397583	
-0.397827	
-0.397644	
-0.398926	
-0.398193	
-0.397156	
-0.397278	
-0.397461	
-0.397827	
-0.397217	
-0.397339	
-0.397034	
-0.397156	
-0.397644	
-0.397278	
-0.397705	
-0.397583	
-0.398254	
-0.398132	
-0.3974	
-0.397339	
-0.398254	
-0.398315	
-0.397888	
-0.397644	
-0.397156	
-0.397644	
-0.398743	
-0.39856	
-0.398804	
-0.399475	
-0.399963	
-0.40033	
-0.399597	
-0.399475	
-0.400513	
-0.401062	
-0.400818	
-0.40094	
-0.400085	
-0.400452	
-0.401489	
-0.401367	
-0.401123	
-0.401489	
-0.401855	
-0.402161	
-0.401001	
-0.400574	
-0.401123	
-0.400757	
-0.400452	
-0.400146	
-0.398499	
-0.398499	
-0.398804	
-0.398376	
-0.397522	
-0.396912	
-0.3974	
-0.396301	
-0.395142	
-0.394409	
-0.394592	
-0.394287	
-0.394531	
-0.393555	
-0.3927	
-0.392395	
-0.393555	
-0.393799	
-0.393494	
-0.393188	
-0.394165	
-0.39386	
-0.393433	
-0.393005	
-0.392761	
-0.392883	
-0.392944	
-0.392517	
-0.391174	
-0.391357	
-0.392212	
-0.3927	
-0.3927	
-0.3927	
-0.393311	
-0.392944	
-0.392212	
-0.392883	
-0.391296	
-0.391846	
-0.392578	
-0.392578	
-0.392273	
-0.391418	
-0.39325	
-0.393616	
-0.393555	
-0.394104	
-0.39447	
-0.394043	
-0.39386	
-0.394165	
-0.392578	
-0.394714	
-0.395569	
-0.396301	
-0.39624	
-0.395325	
-0.397034	
-0.397217	
-0.397583	
-0.398193	
-0.398499	
-0.398071	
-0.397949	
-0.398804	
-0.397156	
-0.396851	
-0.397095	
-0.397034	
-0.397461	
-0.397034	
-0.397278	
-0.397278	
-0.397339	
-0.397034	
-0.396729	
-0.395996	
-0.395508	
-0.396118	
-0.395142	
-0.394775	
-0.394958	
-0.394104	
-0.395203	
-0.395203	
-0.39447	
-0.394836	
-0.395203	
-0.395874	
-0.395996	
-0.395264	
-0.395325	
-0.395996	
-0.395081	
-0.39563	
-0.395569	
-0.394531	
-0.395081	
-0.395264	
-0.394836	
-0.395203	
-0.395325	
-0.395752	
-0.395569	
-0.394531	
-0.394714	
-0.395325	
-0.394409	
-0.394714	
-0.394653	
-0.393127	
-0.394165	
-0.394714	
-0.394409	
-0.393982	
-0.394165	
-0.395325	
-0.39563	
-0.394348	
-0.394592	
-0.394409	
-0.393433	
-0.394836	
-0.39502	
-0.394287	
-0.395508	
-0.396606	
-0.396545	
-0.396973	
-0.397522	
-0.398438	
-0.39856	
-0.398132	
-0.397949	
-0.397949	
-0.397644	
-0.398804	
-0.398132	
-0.397522	
-0.397522	
-0.397949	
-0.397949	
-0.397278	
-0.397522	
-0.398376	
-0.39801	
-0.396851	
-0.39624	
-0.396362	
-0.395752	
-0.395752	
-0.395935	
-0.393982	
-0.394165	
-0.394531	
-0.394287	
-0.394104	
-0.393127	
-0.39386	
-0.393311	
-0.392151	
-0.391663	
-0.391479	
-0.391724	
-0.391785	
-0.391968	
-0.391174	
-0.391541	
-0.39209	
-0.391663	
-0.391785	
-0.391968	
-0.39325	
-0.393127	
-0.39209	
-0.391907	
-0.391235	
-0.391785	
-0.391968	
-0.391724	
-0.391357	
-0.392212	
-0.392273	
-0.392029	
-0.3927	
-0.393311	
-0.394348	
-0.39447	
-0.394714	
-0.395081	
-0.394348	
-0.394836	
-0.39563	
-0.395752	
-0.395691	
-0.396301	
-0.396729	
-0.396667	
-0.397705	
-0.397888	
-0.398743	
-0.398804	
-0.398804	
-0.398926	
-0.398499	
-0.398071	
-0.399353	
-0.399414	
-0.398743	
-0.398682	
-0.399109	
-0.399536	
-0.399353	
-0.399353	
-0.399963	
-0.399048	
-0.398804	
-0.398254	
-0.397461	
-0.3974	
-0.398071	
-0.397827	
-0.397095	
-0.397278	
-0.397034	
-0.397339	
-0.397034	
-0.397339	
-0.398621	
-0.396851	
-0.396545	
-0.395996	
-0.395386	
-0.394958	
-0.395691	
-0.395142	
-0.394104	
-0.394836	
-0.39386	
-0.395203	
-0.395325	
-0.395386	
-0.395813	
-0.395203	
-0.394409	
-0.394409	
-0.393616	
-0.39386	
-0.395142	
-0.394592	
-0.39386	
-0.395081	
-0.393738	
-0.395447	
-0.395752	
-0.396057	
-0.396118	
-0.395203	
-0.394592	
-0.394653	
-0.394836	
-0.395264	
-0.396057	
-0.395264	
-0.394104	
-0.39563	
-0.395447	
-0.395752	
-0.396057	
-0.396118	
-0.396179	
-0.395996	
-0.395569	
-0.394958	
-0.394836	
-0.39447	
-0.394958	
-0.394897	
-0.394775	
-0.395813	
-0.395691	
-0.395447	
-0.395813	
-0.396484	
-0.396484	
-0.396973	
-0.395447	
-0.395447	
-0.396301	
-0.395447	
-0.395508	
-0.395264	
-0.394836	
-0.395325	
-0.395264	
-0.395813	
-0.395874	
-0.396606	
-0.395935	
-0.396545	
-0.395569	
-0.395386	
-0.39563	
-0.394775	
-0.395691	
-0.395081	
-0.393921	
-0.39447	
-0.393677	
-0.394836	
-0.394104	
-0.39447	
-0.394043	
-0.394592	
-0.393372	
-0.392151	
-0.392944	
-0.391663	
-0.393066	
-0.392212	
-0.391541	
-0.391418	
-0.391907	
-0.391968	
-0.392273	
-0.39325	
-0.392639	
-0.392883	
-0.392822	
-0.392273	
-0.393494	
-0.392395	
-0.393555	
-0.393799	
-0.393555	
-0.394592	
-0.395386	
-0.396667	
-0.396912	
-0.398254	
-0.39801	
-0.399231	
-0.398682	
-0.397766	
-0.399475	
-0.398987	
-0.399414	
-0.399475	
-0.399048	
-0.399231	
-0.399719	
-0.400208	
-0.400513	
-0.401245	
-0.400452	
-0.401245	
-0.400452	
-0.399414	
-0.400696	
-0.400574	
-0.400696	
-0.400574	
-0.400452	
-0.39978	
-0.400391	
-0.400757	
-0.401062	
-0.402161	
-0.401123	
-0.401367	
-0.401123	
-0.400024	
-0.401306	
-0.400269	
-0.400452	
-0.400208	
-0.40033	
-0.399353	
-0.39978	
-0.399902	
-0.400391	
-0.401428	
-0.399902	
-0.400024	
-0.398804	
-0.397644	
-0.398438	
-0.397766	
-0.39679	
-0.396423	
-0.396118	
-0.394897	
-0.395203	
-0.39502	
-0.395508	
-0.397339	
-0.395874	
-0.396545	
-0.39563	
-0.39447	
-0.396362	
-0.395508	
-0.395508	
-0.395813	
-0.395447	
-0.394531	
-0.396545	
-0.397217	
-0.397461	
-0.398621	
-0.397644	
-0.397522	
-0.397156	
-0.395569	
-0.397705	
-0.397644	
-0.397522	
-0.397705	
-0.3974	
-0.396729	
-0.397827	
-0.397705	
-0.398254	
-0.399414	
-0.398132	
-0.397522	
-0.396729	
-0.395752	
-0.397705	
-0.397949	
-0.397156	
-0.3974	
-0.3974	
-0.395996	
-0.397461	
-0.397583	
-0.398193	
-0.399719	
-0.398438	
-0.398376	
-0.397949	
-0.39679	
-0.398499	
-0.398865	
-0.398315	
-0.399048	
-0.399048	
-0.398315	
-0.399475	
-0.399414	
-0.399658	
-0.400269	
-0.39917	
-0.39917	
-0.398254	
-0.396057	
-0.398071	
-0.397888	
-0.396912	
-0.396423	
-0.395813	
-0.394958	
-0.395874	
-0.395752	
-0.395813	
-0.396606	
-0.395081	
-0.395081	
-0.393921	
-0.392578	
-0.394348	
-0.394287	
-0.394653	
-0.394348	
-0.394653	
-0.394409	
-0.394897	
-0.395691	
-0.396118	
-0.397583	
-0.396179	
-0.396423	
-0.39624	
-0.395325	
-0.396851	
-0.397949	
-0.398254	
-0.397888	
-0.398315	
-0.398743	
-0.399109	
-0.399719	
-0.400391	
-0.40155	
-0.400757	
-0.401001	
-0.400757	
-0.398682	
-0.400146	
-0.400146	
-0.401062	
-0.400391	
-0.400085	
-0.400024	
-0.399963	
-0.400696	
-0.400818	
-0.401978	
-0.400879	
-0.40155	
-0.400879	
-0.398621	
-0.400452	
-0.400024	
-0.40094	
-0.400269	
-0.39978	
-0.399536	
-0.39856	
-0.39978	
-0.399109	
-0.399597	
-0.398193	
-0.398376	
-0.397095	
-0.395081	
-0.396606	
-0.395569	
-0.396606	
-0.396179	
-0.395142	
-0.39447	
-0.393127	
-0.394653	
-0.394775	
-0.395386	
-0.393982	
-0.394348	
-0.393005	
-0.391541	
-0.392639	
-0.392273	
-0.393738	
-0.392883	
-0.39325	
-0.392761	
-0.391418	
-0.393921	
-0.394104	
-0.395203	
-0.393921	
-0.395081	
-0.394348	
-0.393188	
-0.394653	
-0.394531	
-0.396484	
-0.395142	
-0.395447	
-0.394836	
-0.393066	
-0.395325	
-0.395874	
-0.397034	
-0.396179	
-0.397095	
-0.396545	
-0.395264	
-0.397095	
-0.396301	
-0.398132	
-0.396606	
-0.396973	
-0.397278	
-0.395386	
-0.397522	
-0.397827	
-0.399353	
-0.397827	
-0.398071	
-0.397583	
-0.396423	
-0.397522	
-0.396912	
-0.398743	
-0.397766	
-0.397217	
-0.397156	
-0.395386	
-0.397827	
-0.397766	
-0.398682	
-0.397217	
-0.397827	
-0.396423	
-0.395081	
-0.396729	
-0.396118	
-0.397339	
-0.396057	
-0.396057	
-0.396362	
-0.394531	
-0.396484	
-0.396729	
-0.398132	
-0.397156	
-0.396973	
-0.396545	
-0.395691	
-0.396606	
-0.395874	
-0.397156	
-0.396484	
-0.396545	
-0.396057	
-0.394287	
-0.395691	
-0.396851	
-0.397217	
-0.396545	
-0.396973	
-0.396057	
-0.394714	
-0.396118	
-0.39563	
-0.397583	
-0.396179	
-0.396118	
-0.396423	
-0.394043	
-0.396057	
-0.396362	
-0.397644	
-0.396179	
-0.396667	
-0.396362	
-0.395569	
-0.396667	
-0.396545	
-0.398376	
-0.3974	
-0.397705	
-0.397461	
-0.395935	
-0.39801	
-0.398743	
-0.400146	
-0.399536	
-0.400635	
-0.399536	
-0.398071	
-0.399841	
-0.399414	
-0.40155	
-0.399536	
-0.399536	
-0.399475	
-0.399231	
-0.399902	
-0.399658	
-0.400452	
-0.399109	
-0.400146	
-0.398865	
-0.397949	
-0.398193	
-0.397522	
-0.398682	
-0.396545	
-0.395508	
-0.395508	
-0.394043	
-0.394287	
-0.393799	
-0.39447	
-0.393372	
-0.393677	
-0.392578	
-0.391296	
-0.392151	
-0.391907	
-0.392944	
-0.391663	
-0.391357	
-0.391174	
-0.390625	
-0.391357	
-0.391418	
-0.392151	
-0.391235	
-0.391785	
-0.390808	
-0.389893	
-0.390747	
-0.390869	
-0.392029	
-0.390686	
-0.39032	
-0.390381	
-0.390259	
-0.39032	
-0.391052	
-0.391968	
-0.390869	
-0.391602	
-0.391541	
-0.390198	
-0.391235	
-0.391296	
-0.392395	
-0.391968	
-0.391479	
-0.391846	
-0.391235	
-0.391357	
-0.392517	
-0.393677	
-0.393127	
-0.393677	
-0.394104	
-0.394287	
-0.395264	
-0.395081	
-0.396545	
-0.396545	
-0.396118	
-0.395325	
-0.39563	
-0.395325	
-0.396545	
-0.396973	
-0.396118	
-0.396667	
-0.395874	
-0.395386	
-0.395264	
-0.395386	
-0.395996	
-0.395508	
-0.395203	
-0.394531	
-0.393127	
-0.392761	
-0.394043	
-0.394409	
-0.394226	
-0.39447	
-0.393433	
-0.392883	
-0.394165	
-0.393188	
-0.394104	
-0.393799	
-0.393494	
-0.393066	
-0.3927	
-0.392456	
-0.393616	
-0.39447	
-0.393616	
-0.394714	
-0.393738	
-0.393311	
-0.39386	
-0.393372	
-0.394653	
-0.394104	
-0.393372	
-0.393433	
-0.392822	
-0.391907	
-0.393372	
-0.393982	
-0.392822	
-0.393188	
-0.392578	
-0.392334	
-0.392761	
-0.392273	
-0.393127	
-0.392883	
-0.392456	
-0.392639	
-0.392029	
-0.390869	
-0.392578	
-0.393982	
-0.393005	
-0.393311	
-0.393616	
-0.39386	
-0.394043	
-0.394958	
-0.395569	
-0.395386	
-0.395203	
-0.395874	
-0.395325	
-0.394653	
-0.396484	
-0.397522	
-0.396912	
-0.397278	
-0.396362	
-0.396057	
-0.396301	
-0.395935	
-0.39624	
-0.396118	
-0.395691	
-0.395142	
-0.395081	
-0.393616	
-0.394897	
-0.395142	
-0.39447	
-0.394348	
-0.393127	
-0.392029	
	
