E:\DOCUMENTS AND SETTINGS\JPOTAS\MEUS DOCUMENTOS\UFRJ\RSCI-BM 12 WK SERIES\070723-RSCI-BM-06\RSCI-BM-06-LEMG\070723-RSCI-BM-LEMG-0000.ACQ
0.025000 msec/sample
1 channel
Analog input
Volts
CH1	
2000	
-0.394287	
-0.394287	
-0.395081	
-0.393738	
-0.39502	
-0.395264	
-0.394714	
-0.394958	
-0.394958	
-0.395508	
-0.394226	
-0.395325	
-0.394348	
-0.395508	
-0.394531	
-0.394653	
-0.396729	
-0.396851	
-0.396423	
-0.395874	
-0.396851	
-0.396362	
-0.396851	
-0.39856	
-0.397827	
-0.398682	
-0.398376	
-0.398499	
-0.400391	
-0.400757	
-0.401062	
-0.40033	
-0.400757	
-0.400391	
-0.400452	
-0.401794	
-0.401001	
-0.401306	
-0.401001	
-0.400085	
-0.401733	
-0.401428	
-0.400757	
-0.400513	
-0.399353	
-0.398193	
-0.398193	
-0.399414	
-0.398315	
-0.398926	
-0.398621	
-0.397644	
-0.398865	
-0.398621	
-0.398743	
-0.39801	
-0.3974	
-0.397766	
-0.397034	
-0.398132	
-0.396667	
-0.398071	
-0.398132	
-0.396545	
-0.397888	
-0.397339	
-0.398376	
-0.397461	
-0.395569	
-0.396179	
-0.396423	
-0.3974	
-0.395447	
-0.396484	
-0.39679	
-0.395813	
-0.397156	
-0.397339	
-0.398132	
-0.397095	
-0.396484	
-0.396851	
-0.396057	
-0.397034	
-0.395752	
-0.397461	
-0.397156	
-0.396667	
-0.397705	
-0.397888	
-0.398926	
-0.397339	
-0.397888	
-0.3974	
-0.396851	
-0.398315	
-0.396667	
-0.398132	
-0.397644	
-0.398071	
-0.398315	
-0.398499	
-0.399414	
-0.397888	
-0.398193	
-0.397949	
-0.397156	
-0.399048	
-0.397522	
-0.39856	
-0.398254	
-0.398071	
-0.398621	
-0.398804	
-0.398438	
-0.397522	
-0.398132	
-0.396729	
-0.396362	
-0.397156	
-0.395813	
-0.395508	
-0.39502	
-0.394958	
-0.394714	
-0.394531	
-0.395081	
-0.394348	
-0.394287	
-0.393494	
-0.393066	
-0.393799	
-0.393677	
-0.393494	
-0.394165	
-0.393921	
-0.394043	
-0.395142	
-0.395691	
-0.394958	
-0.394836	
-0.394409	
-0.394287	
-0.39502	
-0.39502	
-0.394836	
-0.395081	
-0.395325	
-0.395203	
-0.396179	
-0.396179	
-0.396729	
-0.395691	
-0.395081	
-0.395935	
-0.395813	
-0.396057	
-0.39679	
-0.396179	
-0.396301	
-0.396851	
-0.3974	
-0.398682	
-0.399048	
-0.397644	
-0.397949	
-0.398987	
-0.398804	
-0.400085	
-0.401306	
-0.400818	
-0.402344	
-0.401733	
-0.402771	
-0.403076	
-0.404236	
-0.402893	
-0.402405	
-0.402222	
-0.402161	
-0.403931	
-0.403564	
-0.402893	
-0.402832	
-0.402161	
-0.40332	
-0.402954	
-0.402649	
-0.401611	
-0.400635	
-0.400513	
-0.399841	
-0.401367	
-0.401489	
-0.400452	
-0.401001	
-0.400574	
-0.395935	
-0.395935	
-0.396606	
-0.39624	
-0.394775	
-0.395203	
-0.401794	
-0.401428	
-0.400513	
-0.400024	
-0.400024	
-0.399658	
-0.40033	
-0.399597	
-0.39978	
-0.398926	
-0.398193	
-0.397888	
-0.396484	
-0.397583	
-0.396851	
-0.395813	
-0.396179	
-0.395996	
-0.396484	
-0.39624	
-0.397034	
-0.395325	
-0.395325	
-0.395386	
-0.394226	
-0.395813	
-0.395081	
-0.395142	
-0.396118	
-0.39679	
-0.396606	
-0.396912	
-0.397461	
-0.396912	
-0.395874	
-0.396362	
-0.39502	
-0.397034	
-0.397217	
-0.397278	
-0.397156	
-0.397888	
-0.399048	
-0.399597	
-0.401184	
-0.402588	
-0.404419	
-0.408203	
-0.410889	
-0.415649	
-0.419617	
-0.423889	
-0.429138	
-0.433716	
-0.438782	
-0.442871	
-0.447937	
-0.450745	
-0.456238	
-0.460571	
-0.467102	
-0.474915	
-0.483765	
-0.495117	
-0.506042	
-0.516541	
-0.526367	
-0.534424	
-0.54071	
-0.544922	
-0.550354	
-0.554993	
-0.559509	
-0.561829	
-0.564331	
-0.565674	
-0.565308	
-0.565063	
-0.562683	
-0.560913	
-0.558167	
-0.555359	
-0.553589	
-0.551514	
-0.550049	
-0.547913	
-0.548706	
-0.547729	
-0.546936	
-0.54718	
-0.54657	
-0.544312	
-0.541748	
-0.540771	
-0.539307	
-0.537598	
-0.536987	
-0.535217	
-0.533813	
-0.533325	
-0.531799	
-0.531128	
-0.528931	
-0.527161	
-0.524475	
-0.522339	
-0.51825	
-0.51532	
-0.513062	
-0.50885	
-0.503967	
-0.500122	
-0.496094	
-0.492432	
-0.487915	
-0.484009	
-0.480286	
-0.476685	
-0.472168	
-0.469788	
-0.466858	
-0.465088	
-0.462646	
-0.460083	
-0.458069	
-0.455566	
-0.45282	
-0.449646	
-0.44519	
-0.442017	
-0.43988	
-0.437927	
-0.434143	
-0.433716	
-0.431335	
-0.42926	
-0.428345	
-0.427185	
-0.425171	
-0.423157	
-0.420044	
-0.416809	
-0.41449	
-0.410767	
-0.407104	
-0.403992	
-0.400208	
-0.394714	
-0.390198	
-0.385193	
-0.380249	
-0.374207	
-0.366577	
-0.360352	
-0.351685	
-0.343811	
-0.336182	
-0.328003	
-0.318909	
-0.309448	
-0.30011	
-0.290466	
-0.280884	
-0.271851	
-0.263428	
-0.255798	
-0.248535	
-0.242676	
-0.238831	
-0.23645	
-0.234314	
-0.233154	
-0.233582	
-0.235229	
-0.236511	
-0.238953	
-0.242065	
-0.244934	
-0.248474	
-0.252747	
-0.257202	
-0.261597	
-0.266113	
-0.270752	
-0.275696	
-0.280762	
-0.285461	
-0.289612	
-0.294006	
-0.29895	
-0.303894	
-0.308777	
-0.31311	
-0.317078	
-0.320618	
-0.324585	
-0.328003	
-0.329773	
-0.332031	
-0.332886	
-0.334595	
-0.336975	
-0.338867	
-0.340637	
-0.342102	
-0.343506	
-0.345886	
-0.347595	
-0.346924	
-0.348145	
-0.348694	
-0.350952	
-0.350891	
-0.353271	
-0.355408	
-0.356934	
-0.3573	
-0.358643	
-0.360535	
-0.360474	
-0.360229	
-0.360718	
-0.362	
-0.361755	
-0.362915	
-0.364502	
-0.365234	
-0.365601	
-0.366272	
-0.36792	
-0.368286	
-0.368286	
-0.368469	
-0.367371	
-0.368652	
-0.369812	
-0.370056	
-0.369568	
-0.369873	
-0.370728	
-0.371094	
-0.371155	
-0.371399	
-0.37085	
-0.369141	
-0.370605	
-0.371094	
-0.370178	
-0.371277	
-0.371704	
-0.372742	
-0.372864	
-0.374146	
-0.37323	
-0.373108	
-0.372192	
-0.373291	
-0.373169	
-0.37323	
-0.373352	
-0.373657	
-0.373718	
-0.373718	
-0.375183	
-0.374146	
-0.37384	
-0.373291	
-0.371826	
-0.373108	
-0.372131	
-0.372742	
-0.372925	
-0.373352	
-0.373108	
-0.373352	
-0.37439	
-0.373108	
-0.373657	
-0.372498	
-0.372864	
-0.373352	
-0.373901	
-0.373108	
-0.374023	
-0.374756	
-0.375061	
-0.376343	
-0.375916	
-0.376465	
-0.374878	
-0.376282	
-0.376099	
-0.375183	
-0.375732	
-0.375549	
-0.375427	
-0.375488	
-0.375977	
-0.374939	
-0.373962	
-0.37439	
-0.373901	
-0.373047	
-0.372437	
-0.372742	
-0.372437	
-0.372314	
-0.373047	
-0.373718	
-0.372742	
-0.37262	
-0.373657	
-0.373596	
-0.373962	
-0.374268	
-0.375061	
-0.374451	
-0.375671	
-0.376892	
-0.378235	
-0.378235	
-0.377808	
-0.378235	
-0.379089	
-0.379333	
-0.380127	
-0.379517	
-0.380554	
-0.381348	
-0.382324	
-0.383606	
-0.383545	
-0.38385	
-0.383728	
-0.384216	
-0.384827	
-0.384705	
-0.384644	
-0.385132	
-0.386414	
-0.385986	
-0.387207	
-0.387329	
-0.387817	
-0.387878	
-0.389465	
-0.389343	
-0.389465	
-0.389587	
-0.389771	
-0.389709	
-0.390808	
-0.391052	
-0.391235	
-0.392029	
-0.391724	
-0.391357	
-0.392273	
-0.392639	
-0.391663	
-0.390991	
-0.391663	
-0.39093	
-0.391418	
-0.391968	
-0.391052	
-0.39209	
-0.39093	
-0.390747	
-0.389587	
-0.391235	
-0.390076	
-0.389893	
-0.389893	
-0.389709	
-0.390686	
-0.39032	
-0.390808	
-0.389526	
-0.388916	
-0.391052	
-0.389038	
-0.38916	
-0.389526	
-0.390198	
-0.389526	
-0.390015	
-0.390259	
-0.390259	
-0.391846	
-0.390503	
-0.391235	
-0.390259	
-0.391846	
-0.391174	
-0.390381	
-0.391602	
-0.391785	
-0.391785	
-0.391907	
-0.393433	
-0.392456	
-0.39325	
-0.393433	
-0.393188	
-0.39386	
-0.392822	
-0.393982	
-0.393738	
-0.393799	
-0.39386	
-0.395142	
-0.39502	
-0.393555	
-0.395386	
-0.394287	
-0.395874	
-0.395569	
-0.395996	
-0.395752	
-0.395996	
-0.396729	
-0.395935	
-0.39679	
-0.395935	
-0.396606	
-0.396179	
-0.395386	
-0.396118	
-0.394531	
-0.395996	
-0.395325	
-0.39624	
-0.395874	
-0.396545	
-0.396179	
-0.395508	
-0.396057	
-0.394653	
-0.394958	
-0.393616	
-0.393555	
-0.393738	
-0.392761	
-0.392151	
-0.392273	
-0.393005	
-0.390442	
-0.392029	
-0.390381	
-0.391724	
-0.39093	
-0.390808	
-0.390869	
-0.390442	
-0.391907	
-0.391907	
-0.392639	
-0.392456	
-0.392151	
-0.392334	
-0.392578	
-0.393372	
-0.391235	
-0.392456	
-0.392639	
-0.393066	
-0.393005	
-0.393494	
-0.394104	
-0.393188	
-0.393982	
-0.392273	
-0.39386	
-0.393738	
-0.394043	
-0.394348	
-0.393494	
-0.395264	
-0.394897	
-0.395935	
-0.395996	
-0.395508	
-0.395508	
-0.396423	
-0.398254	
-0.396973	
-0.398376	
-0.398621	
-0.399597	
-0.399536	
-0.400452	
-0.401062	
-0.399902	
-0.401428	
-0.400635	
-0.401306	
-0.401978	
-0.402649	
-0.402466	
-0.401428	
-0.402893	
-0.402649	
-0.402527	
-0.402344	
-0.401794	
-0.401978	
-0.401428	
-0.400269	
-0.399841	
-0.401001	
-0.400818	
-0.40033	
-0.400757	
-0.39978	
-0.400146	
-0.400391	
-0.400452	
-0.399353	
-0.39856	
-0.399597	
-0.399414	
-0.398682	
-0.398682	
-0.39917	
-0.399048	
-0.399048	
-0.399963	
-0.398926	
-0.398499	
-0.398621	
-0.398193	
-0.397522	
-0.397827	
-0.398438	
-0.397766	
-0.398804	
-0.397644	
-0.39801	
-0.39917	
-0.398926	
-0.398315	
-0.39801	
-0.398254	
-0.398682	
-0.397949	
-0.398438	
-0.398254	
-0.398315	
-0.398682	
-0.399048	
-0.398315	
-0.399231	
-0.398804	
-0.398254	
-0.398315	
-0.399048	
-0.399658	
-0.399048	
-0.400269	
-0.399231	
-0.39978	
-0.400513	
-0.40094	
-0.399597	
-0.399597	
-0.40033	
-0.399963	
-0.400208	
-0.399597	
-0.399963	
-0.400818	
-0.400452	
-0.400146	
-0.400269	
-0.40094	
-0.399597	
-0.399963	
-0.398987	
-0.398987	
-0.398926	
-0.398132	
-0.399109	
-0.397888	
-0.397888	
-0.397827	
-0.397827	
-0.396484	
-0.396423	
-0.395752	
-0.394897	
-0.395813	
-0.395508	
-0.395386	
-0.395691	
-0.395569	
-0.39563	
-0.395569	
-0.397705	
-0.396118	
-0.39624	
-0.39563	
-0.396423	
-0.39679	
-0.395996	
-0.397766	
-0.397034	
-0.396545	
-0.397095	
-0.398499	
-0.397949	
-0.397583	
-0.397522	
-0.396362	
-0.397644	
-0.397583	
-0.397461	
-0.398193	
-0.397705	
-0.398743	
-0.398987	
-0.399414	
-0.398804	
-0.399597	
-0.399719	
-0.397705	
-0.399292	
-0.400024	
-0.400757	
-0.401062	
-0.401794	
-0.4021	
-0.402344	
-0.404297	
-0.40387	
-0.403992	
-0.402893	
-0.403259	
-0.404724	
-0.404358	
-0.406067	
-0.405457	
-0.405884	
-0.405884	
-0.406189	
-0.407349	
-0.405457	
-0.405701	
-0.403809	
-0.404724	
-0.404968	
-0.40332	
-0.404663	
-0.404297	
-0.404114	
-0.403503	
-0.405273	
-0.405884	
-0.403687	
-0.404297	
-0.402527	
-0.403137	
-0.402954	
-0.403687	
-0.403259	
-0.403625	
-0.403442	
-0.401611	
-0.403992	
-0.403564	
-0.402527	
-0.4021	
-0.401184	
-0.402344	
-0.40094	
-0.402283	
-0.401672	
-0.401184	
-0.400024	
-0.400452	
-0.401428	
-0.399658	
-0.400024	
-0.398743	
-0.397705	
-0.398987	
-0.398865	
-0.399597	
-0.398987	
-0.398315	
-0.398438	
-0.398804	
-0.400024	
-0.398254	
-0.398743	
-0.397949	
-0.397339	
-0.398743	
-0.398865	
-0.399841	
-0.39978	
-0.399109	
-0.398804	
-0.400085	
-0.401001	
-0.400085	
-0.399841	
-0.398804	
-0.39978	
-0.400574	
-0.400208	
-0.40033	
-0.400452	
-0.400879	
-0.39978	
-0.401306	
-0.40155	
-0.402283	
-0.401062	
-0.399414	
-0.400452	
-0.401062	
-0.40155	
-0.400818	
-0.401611	
-0.401306	
-0.400391	
-0.401672	
-0.402161	
-0.401306	
-0.400574	
-0.399048	
-0.399536	
-0.401001	
-0.401184	
-0.400452	
-0.400635	
-0.400452	
-0.400757	
-0.4021	
-0.4021	
-0.400574	
-0.400391	
-0.399658	
-0.400269	
-0.40094	
-0.40094	
-0.399719	
-0.399963	
-0.399902	
-0.400085	
-0.401245	
-0.400757	
-0.399475	
-0.398621	
-0.399048	
-0.399536	
-0.399536	
-0.400513	
-0.399597	
-0.399231	
-0.398743	
-0.399658	
-0.400452	
-0.399963	
-0.399841	
-0.398865	
-0.398987	
-0.400208	
-0.400818	
-0.400757	
-0.400574	
-0.401062	
-0.400635	
-0.402405	
-0.403381	
-0.402893	
-0.402954	
-0.402649	
-0.402222	
-0.404236	
-0.40448	
-0.404724	
-0.405151	
-0.404358	
-0.403381	
-0.405029	
-0.40509	
-0.404114	
-0.404297	
-0.403687	
-0.401978	
-0.403748	
-0.403809	
-0.403687	
-0.403015	
-0.403198	
-0.402161	
-0.404724	
-0.404907	
-0.403625	
-0.402771	
-0.402039	
-0.402527	
-0.402832	
-0.403137	
-0.402588	
-0.402832	
-0.402649	
-0.401794	
-0.403687	
-0.404053	
-0.401733	
-0.401672	
-0.400391	
-0.40155	
-0.401489	
-0.402039	
-0.400696	
-0.40033	
-0.400024	
-0.399353	
-0.400024	
-0.400146	
-0.397949	
-0.397095	
-0.396057	
-0.396851	
-0.396973	
-0.397644	
-0.397034	
-0.396912	
-0.396301	
-0.396545	
-0.397339	
-0.397827	
-0.396912	
-0.395935	
-0.396606	
-0.397766	
-0.398254	
-0.398682	
-0.398254	
-0.398804	
-0.398315	
-0.398987	
-0.399536	
-0.399231	
-0.398621	
-0.397461	
-0.398315	
-0.399597	
-0.399292	
-0.399536	
-0.399109	
-0.399292	
-0.398987	
-0.400269	
-0.400818	
-0.400208	
-0.400085	
-0.399414	
-0.398499	
-0.400513	
-0.400452	
-0.40033	
-0.400269	
-0.399536	
-0.399536	
-0.401062	
-0.400757	
-0.400818	
-0.400635	
-0.400085	
-0.398987	
-0.400818	
-0.401062	
-0.400635	
-0.400879	
-0.400452	
-0.399414	
-0.401672	
-0.401062	
-0.400574	
-0.400757	
-0.399414	
-0.398987	
-0.400024	
-0.400208	
-0.399231	
-0.399536	
-0.399719	
-0.399597	
-0.40033	
-0.400696	
-0.399109	
-0.398132	
-0.397278	
-0.398071	
-0.398682	
-0.400024	
-0.399292	
-0.399231	
-0.398621	
-0.399231	
-0.399536	
-0.400085	
-0.398132	
-0.3974	
-0.398438	
-0.399048	
-0.399658	
-0.40033	
-0.399902	
-0.399841	
-0.400879	
-0.401428	
-0.401794	
-0.403259	
-0.401611	
-0.401428	
-0.401794	
-0.402893	
-0.402893	
-0.403992	
-0.403564	
-0.403259	
-0.403259	
-0.404236	
-0.405212	
-0.404419	
-0.402893	
-0.402527	
-0.402405	
-0.402893	
-0.402771	
-0.403381	
-0.402344	
-0.402527	
-0.402039	
-0.403076	
-0.403442	
-0.402954	
-0.402588	
-0.401245	
-0.400391	
-0.40155	
-0.401855	
-0.401855	
-0.401245	
-0.401062	
-0.400757	
-0.402283	
-0.402344	
-0.401245	
-0.401001	
-0.400635	
-0.399475	
-0.399902	
-0.400146	
-0.399414	
-0.39856	
-0.397766	
-0.39801	
-0.39856	
-0.397583	
-0.396118	
-0.396179	
-0.394714	
-0.393555	
-0.394775	
-0.395569	
-0.39447	
-0.393921	
-0.394043	
-0.394409	
-0.395264	
-0.394836	
-0.394287	
-0.394531	
-0.39325	
-0.393127	
-0.395752	
-0.396118	
-0.394897	
-0.395447	
-0.395264	
-0.39624	
-0.396851	
-0.397766	
-0.395996	
-0.395081	
-0.394226	
-0.395203	
-0.396301	
-0.396606	
-0.396545	
-0.396729	
-0.396057	
-0.396912	
-0.397156	
-0.397705	
-0.39679	
-0.395996	
-0.396545	
-0.397522	
-0.398132	
-0.398499	
-0.397888	
-0.397461	
-0.397522	
-0.398438	
-0.40033	
-0.401001	
-0.399536	
-0.398926	
-0.399475	
-0.400757	
-0.401123	
-0.400879	
-0.401367	
-0.401001	
-0.400696	
-0.40155	
-0.402588	
-0.40271	
-0.401855	
-0.400635	
-0.400208	
-0.401672	
-0.40094	
-0.40033	
-0.401184	
-0.401123	
-0.398743	
-0.400635	
-0.400757	
-0.400635	
-0.399658	
-0.398071	
-0.398132	
-0.398987	
-0.400085	
-0.399292	
-0.398438	
-0.39917	
-0.399414	
-0.399902	
-0.39978	
-0.398865	
-0.397644	
-0.396667	
-0.398071	
-0.398865	
-0.39917	
-0.398438	
-0.398499	
-0.397949	
-0.398499	
-0.399963	
-0.399536	
-0.398315	
-0.398132	
-0.398376	
-0.397278	
-0.398621	
-0.398682	
-0.398682	
-0.398865	
-0.398926	
-0.399414	
-0.401611	
-0.400818	
-0.399475	
-0.399048	
-0.399048	
-0.398376	
-0.398987	
-0.399841	
-0.39917	
-0.399109	
-0.398193	
-0.399902	
-0.401733	
-0.401001	
-0.400024	
-0.398926	
-0.399414	
-0.398865	
-0.400757	
-0.39978	
-0.39978	
-0.399963	
-0.398865	
-0.40033	
-0.401001	
-0.400818	
-0.400208	
-0.399475	
-0.398804	
-0.399536	
-0.400574	
-0.39917	
-0.399536	
-0.398132	
-0.398621	
-0.398682	
-0.398743	
-0.3974	
-0.396851	
-0.395264	
-0.39502	
-0.39624	
-0.396423	
-0.395386	
-0.394653	
-0.394653	
-0.395325	
-0.395264	
-0.395752	
-0.39563	
-0.395935	
-0.393677	
-0.394165	
-0.39624	
-0.39624	
-0.395569	
-0.395264	
-0.395569	
-0.395752	
-0.396545	
-0.397766	
-0.396851	
-0.395508	
-0.394653	
-0.394775	
-0.395996	
-0.396545	
-0.396484	
-0.396606	
-0.39563	
-0.397278	
-0.397339	
-0.398254	
-0.397034	
-0.396423	
-0.395325	
-0.395874	
-0.398193	
-0.397644	
-0.397705	
-0.398193	
-0.397705	
-0.399475	
-0.400513	
-0.401917	
-0.400513	
-0.400696	
-0.39978	
-0.400879	
-0.401855	
-0.401733	
-0.402527	
-0.402527	
-0.402222	
-0.402893	
-0.403748	
-0.404846	
-0.403381	
-0.402466	
-0.400757	
-0.401245	
-0.402649	
-0.401917	
-0.401428	
-0.401184	
-0.400757	
-0.401062	
-0.401855	
-0.403198	
-0.399841	
-0.39917	
-0.399048	
-0.399719	
-0.400757	
-0.399597	
-0.40033	
-0.399597	
-0.399414	
-0.399231	
-0.400879	
-0.401306	
-0.399292	
-0.399048	
-0.398071	
-0.399109	
-0.400208	
-0.398071	
-0.39856	
-0.398254	
-0.398254	
-0.39856	
-0.39978	
-0.398865	
-0.397888	
-0.397827	
-0.397034	
-0.398438	
-0.398315	
-0.398132	
-0.398254	
-0.397949	
-0.398682	
-0.398926	
-0.400024	
-0.399048	
-0.398376	
-0.397461	
-0.396362	
-0.399353	
-0.399414	
-0.398743	
-0.398438	
-0.397522	
-0.399658	
-0.399658	
-0.401306	
-0.399414	
-0.399048	
-0.399109	
-0.397156	
-0.399109	
-0.398682	
-0.399414	
-0.39978	
-0.398804	
-0.399719	
-0.399963	
-0.402039	
-0.39978	
-0.399048	
-0.398621	
-0.398071	
-0.400269	
-0.39978	
-0.399109	
-0.39801	
-0.398743	
-0.398132	
-0.397888	
-0.399597	
-0.397217	
-0.396667	
-0.395081	
-0.395142	
-0.396118	
-0.395325	
-0.394714	
-0.395081	
-0.39502	
-0.39447	
-0.395081	
-0.397583	
-0.395447	
-0.394287	
-0.394226	
-0.394714	
-0.396057	
-0.395142	
-0.395203	
-0.395996	
-0.396179	
-0.396301	
-0.395752	
-0.39801	
-0.396545	
-0.396179	
-0.395569	
-0.396179	
-0.396973	
-0.396423	
-0.396484	
-0.395752	
-0.396667	
-0.396851	
-0.397339	
-0.398621	
-0.397278	
-0.397095	
-0.396667	
-0.398132	
-0.397827	
-0.397888	
-0.398193	
-0.398682	
-0.400024	
-0.399902	
-0.401184	
-0.402649	
-0.402405	
-0.402283	
-0.401672	
-0.402893	
-0.403259	
-0.403564	
-0.403809	
-0.403503	
-0.404053	
-0.404663	
-0.405029	
-0.405396	
-0.404968	
-0.404785	
-0.402649	
-0.404419	
-0.404236	
-0.403198	
-0.402527	
-0.402039	
-0.402588	
-0.403015	
-0.403564	
-0.403931	
-0.402649	
-0.402405	
-0.400208	
-0.402466	
-0.402039	
-0.402039	
-0.401672	
-0.401794	
-0.401855	
-0.401733	
-0.4021	
-0.402527	
-0.400818	
-0.401184	
-0.400085	
-0.400818	
-0.400818	
-0.400879	
-0.400574	
-0.40033	
-0.399353	
-0.39917	
-0.400391	
-0.399658	
-0.398743	
-0.397339	
-0.396606	
-0.396851	
-0.397644	
-0.397156	
-0.397461	
-0.397461	
-0.396606	
-0.396851	
-0.397644	
-0.396912	
-0.396301	
-0.396545	
-0.395691	
-0.396484	
-0.396912	
-0.397583	
-0.397156	
-0.397766	
-0.397827	
-0.397766	
-0.398926	
-0.398254	
-0.398315	
-0.397217	
-0.396484	
-0.397644	
-0.398376	
-0.398743	
-0.39801	
-0.397827	
-0.398499	
-0.398926	
-0.39978	
-0.39917	
-0.398987	
-0.398743	
-0.397522	
-0.398315	
-0.399536	
-0.399048	
-0.398438	
-0.39917	
-0.399048	
-0.399048	
-0.399963	
-0.399536	
-0.398621	
-0.398499	
-0.397034	
-0.397278	
-0.398621	
-0.398743	
-0.397766	
-0.398682	
-0.398376	
-0.398804	
-0.398987	
-0.398804	
-0.399292	
-0.39801	
-0.397156	
-0.397461	
-0.398926	
-0.398499	
-0.397095	
-0.397339	
-0.397644	
-0.398804	
-0.399109	
-0.397766	
-0.397095	
-0.396729	
-0.396423	
-0.396362	
-0.3974	
-0.39679	
-0.397522	
-0.397644	
-0.397522	
-0.398315	
-0.398132	
-0.397888	
-0.397156	
-0.397522	
-0.39679	
-0.396667	
-0.398376	
-0.397949	
-0.398254	
-0.398621	
-0.398376	
-0.40033	
-0.401123	
-0.400757	
-0.400452	
-0.401184	
-0.401123	
-0.40033	
-0.401428	
-0.401672	
-0.402344	
-0.402283	
-0.402283	
-0.403259	
-0.403503	
-0.402344	
-0.401611	
-0.401794	
-0.401367	
-0.400269	
-0.401733	
-0.401123	
-0.401428	
-0.401611	
-0.401428	
-0.40155	
-0.402466	
-0.401428	
-0.400208	
-0.40033	
-0.400574	
-0.39917	
-0.400818	
-0.400574	
-0.400513	
-0.400452	
-0.400208	
-0.401428	
-0.401428	
-0.400085	
-0.399719	
-0.400208	
-0.398499	
-0.398132	
-0.398865	
-0.397766	
-0.39856	
-0.398254	
-0.397461	
-0.397644	
-0.397522	
-0.39624	
-0.396057	
-0.394897	
-0.393799	
-0.393738	
-0.394165	
-0.393188	
-0.394165	
-0.393921	
-0.393982	
-0.395508	
-0.395569	
-0.394836	
-0.394226	
-0.394348	
-0.393677	
-0.39447	
-0.395447	
-0.39447	
-0.396057	
-0.395935	
-0.396667	
-0.397034	
-0.397339	
-0.396545	
-0.395874	
-0.396301	
-0.395142	
-0.395996	
-0.396606	
-0.39563	
-0.39679	
-0.396729	
-0.396912	
-0.3974	
-0.398682	
-0.397522	
-0.397034	
-0.396912	
-0.397156	
-0.397583	
-0.3974	
-0.396667	
-0.397766	
-0.397827	
-0.397644	
-0.398315	
-0.399597	
-0.398376	
-0.397888	
-0.398499	
-0.397583	
-0.397766	
-0.397949	
-0.397583	
-0.398132	
-0.398132	
-0.398438	
-0.398804	
-0.39978	
-0.398926	
-0.397644	
-0.398193	
-0.397644	
-0.396729	
-0.396606	
-0.397034	
-0.397156	
-0.396606	
-0.396973	
-0.3974	
-0.39801	
-0.397034	
-0.396057	
-0.396667	
-0.39624	
-0.395691	
-0.396301	
-0.396362	
-0.396606	
-0.396606	
-0.396606	
-0.397156	
-0.397095	
-0.396729	
-0.395813	
-0.396606	
-0.396179	
-0.396362	
-0.396606	
-0.397095	
-0.397705	
-0.397888	
-0.398376	
-0.398865	
-0.400085	
-0.400024	
-0.398193	
-0.399475	
-0.399841	
-0.400085	
-0.400208	
-0.400635	
-0.400452	
-0.400635	
-0.401245	
-0.401611	
-0.402039	
-0.401001	
-0.399353	
-0.400085	
-0.399536	
-0.399475	
-0.399963	
-0.399719	
-0.39917	
-0.399475	
-0.399719	
-0.400085	
-0.400391	
-0.399536	
-0.398193	
-0.398743	
-0.398926	
-0.39856	
-0.398743	
-0.398132	
-0.398682	
-0.398438	
-0.398926	
-0.398682	
-0.398682	
-0.398682	
-0.397095	
-0.397522	
-0.396851	
-0.39679	
-0.396301	
-0.395752	
-0.394836	
-0.394531	
-0.39447	
-0.394104	
-0.394104	
-0.393494	
-0.391479	
-0.392029	
-0.391663	
-0.391602	
-0.391052	
-0.390869	
-0.390442	
-0.391479	
-0.391296	
-0.391602	
-0.3927	
-0.392395	
-0.39032	
-0.391113	
-0.391541	
-0.391846	
-0.390991	
-0.392029	
-0.392395	
-0.392944	
-0.392761	
-0.393494	
-0.393921	
-0.392761	
-0.392273	
-0.392578	
-0.392639	
-0.393188	
-0.391724	
-0.393738	
-0.393799	
-0.393372	
-0.393555	
-0.39386	
-0.395325	
-0.394409	
-0.393005	
-0.393066	
-0.39386	
-0.394836	
-0.39325	
-0.39502	
-0.395142	
-0.39502	
-0.396423	
-0.397217	
-0.398376	
-0.397095	
-0.396484	
-0.395996	
-0.39679	
-0.397583	
-0.397095	
-0.398071	
-0.39801	
-0.398438	
-0.398621	
-0.399109	
-0.399231	
-0.398499	
-0.398376	
-0.397034	
-0.396667	
-0.396912	
-0.396851	
-0.397034	
-0.396912	
-0.396057	
-0.396912	
-0.3974	
-0.397766	
-0.395874	
-0.396606	
-0.395081	
-0.39502	
-0.395569	
-0.395691	
-0.395935	
-0.395569	
-0.395569	
-0.396301	
-0.39624	
-0.396973	
-0.395203	
-0.395874	
-0.394287	
-0.394409	
-0.394775	
-0.394897	
-0.395325	
-0.395325	
-0.39502	
-0.39624	
-0.396118	
-0.396667	
-0.395691	
-0.395874	
-0.39447	
-0.393982	
-0.395264	
-0.396118	
-0.395935	
-0.396301	
-0.396484	
-0.396851	
-0.396851	
-0.397522	
-0.395874	
-0.395813	
-0.395691	
-0.394653	
-0.395996	
-0.395874	
-0.396179	
-0.396545	
-0.396423	
-0.3974	
-0.397522	
-0.396973	
-0.39624	
-0.396729	
-0.395508	
-0.395386	
-0.396057	
-0.396851	
-0.396545	
-0.396545	
-0.39624	
-0.397339	
-0.396912	
-0.396729	
-0.396545	
-0.39563	
-0.395081	
-0.394897	
-0.394653	
-0.395691	
-0.394897	
-0.395142	
-0.394043	
-0.394409	
-0.394287	
-0.393616	
-0.392883	
-0.391846	
-0.390442	
-0.390259	
-0.391602	
-0.391663	
-0.391907	
-0.392212	
-0.392029	
-0.392517	
-0.392517	
-0.392212	
-0.392822	
-0.391846	
-0.390259	
-0.391418	
-0.392517	
-0.393005	
-0.392883	
	
