E:\DOCUMENTS AND SETTINGS\JPOTAS\MEUS DOCUMENTOS\UFRJ\RSCI-BM 12 WK SERIES\070730-RSCI-BM-09\RSCI-BM-09-LEMG\070730-RSCI-BM-09-LEMG-0003.ACQ
0.025000 msec/sample
1 channel
Analog input
Volts
CH1	
2000	
-0.403748	
-0.404541	
-0.404724	
-0.404846	
-0.405029	
-0.406189	
-0.405945	
-0.406067	
-0.406799	
-0.406921	
-0.406006	
-0.405945	
-0.406677	
-0.40625	
-0.407288	
-0.407837	
-0.407654	
-0.408752	
-0.408203	
-0.408325	
-0.409363	
-0.408447	
-0.408447	
-0.408813	
-0.408203	
-0.407715	
-0.408691	
-0.408752	
-0.407593	
-0.408386	
-0.408447	
-0.407715	
-0.407654	
-0.406799	
-0.40625	
-0.405334	
-0.404419	
-0.403748	
-0.40387	
-0.403687	
-0.403564	
-0.403503	
-0.403931	
-0.403198	
-0.403259	
-0.403687	
-0.40332	
-0.402954	
-0.402893	
-0.403259	
-0.402771	
-0.40271	
-0.402649	
-0.402832	
-0.403748	
-0.403137	
-0.403015	
-0.403381	
-0.403687	
-0.402954	
-0.402649	
-0.402588	
-0.402771	
-0.403442	
-0.402954	
-0.403259	
-0.403687	
-0.403625	
-0.403625	
-0.403931	
-0.403809	
-0.403687	
-0.404114	
-0.402954	
-0.403137	
-0.404541	
-0.404358	
-0.403687	
-0.404846	
-0.404724	
-0.405518	
-0.406677	
-0.407104	
-0.406616	
-0.407043	
-0.406494	
-0.404663	
-0.406738	
-0.40686	
-0.406677	
-0.407288	
-0.407593	
-0.407227	
-0.407349	
-0.407898	
-0.407898	
-0.407471	
-0.406555	
-0.406494	
-0.406555	
-0.406738	
-0.405823	
-0.406006	
-0.406799	
-0.405701	
-0.405823	
-0.406433	
-0.406372	
-0.405029	
-0.40509	
-0.405212	
-0.404846	
-0.405518	
-0.405273	
-0.404419	
-0.406555	
-0.405701	
-0.405823	
-0.406921	
-0.406189	
-0.406067	
-0.406311	
-0.405701	
-0.405823	
-0.40686	
-0.40686	
-0.405945	
-0.406799	
-0.406616	
-0.406616	
-0.406921	
-0.406616	
-0.406677	
-0.406311	
-0.405396	
-0.406738	
-0.406311	
-0.406189	
-0.40625	
-0.406494	
-0.40625	
-0.405334	
-0.405701	
-0.406738	
-0.405273	
-0.404846	
-0.404236	
-0.404358	
-0.404602	
-0.404358	
-0.404846	
-0.404785	
-0.405212	
-0.404846	
-0.405457	
-0.406311	
-0.405701	
-0.405334	
-0.405334	
-0.404846	
-0.405579	
-0.405762	
-0.405823	
-0.40509	
-0.406982	
-0.406128	
-0.406311	
-0.407166	
-0.406677	
-0.406555	
-0.405701	
-0.405762	
-0.405762	
-0.405579	
-0.405579	
-0.404724	
-0.405518	
-0.405945	
-0.405579	
-0.406494	
-0.405823	
-0.405518	
-0.405334	
-0.405212	
-0.404968	
-0.404541	
-0.404053	
-0.403503	
-0.403564	
-0.403198	
-0.402405	
-0.402832	
-0.402893	
-0.401794	
-0.401917	
-0.400696	
-0.401733	
-0.396851	
-0.381226	
-0.378235	
-0.378479	
-0.380127	
-0.379517	
-0.386292	
-0.401794	
-0.403992	
-0.403503	
-0.403076	
-0.403015	
-0.403137	
-0.402893	
-0.402771	
-0.402893	
-0.403198	
-0.403076	
-0.403198	
-0.404114	
-0.402405	
-0.402954	
-0.403564	
-0.404236	
-0.404358	
-0.403992	
-0.403992	
-0.404114	
-0.404419	
-0.404541	
-0.404541	
-0.405884	
-0.403931	
-0.403809	
-0.404114	
-0.403687	
-0.404053	
-0.403992	
-0.403503	
-0.404846	
-0.40509	
-0.405762	
-0.40509	
-0.406006	
-0.405701	
-0.404785	
-0.404541	
-0.404297	
-0.404785	
-0.406128	
-0.406311	
-0.405762	
-0.407043	
-0.407654	
-0.406738	
-0.407837	
-0.407898	
-0.406128	
-0.406311	
-0.404419	
-0.40625	
-0.406067	
-0.406311	
-0.405762	
-0.407471	
-0.408508	
-0.409668	
-0.411987	
-0.414307	
-0.414856	
-0.418945	
-0.42041	
-0.425415	
-0.428772	
-0.432129	
-0.43457	
-0.439819	
-0.444153	
-0.446411	
-0.450317	
-0.451721	
-0.454712	
-0.457703	
-0.459106	
-0.462646	
-0.463989	
-0.465027	
-0.465576	
-0.468079	
-0.470154	
-0.470215	
-0.4729	
-0.470032	
-0.470703	
-0.470276	
-0.471497	
-0.471436	
-0.471619	
-0.471924	
-0.472351	
-0.473816	
-0.474976	
-0.475098	
-0.478516	
-0.477661	
-0.479187	
-0.480469	
-0.481567	
-0.482849	
-0.48407	
-0.485107	
-0.485535	
-0.487976	
-0.489502	
-0.48938	
-0.491394	
-0.489441	
-0.489563	
-0.489502	
-0.49054	
-0.490173	
-0.490295	
-0.490234	
-0.488831	
-0.489502	
-0.488892	
-0.487061	
-0.487061	
-0.484619	
-0.483704	
-0.481262	
-0.481628	
-0.47876	
-0.476807	
-0.474915	
-0.473572	
-0.472351	
-0.471985	
-0.470581	
-0.470825	
-0.46814	
-0.467529	
-0.466431	
-0.468262	
-0.46698	
-0.467102	
-0.467102	
-0.466858	
-0.466614	
-0.466919	
-0.467102	
-0.466492	
-0.465637	
-0.465515	
-0.463684	
-0.464661	
-0.462646	
-0.461365	
-0.46051	
-0.458984	
-0.458069	
-0.456421	
-0.455566	
-0.454346	
-0.451416	
-0.448669	
-0.445984	
-0.445068	
-0.440674	
-0.436584	
-0.431885	
-0.426819	
-0.420837	
-0.414978	
-0.407715	
-0.402405	
-0.392761	
-0.38562	
-0.379028	
-0.371643	
-0.365295	
-0.359558	
-0.352966	
-0.345764	
-0.340637	
-0.335815	
-0.329285	
-0.324463	
-0.317322	
-0.312378	
-0.308777	
-0.305298	
-0.304932	
-0.304688	
-0.303894	
-0.302979	
-0.305542	
-0.307007	
-0.308777	
-0.311035	
-0.311951	
-0.314087	
-0.315979	
-0.321228	
-0.32373	
-0.32666	
-0.329834	
-0.333313	
-0.337158	
-0.339722	
-0.343994	
-0.345642	
-0.34845	
-0.349792	
-0.3526	
-0.355835	
-0.357666	
-0.359009	
-0.360413	
-0.362915	
-0.364502	
-0.365417	
-0.366821	
-0.366638	
-0.367798	
-0.368591	
-0.371338	
-0.371399	
-0.372559	
-0.373535	
-0.374268	
-0.375305	
-0.376526	
-0.379761	
-0.377869	
-0.378113	
-0.378906	
-0.380005	
-0.381958	
-0.381958	
-0.383362	
-0.383423	
-0.384888	
-0.385254	
-0.386169	
-0.387329	
-0.386292	
-0.387695	
-0.386841	
-0.388733	
-0.388855	
-0.389954	
-0.389771	
-0.389282	
-0.390869	
-0.390442	
-0.391357	
-0.390015	
-0.388916	
-0.38916	
-0.385742	
-0.389099	
-0.388245	
-0.387695	
-0.387146	
-0.386169	
-0.387634	
-0.386597	
-0.387756	
-0.385864	
-0.385498	
-0.383789	
-0.38446	
-0.384583	
-0.383057	
-0.382568	
-0.382141	
-0.381897	
-0.380981	
-0.381287	
-0.381409	
-0.379639	
-0.379822	
-0.379028	
-0.379395	
-0.379822	
-0.37915	
-0.379028	
-0.378113	
-0.378174	
-0.377869	
-0.37854	
-0.378113	
-0.376038	
-0.37616	
-0.374756	
-0.376282	
-0.37677	
-0.376648	
-0.376038	
-0.376526	
-0.377258	
-0.377258	
-0.378174	
-0.37738	
-0.377808	
-0.377991	
-0.377258	
-0.379761	
-0.380371	
-0.380859	
-0.381104	
-0.381653	
-0.38324	
-0.382935	
-0.383911	
-0.383484	
-0.383057	
-0.383179	
-0.38269	
-0.385315	
-0.386597	
-0.386047	
-0.386963	
-0.388	
-0.389465	
-0.389465	
-0.39093	
-0.389832	
-0.389893	
-0.389404	
-0.390015	
-0.391174	
-0.391541	
-0.391846	
-0.392151	
-0.391541	
-0.393494	
-0.394165	
-0.394348	
-0.393555	
-0.393372	
-0.393188	
-0.393616	
-0.394287	
-0.394287	
-0.394409	
-0.39386	
-0.394043	
-0.39447	
-0.395264	
-0.395264	
-0.394226	
-0.393982	
-0.393555	
-0.394104	
-0.393982	
-0.39386	
-0.393616	
-0.393066	
-0.392334	
-0.393921	
-0.394287	
-0.39447	
-0.3927	
-0.393433	
-0.393005	
-0.393738	
-0.393799	
-0.393921	
-0.393738	
-0.394104	
-0.393799	
-0.394897	
-0.396179	
-0.395264	
-0.394714	
-0.395081	
-0.394287	
-0.395325	
-0.39563	
-0.396179	
-0.396484	
-0.395996	
-0.395752	
-0.396729	
-0.397888	
-0.397278	
-0.395142	
-0.395874	
-0.396729	
-0.3974	
-0.397705	
-0.398621	
-0.397949	
-0.398193	
-0.398499	
-0.398804	
-0.400269	
-0.399231	
-0.39801	
-0.398682	
-0.39917	
-0.399475	
-0.399353	
-0.39978	
-0.399414	
-0.399536	
-0.399597	
-0.399292	
-0.401062	
-0.400391	
-0.399109	
-0.400146	
-0.399719	
-0.400391	
-0.400269	
-0.401245	
-0.400085	
-0.40094	
-0.400757	
-0.400146	
-0.400635	
-0.39856	
-0.397827	
-0.397766	
-0.397461	
-0.398438	
-0.397949	
-0.398376	
-0.398499	
-0.398438	
-0.399292	
-0.399597	
-0.399048	
-0.398315	
-0.398743	
-0.396606	
-0.397888	
-0.398682	
-0.398804	
-0.399109	
-0.398682	
-0.398376	
-0.397827	
-0.399109	
-0.397888	
-0.396667	
-0.396545	
-0.396057	
-0.396362	
-0.396484	
-0.396606	
-0.396057	
-0.396179	
-0.396606	
-0.395325	
-0.396362	
-0.396301	
-0.395325	
-0.394775	
-0.394775	
-0.394775	
-0.394592	
-0.394409	
-0.394958	
-0.394409	
-0.395325	
-0.39447	
-0.395203	
-0.395569	
-0.394531	
-0.393311	
-0.395813	
-0.396301	
-0.396484	
-0.397278	
-0.397278	
-0.397461	
-0.398865	
-0.398438	
-0.398438	
-0.399048	
-0.398193	
-0.399048	
-0.399536	
-0.400024	
-0.40033	
-0.401001	
-0.400818	
-0.401245	
-0.402039	
-0.40155	
-0.401733	
-0.401733	
-0.401184	
-0.400757	
-0.401306	
-0.401489	
-0.401184	
-0.40155	
-0.400635	
-0.40033	
-0.400452	
-0.399414	
-0.398621	
-0.397705	
-0.397217	
-0.397217	
-0.39624	
-0.39679	
-0.39679	
-0.396484	
-0.396484	
-0.396667	
-0.397583	
-0.396973	
-0.396667	
-0.396729	
-0.395813	
-0.396301	
-0.39624	
-0.39679	
-0.396667	
-0.396667	
-0.396729	
-0.396912	
-0.397034	
-0.397278	
-0.396851	
-0.396484	
-0.396057	
-0.396667	
-0.396179	
-0.396973	
-0.396851	
-0.397522	
-0.398376	
-0.39801	
-0.39856	
-0.398804	
-0.398132	
-0.397949	
-0.397827	
-0.398376	
-0.398621	
-0.398804	
-0.398865	
-0.399292	
-0.399963	
-0.399963	
-0.400757	
-0.401001	
-0.401184	
-0.400452	
-0.400574	
-0.401001	
-0.400757	
-0.40155	
-0.401306	
-0.401855	
-0.402527	
-0.402039	
-0.402527	
-0.402344	
-0.401184	
-0.401245	
-0.400879	
-0.400757	
-0.40094	
-0.401001	
-0.400391	
-0.400146	
-0.401123	
-0.401245	
-0.400574	
-0.399414	
-0.399475	
-0.399841	
-0.398254	
-0.399841	
-0.399658	
-0.399536	
-0.400024	
-0.400085	
-0.400574	
-0.400513	
-0.40033	
-0.400818	
-0.400024	
-0.400146	
-0.400696	
-0.401184	
-0.401123	
-0.400391	
-0.401794	
-0.401489	
-0.401794	
-0.40271	
-0.401184	
-0.40094	
-0.400879	
-0.400696	
-0.400391	
-0.400513	
-0.401001	
-0.400879	
-0.400818	
-0.400879	
-0.401489	
-0.401855	
-0.40094	
-0.39978	
-0.398621	
-0.399048	
-0.399353	
-0.399475	
-0.399536	
-0.39856	
-0.399414	
-0.399719	
-0.399902	
-0.401489	
-0.400574	
-0.400146	
-0.398376	
-0.400146	
-0.400696	
-0.400635	
-0.400208	
-0.399902	
-0.401062	
-0.40094	
-0.401367	
-0.40271	
-0.401306	
-0.40155	
-0.400696	
-0.399292	
-0.401428	
-0.401428	
-0.401062	
-0.400085	
-0.400757	
-0.400452	
-0.400574	
-0.401733	
-0.401184	
-0.400452	
-0.39978	
-0.399536	
-0.400635	
-0.400391	
-0.400635	
-0.399658	
-0.39978	
-0.399109	
-0.399536	
-0.400513	
-0.398071	
-0.397522	
-0.396912	
-0.395325	
-0.397644	
-0.397095	
-0.396729	
-0.396545	
-0.396667	
-0.396912	
-0.396423	
-0.397583	
-0.396729	
-0.396362	
-0.395569	
-0.395325	
-0.396667	
-0.396301	
-0.395874	
-0.395691	
-0.396118	
-0.396484	
-0.396606	
-0.397949	
-0.397034	
-0.39624	
-0.395935	
-0.395813	
-0.397766	
-0.397705	
-0.397705	
-0.398132	
-0.398376	
-0.398315	
-0.39856	
-0.400269	
-0.399292	
-0.398438	
-0.397766	
-0.398315	
-0.399414	
-0.39856	
-0.398499	
-0.398621	
-0.39856	
-0.398804	
-0.399048	
-0.401184	
-0.399353	
-0.399109	
-0.398438	
-0.398743	
-0.398682	
-0.398804	
-0.398438	
-0.398682	
-0.399109	
-0.399048	
-0.399414	
-0.401489	
-0.399597	
-0.398865	
-0.397644	
-0.398621	
-0.398987	
-0.397705	
-0.397339	
-0.397888	
-0.397827	
-0.397705	
-0.397156	
-0.399292	
-0.397095	
-0.396912	
-0.395996	
-0.396423	
-0.396851	
-0.396423	
-0.396667	
-0.396423	
-0.396301	
-0.396606	
-0.396301	
-0.397278	
-0.395996	
-0.396423	
-0.395081	
-0.395935	
-0.396851	
-0.396423	
-0.396301	
-0.396301	
-0.395508	
-0.396545	
-0.396729	
-0.398621	
-0.397156	
-0.398193	
-0.397095	
-0.398071	
-0.398254	
-0.398254	
-0.397949	
-0.397949	
-0.397095	
-0.397827	
-0.39856	
-0.399353	
-0.397705	
-0.398376	
-0.396057	
-0.397339	
-0.3974	
-0.397461	
-0.39679	
-0.397339	
-0.397095	
-0.397766	
-0.398132	
-0.398926	
-0.398315	
-0.398621	
-0.396179	
-0.397644	
-0.398071	
-0.398376	
-0.397949	
-0.397949	
-0.39801	
-0.39856	
-0.398682	
-0.400146	
-0.398743	
-0.398743	
-0.397095	
-0.398438	
-0.399231	
-0.398682	
-0.398804	
-0.398621	
-0.398987	
-0.398865	
-0.399414	
-0.400024	
-0.398926	
-0.398376	
-0.396667	
-0.397217	
-0.397705	
-0.396973	
-0.397461	
-0.397217	
-0.396667	
-0.396912	
-0.397461	
-0.397583	
-0.396179	
-0.395813	
-0.395386	
-0.394226	
-0.394714	
-0.394897	
-0.394165	
-0.394226	
-0.394104	
-0.393738	
-0.394653	
-0.394653	
-0.394165	
-0.393677	
-0.3927	
-0.393555	
-0.394104	
-0.394592	
-0.394409	
-0.394958	
-0.395691	
-0.396118	
-0.397217	
-0.39801	
-0.398193	
-0.39801	
-0.398254	
-0.398438	
-0.398682	
-0.399109	
-0.399231	
-0.399231	
-0.399231	
-0.398376	
-0.400269	
-0.400269	
-0.400452	
-0.399719	
-0.398865	
-0.399292	
-0.399414	
-0.399414	
-0.39917	
-0.399048	
-0.399353	
-0.398132	
-0.400146	
-0.40033	
-0.40033	
-0.39917	
-0.398865	
-0.397949	
-0.397827	
-0.39856	
-0.398926	
-0.398621	
-0.398743	
-0.398071	
-0.39917	
-0.399353	
-0.399658	
-0.398376	
-0.398132	
-0.396912	
-0.396912	
-0.397949	
-0.397217	
-0.397156	
-0.396667	
-0.395386	
-0.396118	
-0.395813	
-0.395508	
-0.395081	
-0.394409	
-0.393616	
-0.394775	
-0.394714	
-0.394104	
-0.394592	
-0.394958	
-0.394836	
-0.395569	
-0.39502	
-0.395325	
-0.395142	
-0.395447	
-0.394531	
-0.394897	
-0.395996	
-0.395508	
-0.396301	
-0.396423	
-0.395935	
-0.396912	
-0.396667	
-0.39679	
-0.396912	
-0.395447	
-0.396118	
-0.39624	
-0.395935	
-0.396057	
-0.395935	
-0.395691	
-0.395508	
-0.39624	
-0.395386	
-0.395996	
-0.395569	
-0.394287	
-0.394531	
-0.394287	
-0.394653	
-0.395874	
-0.394531	
-0.394653	
-0.394165	
-0.394958	
-0.394104	
-0.394775	
-0.39563	
-0.393921	
-0.394897	
-0.394043	
-0.395081	
-0.395752	
-0.394836	
-0.39563	
-0.395874	
-0.396606	
-0.396057	
-0.397095	
-0.397156	
-0.396362	
-0.396606	
-0.396057	
-0.395752	
-0.396851	
-0.395325	
-0.396301	
-0.395691	
-0.395874	
-0.396057	
-0.39679	
-0.395752	
-0.394531	
-0.395508	
-0.39502	
-0.393982	
-0.395325	
-0.393311	
-0.394653	
-0.394226	
-0.394775	
-0.394226	
-0.39502	
-0.394775	
-0.393555	
-0.39447	
-0.394165	
-0.39447	
-0.395691	
-0.394897	
-0.395386	
-0.395447	
-0.394836	
-0.395203	
-0.395935	
-0.395264	
-0.394226	
-0.395264	
-0.395752	
-0.395325	
-0.396545	
-0.396423	
-0.397034	
-0.397522	
-0.396973	
-0.397705	
-0.398865	
-0.398254	
-0.397278	
-0.398315	
-0.397705	
-0.398193	
-0.399292	
-0.398499	
-0.398193	
-0.398682	
-0.39856	
-0.399353	
-0.399841	
-0.398987	
-0.398987	
-0.398743	
-0.399719	
-0.39856	
-0.398621	
-0.398132	
-0.397644	
-0.398071	
-0.397949	
-0.398132	
-0.39856	
-0.397949	
-0.398499	
-0.397034	
-0.395996	
-0.396729	
-0.396606	
-0.396667	
-0.395386	
-0.396057	
-0.395264	
-0.396057	
-0.395752	
-0.395447	
-0.395874	
-0.395142	
-0.395386	
-0.39502	
-0.395386	
-0.395752	
-0.394958	
-0.395447	
-0.395691	
-0.395447	
-0.396423	
-0.395874	
-0.394958	
-0.395203	
-0.394348	
-0.395447	
-0.394531	
-0.395508	
-0.39447	
-0.395142	
-0.395752	
-0.395691	
-0.395874	
-0.394836	
-0.39563	
-0.395264	
-0.396057	
-0.396729	
-0.395874	
-0.397034	
-0.395813	
-0.395935	
-0.395996	
-0.396301	
-0.396606	
-0.396118	
-0.395752	
-0.396606	
-0.395752	
-0.397034	
-0.395081	
-0.397217	
-0.395813	
-0.395935	
-0.395935	
-0.395874	
-0.397217	
-0.396301	
-0.396545	
-0.396118	
-0.396362	
-0.396729	
-0.39502	
-0.39624	
-0.395447	
-0.39502	
-0.39502	
-0.393738	
-0.394897	
-0.39386	
-0.393738	
-0.393494	
-0.392334	
-0.394348	
-0.39325	
-0.393921	
-0.39386	
-0.393555	
-0.394043	
-0.394104	
-0.394348	
-0.393433	
-0.393372	
-0.393066	
-0.393494	
-0.393372	
-0.392395	
-0.39325	
-0.393005	
-0.39209	
-0.392639	
-0.392639	
-0.393311	
-0.392456	
-0.392456	
-0.391602	
-0.391113	
-0.391968	
-0.391174	
-0.39209	
-0.392517	
-0.390808	
-0.391541	
-0.392273	
-0.391968	
-0.391174	
-0.391357	
-0.390808	
-0.390259	
-0.39032	
-0.390137	
-0.390442	
-0.390625	
-0.390198	
-0.390564	
-0.390625	
-0.391663	
-0.391174	
-0.390625	
-0.391235	
-0.390503	
-0.391479	
-0.391357	
-0.392029	
-0.392334	
-0.391724	
-0.392639	
-0.393494	
-0.393311	
-0.39325	
-0.393616	
-0.393311	
-0.392944	
-0.39325	
-0.393921	
-0.393616	
-0.394226	
-0.393616	
-0.39386	
-0.394287	
-0.393494	
-0.393311	
-0.393005	
-0.392639	
-0.391174	
-0.391846	
-0.391602	
-0.39093	
-0.389893	
-0.388855	
-0.388855	
-0.388733	
-0.38739	
-0.387695	
-0.387329	
-0.38678	
-0.386292	
-0.386963	
-0.387512	
-0.386902	
-0.386841	
-0.386353	
-0.386658	
-0.38739	
-0.38562	
-0.386414	
-0.385864	
-0.385803	
-0.384827	
-0.385864	
-0.386108	
-0.385864	
-0.386047	
-0.385376	
-0.385681	
-0.386169	
-0.385132	
-0.385559	
-0.385803	
-0.385742	
-0.385254	
-0.385742	
-0.386047	
-0.385681	
-0.386475	
-0.386108	
-0.386353	
-0.387451	
-0.386169	
-0.386719	
-0.386475	
-0.386353	
-0.386047	
-0.387451	
-0.387634	
-0.386597	
-0.38855	
-0.387817	
-0.387878	
-0.38855	
-0.387329	
-0.388367	
-0.388611	
-0.388367	
-0.387329	
-0.388062	
-0.388184	
-0.387695	
-0.38855	
-0.388062	
-0.387939	
-0.388062	
-0.386902	
-0.386963	
-0.387024	
-0.386414	
-0.384949	
-0.385742	
-0.385986	
-0.384277	
-0.38501	
-0.385254	
-0.385132	
-0.385498	
-0.384949	
-0.385071	
-0.385193	
-0.385681	
-0.384949	
-0.38501	
-0.385437	
-0.384766	
-0.385254	
-0.385437	
-0.385559	
-0.386841	
-0.386047	
-0.385559	
-0.385254	
-0.386597	
-0.385071	
-0.38501	
-0.385742	
-0.38501	
-0.385071	
-0.384399	
-0.384277	
-0.385498	
-0.38501	
-0.38446	
-0.384094	
-0.384399	
-0.383972	
-0.383362	
-0.383911	
-0.382935	
-0.38269	
-0.381897	
-0.382202	
-0.382935	
-0.38147	
-0.381897	
-0.381775	
-0.380493	
-0.381409	
-0.382019	
-0.382202	
-0.381226	
-0.381653	
-0.381897	
-0.381775	
-0.381958	
-0.381348	
-0.382324	
-0.381958	
-0.381287	
-0.382263	
-0.382629	
-0.382568	
-0.382874	
-0.382568	
-0.381775	
-0.382202	
-0.382446	
-0.380981	
-0.381409	
-0.381287	
-0.379822	
-0.380615	
-0.380859	
-0.380554	
-0.380615	
-0.380615	
-0.38031	
-0.380981	
-0.381348	
-0.379822	
-0.379944	
-0.379761	
-0.378662	
-0.378906	
-0.378296	
-0.377747	
-0.377136	
-0.377136	
-0.376404	
-0.376404	
-0.37677	
-0.375549	
-0.375488	
-0.375122	
-0.375	
-0.374878	
-0.374939	
-0.374451	
-0.374268	
-0.374634	
-0.374207	
-0.374084	
-0.374268	
-0.374207	
-0.374146	
-0.373718	
-0.37439	
-0.373962	
-0.374023	
-0.374023	
-0.374023	
-0.374084	
-0.373962	
-0.374451	
-0.374939	
-0.374939	
-0.375488	
-0.375183	
-0.375793	
-0.375793	
-0.376099	
-0.375366	
-0.376038	
-0.375854	
-0.375061	
-0.376038	
-0.375916	
-0.375488	
-0.375488	
-0.374268	
-0.376099	
-0.376038	
-0.376282	
-0.376038	
-0.375671	
-0.376099	
-0.37561	
-0.376343	
-0.376282	
-0.375061	
-0.375671	
-0.374084	
-0.376099	
-0.375366	
-0.376404	
-0.375977	
-0.375793	
-0.375427	
-0.374451	
-0.375488	
-0.375061	
-0.373535	
-0.37384	
-0.373718	
-0.374878	
-0.372742	
-0.373901	
-0.372925	
-0.373108	
-0.373657	
-0.372437	
-0.373901	
-0.372437	
-0.372253	
-0.372803	
-0.372803	
-0.373352	
-0.372498	
-0.372742	
-0.372009	
-0.371704	
-0.372192	
-0.371704	
-0.37323	
-0.37207	
-0.371399	
-0.372375	
-0.372375	
-0.372925	
-0.372253	
-0.373108	
-0.372314	
-0.373047	
-0.374207	
-0.37384	
-0.37439	
-0.374207	
-0.374207	
-0.374817	
-0.374451	
-0.374512	
-0.374084	
-0.373962	
-0.373352	
-0.372437	
-0.373779	
-0.373352	
-0.374023	
-0.37323	
-0.372192	
-0.373413	
-0.373474	
-0.373657	
-0.373596	
-0.374329	
-0.373596	
-0.37323	
-0.374207	
-0.373718	
-0.374207	
-0.373962	
-0.372986	
-0.373779	
-0.373962	
-0.374451	
-0.373962	
-0.375	
-0.374023	
-0.373352	
-0.374634	
-0.374084	
-0.374512	
-0.374329	
-0.374146	
-0.374329	
-0.374878	
-0.375305	
-0.374573	
-0.375427	
-0.374817	
-0.373413	
-0.374756	
-0.37384	
-0.373901	
-0.373169	
-0.371765	
-0.373901	
-0.373352	
-0.372681	
-0.372803	
-0.373047	
-0.372498	
-0.371399	
-0.372314	
-0.371338	
-0.371094	
-0.370911	
-0.370361	
-0.370911	
-0.3703	
-0.370178	
-0.369934	
-0.370178	
-0.369873	
-0.36969	
-0.370483	
-0.369812	
-0.370178	
-0.369995	
-0.369446	
-0.371033	
-0.370972	
-0.371826	
-0.373291	
-0.373474	
-0.373474	
-0.373657	
-0.374512	
-0.374573	
-0.374695	
-0.375244	
-0.374878	
-0.37561	
-0.375549	
-0.375549	
-0.375977	
-0.376099	
-0.375671	
-0.375427	
-0.375977	
-0.375793	
-0.37561	
-0.375854	
-0.374878	
-0.375732	
-0.375671	
-0.375854	
-0.376099	
-0.375732	
-0.376648	
-0.375366	
-0.37561	
-0.375854	
-0.375427	
-0.374878	
-0.374634	
-0.375366	
-0.375366	
-0.375183	
-0.375183	
-0.375061	
-0.374939	
-0.374634	
-0.373474	
-0.374817	
-0.375122	
-0.374146	
-0.373108	
-0.374451	
-0.373535	
-0.373352	
-0.372314	
-0.372253	
-0.372803	
-0.371521	
-0.370728	
-0.371521	
-0.371948	
-0.371277	
-0.370056	
-0.372192	
-0.371765	
-0.371887	
-0.37207	
-0.371704	
-0.372559	
-0.372253	
-0.37207	
-0.371521	
-0.371887	
-0.372192	
-0.371033	
-0.373657	
-0.373352	
-0.373535	
-0.373657	
-0.373657	
-0.37384	
-0.373474	
-0.373596	
-0.373352	
-0.37323	
-0.373169	
-0.37207	
-0.374268	
-0.37323	
-0.372559	
-0.372803	
-0.372986	
-0.373108	
-0.372498	
-0.372437	
-0.372131	
-0.371521	
-0.371887	
-0.3703	
-0.372986	
-0.372253	
-0.372009	
-0.372192	
-0.37262	
-0.372559	
-0.372131	
-0.373169	
-0.372131	
-0.371216	
-0.37207	
-0.371887	
-0.373291	
-0.372986	
-0.37323	
-0.373657	
-0.374146	
-0.37439	
-0.374023	
-0.375183	
-0.37384	
-0.373108	
-0.374146	
-0.373108	
-0.374695	
-0.374146	
-0.374451	
-0.37384	
-0.373474	
-0.374329	
-0.373962	
-0.374573	
-0.373291	
-0.37262	
-0.373047	
-0.372009	
-0.373535	
-0.372742	
-0.372437	
-0.372437	
-0.372375	
-0.373108	
-0.372986	
-0.37439	
-0.373047	
-0.372681	
-0.372925	
-0.373352	
-0.373779	
-0.373962	
-0.373779	
-0.373779	
-0.374207	
-0.374084	
-0.373779	
-0.375244	
-0.373718	
-0.372681	
-0.373901	
-0.374268	
-0.375671	
-0.376099	
-0.376404	
-0.376465	
-0.377441	
-0.376892	
-0.377258	
-0.378296	
-0.37616	
-0.376526	
-0.377075	
-0.376892	
-0.37793	
-0.378967	
-0.37793	
-0.378052	
-0.378723	
-0.378784	
-0.378723	
-0.380066	
-0.377441	
-0.377869	
-0.378174	
-0.377686	
-0.378418	
-0.378906	
-0.378296	
-0.378113	
-0.378479	
-0.379333	
-0.378296	
-0.378601	
-0.376831	
-0.376953	
-0.376587	
-0.37561	
-0.377014	
-0.37738	
-0.376038	
-0.375854	
-0.375977	
-0.376038	
-0.375916	
-0.376953	
-0.375122	
-0.37561	
-0.375488	
-0.374756	
-0.376221	
-0.376648	
-0.376343	
-0.37616	
-0.37616	
-0.377808	
-0.376343	
-0.377136	
-0.375916	
-0.376343	
-0.376099	
-0.375427	
-0.376343	
-0.377136	
-0.376465	
-0.377014	
-0.376953	
-0.376953	
-0.376526	
-0.37793	
-0.376465	
-0.376892	
-0.377075	
-0.376892	
-0.377808	
-0.378357	
-0.377563	
-0.378052	
-0.37854	
-0.378845	
-0.377869	
-0.379395	
-0.377869	
-0.378235	
-0.377808	
-0.377258	
-0.378418	
-0.378845	
-0.378418	
-0.378967	
-0.379211	
-0.379333	
-0.379517	
-0.380737	
-0.378662	
-0.378418	
-0.378479	
-0.379272	
-0.378784	
-0.378845	
-0.378296	
-0.378357	
-0.377869	
-0.376587	
-0.377075	
-0.378479	
-0.376038	
-0.376282	
-0.376343	
-0.376953	
-0.377075	
-0.377502	
-0.377075	
-0.377258	
-0.377686	
-0.378113	
-0.377563	
-0.378357	
-0.377075	
-0.376892	
-0.376282	
-0.377075	
-0.377441	
-0.377258	
-0.377136	
-0.376892	
-0.377197	
-0.377014	
-0.377502	
-0.377014	
-0.375793	
-0.375916	
-0.375244	
-0.377136	
-0.376892	
-0.376526	
-0.377502	
-0.376709	
-0.376892	
-0.377197	
-0.377136	
-0.376465	
-0.375305	
-0.375793	
-0.374146	
-0.376099	
-0.375793	
-0.37616	
-0.376648	
	
