E:\DOCUMENTS AND SETTINGS\JPOTAS\MEUS DOCUMENTOS\UFRJ\RSCI-BM 12 WK SERIES\070718-RSCI-BM-03\RSCI-BM-03-LEMG\070718-RSCI-BM-03-LEMG-0018.ACQ
0.025000 msec/sample
1 channel
Analog input
Volts
CH1	
2000	
-0.392883	
-0.392639	
-0.393127	
-0.393677	
-0.394287	
-0.393921	
-0.393982	
-0.39325	
-0.393677	
-0.394104	
-0.393494	
-0.394714	
-0.393982	
-0.393372	
-0.394226	
-0.394775	
-0.394836	
-0.394958	
-0.395386	
-0.394897	
-0.394531	
-0.395386	
-0.394714	
-0.395569	
-0.395264	
-0.394653	
-0.395325	
-0.395874	
-0.396667	
-0.39624	
-0.396118	
-0.395508	
-0.395691	
-0.395996	
-0.394958	
-0.396545	
-0.39563	
-0.394775	
-0.395508	
-0.395081	
-0.394897	
-0.395447	
-0.394348	
-0.393433	
-0.394104	
-0.393799	
-0.392883	
-0.394165	
-0.393738	
-0.392395	
-0.393738	
-0.394287	
-0.394592	
-0.395508	
-0.394714	
-0.393494	
-0.39447	
-0.394897	
-0.39325	
-0.395142	
-0.39447	
-0.393311	
-0.393982	
-0.394348	
-0.394958	
-0.395142	
-0.394409	
-0.393188	
-0.394958	
-0.395203	
-0.394226	
-0.395325	
-0.395447	
-0.394226	
-0.394958	
-0.395874	
-0.395386	
-0.396301	
-0.395508	
-0.394348	
-0.395203	
-0.39624	
-0.395203	
-0.396667	
-0.39624	
-0.396606	
-0.396057	
-0.396912	
-0.396667	
-0.397766	
-0.396973	
-0.396729	
-0.39679	
-0.397705	
-0.396362	
-0.397949	
-0.397156	
-0.396484	
-0.396851	
-0.398193	
-0.397827	
-0.398621	
-0.397217	
-0.396606	
-0.396484	
-0.397888	
-0.396118	
-0.396484	
-0.39624	
-0.396362	
-0.396057	
-0.397217	
-0.397583	
-0.398193	
-0.39679	
-0.396545	
-0.396057	
-0.39679	
-0.396179	
-0.397522	
-0.396851	
-0.396484	
-0.395996	
-0.396729	
-0.396545	
-0.397583	
-0.396606	
-0.396118	
-0.395935	
-0.396423	
-0.395447	
-0.39624	
-0.396301	
-0.396301	
-0.395996	
-0.396362	
-0.39679	
-0.396912	
-0.395203	
-0.396057	
-0.395813	
-0.396667	
-0.39563	
-0.396362	
-0.39563	
-0.395325	
-0.395386	
-0.395447	
-0.394714	
-0.395691	
-0.39502	
-0.394958	
-0.394653	
-0.395447	
-0.394653	
-0.394958	
-0.395386	
-0.39447	
-0.394653	
-0.39563	
-0.395813	
-0.396301	
-0.394714	
-0.395203	
-0.395142	
-0.395752	
-0.395081	
-0.395264	
-0.39502	
-0.394836	
-0.394836	
-0.395508	
-0.395508	
-0.395752	
-0.395081	
-0.395935	
-0.395081	
-0.395569	
-0.395996	
-0.395508	
-0.395203	
-0.395203	
-0.39447	
-0.394958	
-0.395264	
-0.395996	
-0.395142	
-0.394897	
-0.394592	
-0.395325	
-0.394836	
-0.394348	
-0.394409	
-0.393616	
-0.392883	
-0.394348	
-0.394287	
-0.230286	
0.0240479	
-0.0595093	
-0.0803833	
-0.0819092	
-0.0774536	
-0.385681	
-0.467407	
-0.379639	
-0.350525	
-0.337769	
-0.332153	
-0.329834	
-0.326904	
-0.327393	
-0.326843	
-0.326294	
-0.325439	
-0.326355	
-0.326355	
-0.325562	
-0.325806	
-0.324036	
-0.325745	
-0.324646	
-0.327393	
-0.327271	
-0.326965	
-0.327515	
-0.327637	
-0.328796	
-0.328125	
-0.32959	
-0.328003	
-0.328796	
-0.329102	
-0.329956	
-0.330017	
-0.330811	
-0.331421	
-0.331177	
-0.332214	
-0.331726	
-0.33136	
-0.330078	
-0.329712	
-0.330627	
-0.329224	
-0.331238	
-0.332153	
-0.333069	
-0.333313	
-0.335022	
-0.337341	
-0.338318	
-0.34137	
-0.342163	
-0.34668	
-0.350708	
-0.356506	
-0.36084	
-0.364685	
-0.368042	
-0.372986	
-0.379333	
-0.381958	
-0.388123	
-0.39325	
-0.400085	
-0.407837	
-0.417542	
-0.427002	
-0.436096	
-0.444336	
-0.451721	
-0.460205	
-0.464966	
-0.470337	
-0.473694	
-0.478333	
-0.482422	
-0.485291	
-0.488098	
-0.491455	
-0.49353	
-0.494812	
-0.497009	
-0.498474	
-0.498596	
-0.499573	
-0.498108	
-0.498596	
-0.496887	
-0.497681	
-0.49762	
-0.497437	
-0.497925	
-0.49823	
-0.499207	
-0.497925	
-0.499146	
-0.497925	
-0.498657	
-0.500061	
-0.500305	
-0.503601	
-0.504395	
-0.505737	
-0.506042	
-0.50592	
-0.506042	
-0.504883	
-0.504028	
-0.499512	
-0.499268	
-0.497192	
-0.494263	
-0.491699	
-0.487915	
-0.484009	
-0.480286	
-0.476685	
-0.472046	
-0.467041	
-0.463257	
-0.457397	
-0.453491	
-0.448486	
-0.445557	
-0.441162	
-0.435486	
-0.431152	
-0.425659	
-0.421448	
-0.414795	
-0.40918	
-0.402466	
-0.39624	
-0.390259	
-0.384094	
-0.378601	
-0.37262	
-0.366394	
-0.359497	
-0.353577	
-0.346741	
-0.34021	
-0.333374	
-0.323303	
-0.317932	
-0.310608	
-0.303284	
-0.297546	
-0.289978	
-0.282166	
-0.275879	
-0.26947	
-0.261414	
-0.255493	
-0.25	
-0.240601	
-0.236084	
-0.230164	
-0.225098	
-0.219788	
-0.215149	
-0.210876	
-0.206116	
-0.203613	
-0.200195	
-0.198181	
-0.196167	
-0.196167	
-0.19635	
-0.198059	
-0.201782	
-0.204224	
-0.207458	
-0.211365	
-0.21814	
-0.22168	
-0.226929	
-0.232361	
-0.238037	
-0.243347	
-0.250305	
-0.257751	
-0.263916	
-0.270386	
-0.276306	
-0.283813	
-0.289001	
-0.293945	
-0.298767	
-0.30365	
-0.306091	
-0.311279	
-0.315857	
-0.319031	
-0.322266	
-0.325256	
-0.329346	
-0.330811	
-0.333557	
-0.335083	
-0.33606	
-0.336487	
-0.339783	
-0.341064	
-0.342529	
-0.344238	
-0.346008	
-0.34729	
-0.347473	
-0.349609	
-0.350159	
-0.35083	
-0.351013	
-0.352295	
-0.35376	
-0.355408	
-0.355896	
-0.356689	
-0.35791	
-0.358154	
-0.359314	
-0.358643	
-0.356567	
-0.357666	
-0.355896	
-0.35553	
-0.356934	
-0.356384	
-0.35553	
-0.354919	
-0.354309	
-0.352051	
-0.350586	
-0.349243	
-0.347107	
-0.345154	
-0.343811	
-0.342346	
-0.340271	
-0.338501	
-0.337585	
-0.336853	
-0.333191	
-0.33136	
-0.329407	
-0.327271	
-0.325134	
-0.323059	
-0.32074	
-0.319214	
-0.316956	
-0.315491	
-0.314209	
-0.311951	
-0.31134	
-0.309143	
-0.306519	
-0.305969	
-0.30481	
-0.304199	
-0.303345	
-0.302856	
-0.302185	
-0.302612	
-0.303345	
-0.303833	
-0.304443	
-0.304504	
-0.306335	
-0.307983	
-0.308533	
-0.309875	
-0.312256	
-0.312927	
-0.315186	
-0.317261	
-0.318237	
-0.319763	
-0.321594	
-0.321655	
-0.322388	
-0.324341	
-0.325134	
-0.325928	
-0.327209	
-0.327759	
-0.328857	
-0.330017	
-0.329834	
-0.330383	
-0.330566	
-0.331665	
-0.332031	
-0.33252	
-0.332214	
-0.333984	
-0.3349	
-0.335144	
-0.337524	
-0.335693	
-0.335693	
-0.336853	
-0.337708	
-0.33783	
-0.337463	
-0.33844	
-0.338989	
-0.339966	
-0.340088	
-0.341003	
-0.34021	
-0.340698	
-0.341919	
-0.341797	
-0.342468	
-0.342346	
-0.343018	
-0.343628	
-0.344177	
-0.344055	
-0.34491	
-0.344971	
-0.344666	
-0.345581	
-0.34491	
-0.346436	
-0.345581	
-0.345337	
-0.345459	
-0.346008	
-0.345886	
-0.346802	
-0.346619	
-0.345154	
-0.346313	
-0.346497	
-0.346008	
-0.347107	
-0.34668	
-0.346802	
-0.346741	
-0.34729	
-0.347717	
-0.348633	
-0.348328	
-0.346985	
-0.348267	
-0.349487	
-0.348877	
-0.34845	
-0.347839	
-0.347961	
-0.346619	
-0.348206	
-0.347778	
-0.347961	
-0.347717	
-0.347839	
-0.347717	
-0.347717	
-0.349121	
-0.348267	
-0.34729	
-0.347595	
-0.347717	
-0.348633	
-0.34845	
-0.348511	
-0.347412	
-0.348145	
-0.348206	
-0.348633	
-0.349731	
-0.348633	
-0.349121	
-0.34906	
-0.348694	
-0.34906	
-0.350647	
-0.350159	
-0.34845	
-0.349731	
-0.350403	
-0.351074	
-0.351013	
-0.350159	
-0.35083	
-0.349976	
-0.350586	
-0.351257	
-0.35199	
-0.351318	
-0.351501	
-0.351624	
-0.351746	
-0.352661	
-0.352234	
-0.352295	
-0.352356	
-0.353027	
-0.3526	
-0.353394	
-0.35321	
-0.353577	
-0.353821	
-0.353699	
-0.355408	
-0.354309	
-0.354797	
-0.354919	
-0.355225	
-0.355225	
-0.356201	
-0.355835	
-0.356323	
-0.356812	
-0.355042	
-0.356323	
-0.356079	
-0.356323	
-0.356079	
-0.356262	
-0.356567	
-0.357483	
-0.356445	
-0.356201	
-0.356628	
-0.354187	
-0.357361	
-0.356995	
-0.35553	
-0.357178	
-0.357666	
-0.357605	
-0.357239	
-0.358032	
-0.35675	
-0.357971	
-0.357178	
-0.357788	
-0.35791	
-0.3573	
-0.358154	
-0.357483	
-0.358582	
-0.358459	
-0.359863	
-0.357422	
-0.358032	
-0.358459	
-0.358765	
-0.359436	
-0.358643	
-0.359985	
-0.359741	
-0.359924	
-0.359619	
-0.360168	
-0.359253	
-0.359802	
-0.36084	
-0.358521	
-0.360413	
-0.35968	
-0.35968	
-0.359802	
-0.360962	
-0.360291	
-0.361572	
-0.362	
-0.361389	
-0.361023	
-0.360413	
-0.361694	
-0.362122	
-0.361267	
-0.361938	
-0.362061	
-0.363098	
-0.362854	
-0.363098	
-0.362488	
-0.36322	
-0.363159	
-0.362976	
-0.364685	
-0.363892	
-0.363281	
-0.364258	
-0.364746	
-0.364441	
-0.364929	
-0.366516	
-0.363525	
-0.365417	
-0.364929	
-0.364868	
-0.365295	
-0.365234	
-0.365051	
-0.364807	
-0.366699	
-0.365295	
-0.365234	
-0.364807	
-0.36499	
-0.364624	
-0.363281	
-0.364685	
-0.363647	
-0.363831	
-0.363525	
-0.363953	
-0.363708	
-0.364502	
-0.365295	
-0.364136	
-0.365356	
-0.364197	
-0.365356	
-0.365295	
-0.365112	
-0.36499	
-0.364807	
-0.365723	
-0.365173	
-0.365662	
-0.365051	
-0.365601	
-0.365479	
-0.364807	
-0.366638	
-0.365173	
-0.366516	
-0.365784	
-0.366943	
-0.36676	
-0.367554	
-0.367004	
-0.367004	
-0.366821	
-0.36676	
-0.367065	
-0.366638	
-0.367065	
-0.367737	
-0.367065	
-0.367676	
-0.368225	
-0.368713	
-0.367798	
-0.369019	
-0.367981	
-0.368896	
-0.369568	
-0.36853	
-0.36969	
-0.369385	
-0.370483	
-0.369934	
-0.36908	
-0.369324	
-0.369324	
-0.368896	
-0.368958	
-0.370056	
-0.368469	
-0.368713	
-0.368713	
-0.368042	
-0.369446	
-0.368835	
-0.368652	
-0.367615	
-0.368896	
-0.369812	
-0.369263	
-0.369995	
-0.369385	
-0.369324	
-0.36908	
-0.370667	
-0.370483	
-0.369751	
-0.369812	
-0.369812	
-0.369324	
-0.368347	
-0.369629	
-0.368652	
-0.369812	
-0.369324	
-0.36853	
-0.369629	
-0.369263	
-0.370483	
-0.368713	
-0.3703	
-0.369385	
-0.369446	
-0.369812	
-0.370178	
-0.36908	
-0.369141	
-0.37085	
-0.370361	
-0.369873	
-0.369507	
-0.369324	
-0.369141	
-0.368225	
-0.369019	
-0.368652	
-0.368347	
-0.368774	
-0.36908	
-0.369873	
-0.369202	
-0.36969	
-0.368347	
-0.369995	
-0.369263	
-0.368896	
-0.369385	
-0.369202	
-0.369873	
-0.369202	
-0.370117	
-0.370117	
-0.369812	
-0.369751	
-0.369324	
-0.369629	
-0.369019	
-0.369446	
-0.370422	
-0.370239	
-0.369873	
-0.370117	
-0.371094	
-0.370117	
-0.3703	
-0.369141	
-0.370789	
-0.369751	
-0.370544	
-0.37085	
-0.370056	
-0.369507	
-0.370361	
-0.37146	
-0.370239	
-0.369873	
-0.370483	
-0.369507	
-0.369446	
-0.369446	
-0.36969	
-0.369507	
-0.369263	
-0.369446	
-0.368591	
-0.370239	
-0.369995	
-0.370239	
-0.368652	
-0.369995	
-0.370056	
-0.369751	
-0.369873	
-0.369934	
-0.369629	
-0.369751	
-0.371521	
-0.369324	
-0.36969	
-0.369385	
-0.370605	
-0.369751	
-0.368225	
-0.369873	
-0.369385	
-0.370056	
-0.369934	
-0.369995	
-0.370056	
-0.370605	
-0.371216	
-0.368469	
-0.370544	
-0.370178	
-0.370361	
-0.369568	
-0.370544	
-0.37085	
-0.370605	
-0.372742	
-0.371704	
-0.371887	
-0.370667	
-0.372314	
-0.372192	
-0.370605	
-0.371277	
-0.371033	
-0.371704	
-0.371399	
-0.372437	
-0.372192	
-0.372437	
-0.373108	
-0.37085	
-0.371887	
-0.371887	
-0.37207	
-0.372192	
-0.371704	
-0.371765	
-0.371826	
-0.373535	
-0.372192	
-0.373169	
-0.372803	
-0.373047	
-0.372253	
-0.371826	
-0.372803	
-0.372925	
-0.372681	
-0.37262	
-0.372925	
-0.374512	
-0.373047	
-0.373779	
-0.372192	
-0.373047	
-0.372681	
-0.373474	
-0.373474	
-0.373535	
-0.373413	
-0.372925	
-0.374329	
-0.373596	
-0.373474	
-0.372864	
-0.371643	
-0.372437	
-0.371521	
-0.372925	
-0.372925	
-0.372742	
-0.37262	
-0.37323	
-0.373535	
-0.37323	
-0.373901	
-0.372742	
-0.372925	
-0.373352	
-0.373291	
-0.37262	
-0.373169	
-0.373169	
-0.372375	
-0.373108	
-0.37323	
-0.373962	
-0.372742	
-0.373535	
-0.373169	
-0.372559	
-0.37384	
-0.373413	
-0.37323	
-0.373108	
-0.374512	
-0.374146	
-0.373779	
-0.37439	
-0.374084	
-0.373596	
-0.373413	
-0.373901	
-0.373596	
-0.373047	
-0.373169	
-0.372986	
-0.373169	
-0.374146	
-0.373596	
-0.373535	
-0.374207	
-0.373962	
-0.373718	
-0.374512	
-0.374084	
-0.374512	
-0.374329	
-0.374878	
-0.374146	
-0.373657	
-0.374084	
-0.373901	
-0.373108	
-0.373108	
-0.374207	
-0.373291	
-0.373474	
-0.373535	
-0.372925	
-0.373169	
-0.37439	
-0.374023	
-0.37323	
-0.373413	
-0.372864	
-0.372986	
-0.373352	
-0.372803	
-0.372803	
-0.372742	
-0.373474	
-0.373291	
-0.372498	
-0.372253	
-0.372864	
-0.371765	
-0.371948	
-0.372192	
-0.372498	
-0.371887	
-0.372192	
-0.372192	
-0.372192	
-0.373474	
-0.374084	
-0.373718	
-0.374451	
-0.374451	
-0.373718	
-0.374817	
-0.375244	
-0.374634	
-0.374817	
-0.375549	
-0.375427	
-0.374756	
-0.375488	
-0.374878	
-0.374817	
-0.374634	
-0.375	
-0.375244	
-0.374939	
-0.375122	
-0.374512	
-0.374451	
-0.375427	
-0.375366	
-0.374573	
-0.37439	
-0.374146	
-0.373657	
-0.374268	
-0.373779	
-0.373779	
-0.37384	
-0.374268	
-0.374207	
-0.373779	
-0.374207	
-0.374512	
-0.374146	
-0.373901	
-0.373962	
-0.373718	
-0.373901	
-0.373047	
-0.37323	
-0.373657	
-0.373657	
-0.373474	
-0.373596	
-0.373108	
-0.373535	
-0.372498	
-0.373291	
-0.372864	
-0.372681	
-0.372375	
-0.373169	
-0.373352	
-0.373474	
-0.373474	
-0.373657	
-0.373291	
-0.372986	
-0.373779	
-0.373108	
-0.37323	
-0.37384	
-0.372986	
-0.373901	
-0.375122	
-0.374268	
-0.374329	
-0.374512	
-0.374268	
-0.374451	
-0.375	
-0.375671	
-0.375549	
-0.374756	
-0.375305	
-0.375244	
-0.373901	
-0.374817	
-0.375183	
-0.374695	
-0.374695	
-0.374634	
-0.374146	
-0.374573	
-0.374817	
-0.374756	
-0.375488	
-0.375061	
-0.374817	
-0.374084	
-0.374878	
-0.374451	
-0.37439	
-0.374023	
-0.375	
-0.374939	
-0.37384	
-0.375183	
-0.375183	
-0.374878	
-0.375488	
-0.376038	
-0.374756	
-0.375549	
-0.376465	
-0.376587	
-0.37616	
-0.375488	
-0.376343	
-0.377197	
-0.377075	
-0.376221	
-0.376465	
-0.376221	
-0.376648	
-0.375793	
-0.376343	
-0.376343	
-0.37616	
-0.375916	
-0.376648	
-0.376465	
-0.376221	
-0.377319	
-0.375793	
-0.376343	
-0.376343	
-0.376221	
-0.37616	
-0.376465	
-0.376831	
-0.376892	
-0.377441	
-0.377319	
-0.377136	
-0.376892	
-0.376038	
-0.376404	
-0.375977	
-0.377075	
-0.377197	
-0.377319	
-0.375793	
-0.37738	
-0.377808	
-0.377502	
-0.378235	
-0.377197	
-0.376953	
-0.377747	
-0.37854	
-0.378662	
-0.378174	
-0.378296	
-0.378723	
-0.379456	
-0.379089	
-0.378601	
-0.378967	
-0.37793	
-0.378296	
-0.377136	
-0.377808	
-0.37793	
-0.378784	
-0.37738	
-0.378601	
-0.379089	
-0.378723	
-0.379517	
-0.378723	
-0.378357	
-0.379333	
-0.379761	
-0.380127	
-0.379272	
-0.379211	
-0.3797	
-0.380066	
-0.379517	
-0.379211	
-0.379517	
-0.378662	
-0.378479	
-0.377991	
-0.379089	
-0.378296	
-0.378601	
-0.377869	
-0.378479	
-0.37793	
-0.378113	
-0.378296	
-0.378479	
-0.376709	
-0.377686	
-0.377625	
-0.37854	
-0.37793	
-0.377563	
-0.37738	
-0.378418	
-0.378113	
-0.377502	
-0.378113	
-0.378235	
-0.377991	
-0.378113	
-0.378174	
-0.379028	
-0.378357	
-0.378052	
-0.378723	
-0.378235	
-0.378479	
-0.378418	
-0.379761	
-0.37738	
-0.378113	
-0.377808	
-0.378052	
-0.377808	
-0.378052	
-0.377869	
-0.378235	
-0.378967	
-0.37793	
-0.378174	
-0.378479	
-0.378967	
-0.378601	
-0.377258	
-0.379211	
-0.379639	
-0.379272	
-0.380066	
-0.379822	
-0.379761	
-0.379456	
-0.381409	
-0.378784	
-0.380249	
-0.380005	
-0.380005	
-0.380005	
-0.380005	
-0.378967	
-0.379883	
-0.380066	
-0.379822	
-0.379578	
-0.379822	
-0.379272	
-0.379517	
-0.379211	
-0.379883	
-0.380066	
-0.379822	
-0.380005	
-0.380249	
-0.379578	
-0.379211	
-0.380249	
-0.378845	
-0.379517	
-0.380188	
-0.378845	
-0.379761	
-0.380554	
-0.38031	
-0.380493	
-0.381104	
-0.379395	
-0.379761	
-0.380676	
-0.379944	
-0.38031	
-0.3797	
-0.380188	
-0.380493	
-0.38031	
-0.380737	
-0.380737	
-0.380737	
-0.380066	
-0.380676	
-0.380005	
-0.380737	
-0.380615	
-0.379761	
-0.380249	
-0.380737	
-0.380676	
-0.381897	
-0.381958	
-0.38147	
-0.381042	
-0.38147	
-0.381226	
-0.381104	
-0.381042	
-0.38092	
-0.381653	
-0.381287	
-0.382629	
-0.382019	
-0.382446	
-0.382324	
-0.383057	
-0.382446	
-0.382751	
-0.383606	
-0.382996	
-0.383301	
-0.38324	
-0.382751	
-0.384155	
-0.384277	
-0.384216	
-0.384094	
-0.384277	
-0.383789	
-0.384155	
-0.383972	
-0.383118	
-0.384155	
-0.383789	
-0.384888	
-0.384583	
-0.38446	
-0.383423	
-0.38385	
-0.383301	
-0.382813	
-0.382385	
-0.38269	
-0.382385	
-0.382751	
-0.381958	
-0.383118	
-0.383057	
-0.382935	
-0.383301	
-0.384155	
-0.382446	
-0.383362	
-0.383606	
-0.381897	
-0.382996	
-0.382996	
-0.382996	
-0.38324	
-0.38385	
-0.382996	
-0.383362	
-0.384033	
-0.383484	
-0.384033	
-0.383972	
-0.384277	
-0.384033	
-0.384399	
-0.384949	
-0.384277	
-0.384399	
-0.383911	
-0.385559	
-0.384277	
-0.384338	
-0.384521	
-0.384644	
-0.38562	
-0.385193	
-0.385132	
-0.385315	
-0.385559	
-0.385925	
-0.385864	
-0.386108	
-0.385681	
-0.385864	
-0.385925	
-0.386597	
-0.386963	
-0.386719	
-0.386475	
-0.386963	
-0.387573	
-0.386169	
-0.387634	
-0.387695	
-0.386475	
-0.386719	
-0.386475	
-0.38678	
-0.386292	
-0.38678	
-0.386353	
-0.385925	
-0.385742	
-0.386902	
-0.387634	
-0.384583	
-0.386047	
-0.386353	
-0.385864	
-0.38678	
-0.387146	
-0.386169	
-0.386353	
-0.387207	
-0.385986	
-0.386719	
-0.388123	
-0.386841	
-0.386841	
-0.386353	
-0.385925	
-0.386047	
-0.386658	
-0.386108	
-0.386353	
-0.386658	
-0.385986	
-0.386597	
-0.385315	
-0.385925	
-0.385986	
-0.386292	
-0.386169	
-0.386169	
-0.386047	
-0.386841	
-0.386841	
-0.385498	
-0.386108	
-0.386536	
-0.385437	
-0.385376	
-0.385193	
-0.385376	
-0.385559	
-0.385986	
-0.385132	
-0.385376	
-0.385132	
-0.385254	
-0.385315	
-0.38501	
-0.385315	
-0.385498	
-0.38501	
-0.385742	
-0.385925	
-0.38562	
-0.385803	
-0.386475	
-0.385254	
-0.385986	
-0.386719	
-0.385986	
-0.385925	
-0.38623	
-0.384399	
-0.38562	
-0.386414	
-0.385193	
-0.386108	
-0.386047	
-0.386841	
-0.386108	
-0.38623	
-0.386536	
-0.385925	
-0.385376	
-0.38562	
-0.386169	
-0.384949	
-0.385437	
-0.385925	
-0.384338	
-0.38501	
-0.385803	
-0.385498	
-0.384888	
-0.385315	
-0.384888	
-0.384888	
-0.385925	
-0.384583	
-0.385132	
-0.385986	
-0.385498	
-0.385437	
-0.38623	
-0.385437	
-0.385254	
-0.384949	
-0.384949	
-0.385559	
-0.384827	
-0.384827	
-0.385437	
-0.384216	
-0.385315	
-0.385742	
-0.384583	
-0.384583	
-0.38501	
-0.384705	
-0.384888	
-0.385864	
-0.384766	
-0.385193	
-0.385864	
-0.385254	
-0.385864	
-0.386047	
-0.385742	
-0.385742	
-0.385437	
-0.385254	
-0.386719	
-0.386353	
-0.386475	
-0.386169	
-0.385986	
-0.386292	
-0.387451	
-0.386841	
-0.38623	
-0.387024	
-0.387024	
-0.386841	
-0.387085	
-0.385986	
-0.386963	
-0.386963	
-0.387329	
-0.387207	
-0.387268	
-0.386292	
-0.386902	
-0.386353	
-0.385986	
-0.387573	
-0.387756	
-0.387024	
-0.387207	
-0.386902	
-0.387573	
-0.388062	
-0.388184	
-0.386841	
-0.387268	
-0.387939	
-0.388062	
-0.388123	
-0.387085	
-0.388184	
-0.387878	
-0.388184	
-0.387756	
-0.388062	
-0.388245	
-0.388123	
-0.388123	
-0.387207	
-0.387451	
-0.388672	
-0.387634	
-0.387695	
-0.386902	
-0.388	
-0.387512	
-0.387573	
-0.386719	
-0.387207	
-0.387817	
-0.387634	
-0.387756	
-0.386597	
-0.387695	
-0.387268	
-0.387451	
-0.388	
-0.388489	
-0.387939	
-0.38678	
-0.387329	
-0.386719	
-0.387695	
-0.387939	
-0.387268	
-0.387817	
-0.387329	
-0.388123	
-0.387512	
-0.388123	
-0.387085	
-0.387024	
-0.387024	
-0.386963	
-0.387756	
-0.387634	
-0.388062	
-0.388062	
-0.387146	
-0.388428	
-0.38855	
-0.388733	
-0.387268	
-0.387024	
-0.386963	
-0.388123	
-0.388367	
-0.386414	
-0.387451	
-0.387878	
-0.387695	
-0.388428	
-0.388306	
-0.387878	
-0.387329	
-0.388367	
-0.386475	
-0.387878	
-0.387329	
-0.387756	
-0.387024	
-0.386963	
-0.387817	
-0.387634	
-0.387634	
-0.386963	
-0.386536	
-0.385803	
-0.386902	
-0.387695	
-0.386108	
-0.386597	
-0.386597	
-0.386902	
-0.386841	
-0.387085	
-0.386902	
-0.385986	
-0.386292	
-0.385925	
-0.385803	
-0.385742	
-0.385559	
-0.385742	
-0.384155	
-0.385742	
-0.386047	
-0.385559	
-0.385254	
-0.384094	
-0.384705	
-0.384399	
-0.385925	
-0.385437	
-0.386658	
-0.38678	
-0.387329	
-0.388367	
-0.387634	
-0.388123	
-0.387634	
-0.387634	
-0.387207	
-0.388062	
-0.387329	
-0.387329	
-0.387573	
-0.386292	
-0.387512	
-0.387573	
-0.387939	
-0.388428	
-0.386719	
-0.387756	
-0.387146	
-0.38739	
-0.386963	
-0.38739	
-0.386475	
-0.386353	
-0.387024	
-0.387024	
-0.385986	
-0.386047	
-0.385437	
-0.386047	
-0.38562	
-0.387207	
-0.385986	
-0.385986	
-0.385803	
-0.386719	
-0.387085	
-0.386963	
-0.386292	
-0.385315	
-0.385925	
-0.385742	
-0.385742	
-0.385437	
-0.385864	
-0.385864	
-0.384644	
-0.38562	
-0.38501	
-0.384644	
-0.385254	
-0.383972	
-0.383667	
-0.38446	
-0.385132	
-0.385498	
-0.385254	
-0.38501	
-0.384399	
-0.386108	
-0.385803	
-0.385742	
-0.38562	
-0.385254	
-0.38501	
-0.384888	
-0.385925	
-0.385925	
-0.385925	
-0.38623	
-0.386902	
-0.387878	
-0.387451	
-0.387512	
-0.386719	
-0.384888	
-0.385559	
-0.386353	
-0.386963	
-0.385925	
-0.38623	
-0.385559	
-0.385986	
-0.386536	
-0.385986	
-0.386963	
-0.38501	
-0.38623	
-0.385559	
-0.384949	
-0.386047	
-0.386169	
-0.386292	
-0.385742	
-0.387146	
-0.385986	
-0.386658	
-0.386536	
-0.384949	
-0.385864	
-0.384827	
-0.386719	
-0.386658	
-0.386536	
-0.386902	
-0.387268	
-0.388672	
-0.387146	
-0.387878	
-0.386902	
-0.387329	
-0.38739	
-0.387085	
-0.388184	
-0.38739	
-0.387756	
-0.387634	
-0.388184	
-0.387573	
-0.387695	
-0.387878	
-0.38562	
-0.387451	
-0.386475	
-0.387146	
-0.387634	
-0.387268	
-0.387512	
-0.38623	
-0.388733	
-0.387695	
-0.388306	
-0.388062	
-0.387451	
-0.387634	
-0.385864	
-0.388	
-0.387085	
-0.387207	
-0.387207	
-0.387451	
-0.389404	
-0.388123	
-0.388794	
-0.387451	
-0.388062	
-0.388428	
-0.386902	
-0.389099	
-0.388977	
-0.388611	
-0.388367	
-0.389954	
-0.389221	
-0.388855	
-0.390625	
-0.387146	
-0.388611	
-0.38855	
-0.389465	
-0.388733	
-0.389099	
-0.388611	
-0.388123	
-0.390625	
-0.389465	
-0.388855	
-0.389465	
-0.389221	
-0.389526	
-0.388611	
-0.390686	
-0.389648	
-0.389709	
-0.389893	
-0.390808	
-0.39093	
-0.390259	
-0.390686	
-0.388733	
-0.389343	
-0.388916	
-0.387329	
-0.389099	
-0.388977	
-0.388672	
-0.38739	
-0.38916	
-0.388428	
-0.388794	
-0.389465	
-0.38678	
-0.388184	
-0.388428	
-0.389221	
-0.388245	
-0.388367	
-0.388123	
-0.388428	
-0.389404	
-0.387756	
-0.388184	
-0.389343	
-0.388611	
-0.388123	
-0.388062	
-0.388306	
-0.388489	
-0.388428	
-0.388	
-0.388672	
-0.389282	
-0.388245	
-0.387695	
-0.386963	
-0.388062	
-0.388489	
-0.387634	
-0.388367	
-0.38855	
-0.388123	
-0.387573	
-0.388977	
-0.387817	
-0.388062	
-0.388184	
-0.386658	
-0.388062	
-0.388672	
-0.38855	
-0.388184	
-0.388855	
-0.388123	
-0.388855	
-0.39032	
-0.389404	
-0.389404	
-0.390137	
-0.389648	
-0.389526	
-0.388916	
-0.389771	
-0.390076	
-0.390137	
-0.388855	
-0.390259	
-0.389954	
-0.389587	
-0.388855	
-0.389832	
-0.389099	
-0.388855	
-0.388245	
-0.389038	
-0.388733	
-0.389221	
-0.389343	
-0.39032	
-0.389709	
-0.389526	
-0.389343	
-0.388367	
-0.38916	
-0.38916	
-0.389526	
-0.389893	
-0.389465	
-0.389099	
-0.389404	
-0.389893	
-0.389343	
-0.389282	
-0.389343	
-0.389343	
-0.389099	
-0.389648	
-0.388733	
-0.389038	
-0.389587	
-0.388977	
-0.391235	
-0.390259	
-0.389832	
-0.389832	
-0.389893	
-0.390076	
-0.389465	
-0.388611	
-0.388855	
-0.389832	
-0.389465	
-0.389526	
-0.39032	
	
