E:\DOCUMENTS AND SETTINGS\JPOTAS\MEUS DOCUMENTOS\UFRJ\RSCI-BM 12 WK SERIES\070719-RSCI-BM-02\RSCI-BM-02-LEMG\070719-RSCI-BM-02-LEMG-0002.ACQ
0.025000 msec/sample
1 channel
Analog input
Volts
CH1	
2000	
-0.394287	
-0.393127	
-0.392578	
-0.393982	
-0.39386	
-0.394226	
-0.394287	
-0.393738	
-0.393555	
-0.394592	
-0.39502	
-0.394531	
-0.394836	
-0.394775	
-0.395691	
-0.394531	
-0.395996	
-0.395935	
-0.395752	
-0.395935	
-0.395935	
-0.396973	
-0.398071	
-0.398071	
-0.397278	
-0.3974	
-0.397583	
-0.397095	
-0.397827	
-0.396912	
-0.396545	
-0.396606	
-0.397034	
-0.395325	
-0.395813	
-0.396484	
-0.395508	
-0.39447	
-0.395569	
-0.394775	
-0.394653	
-0.394897	
-0.393188	
-0.392151	
-0.392578	
-0.393066	
-0.391968	
-0.391907	
-0.391052	
-0.391052	
-0.390137	
-0.391785	
-0.391052	
-0.39032	
-0.39032	
-0.390808	
-0.390442	
-0.391479	
-0.391785	
-0.391602	
-0.390991	
-0.392334	
-0.392151	
-0.3927	
-0.392761	
-0.391968	
-0.392517	
-0.393188	
-0.392517	
-0.393372	
-0.394104	
-0.393127	
-0.393372	
-0.39386	
-0.393311	
-0.393005	
-0.394287	
-0.393738	
-0.392151	
-0.392883	
-0.394775	
-0.393982	
-0.393555	
-0.393616	
-0.393982	
-0.393066	
-0.394897	
-0.393982	
-0.393066	
-0.393982	
-0.394104	
-0.393555	
-0.394653	
-0.395447	
-0.394409	
-0.393188	
-0.394409	
-0.394287	
-0.394775	
-0.395142	
-0.394043	
-0.394104	
-0.394531	
-0.394714	
-0.394226	
-0.393982	
-0.393372	
-0.393433	
-0.393738	
-0.393799	
-0.393433	
-0.393433	
-0.3927	
-0.391235	
-0.391907	
-0.393005	
-0.392822	
-0.392212	
-0.392273	
-0.3927	
-0.392395	
-0.39325	
-0.392944	
-0.391846	
-0.392639	
-0.392883	
-0.392456	
-0.39325	
-0.394104	
-0.393188	
-0.392883	
-0.39386	
-0.393982	
-0.39502	
-0.395203	
-0.394592	
-0.394409	
-0.394287	
-0.394836	
-0.394897	
-0.394287	
-0.394409	
-0.394043	
-0.393738	
-0.394958	
-0.394897	
-0.394592	
-0.394714	
-0.393616	
-0.393982	
-0.395996	
-0.395386	
-0.394348	
-0.394104	
-0.394836	
-0.394226	
-0.394897	
-0.394836	
-0.394226	
-0.394165	
-0.394775	
-0.394348	
-0.395447	
-0.395081	
-0.394836	
-0.394714	
-0.395508	
-0.395813	
-0.396667	
-0.397217	
-0.39679	
-0.395752	
-0.397095	
-0.398254	
-0.39801	
-0.397461	
-0.39801	
-0.397461	
-0.397278	
-0.398315	
-0.39801	
-0.396301	
-0.397339	
-0.396179	
-0.395569	
-0.397522	
-0.397156	
-0.395813	
-0.395325	
-0.395874	
-0.395325	
-0.395691	
-0.395996	
-0.394348	
-0.393555	
-0.393494	
-0.393799	
-0.382813	
-0.381287	
-0.38208	
-0.38208	
-0.382568	
-0.382385	
-0.39624	
-0.394287	
-0.392578	
-0.392273	
-0.392151	
-0.392578	
-0.39325	
-0.3927	
-0.392456	
-0.391785	
-0.393066	
-0.392944	
-0.393616	
-0.392517	
-0.393311	
-0.392578	
-0.3927	
-0.395325	
-0.395569	
-0.394653	
-0.39502	
-0.39624	
-0.395752	
-0.396484	
-0.396545	
-0.395874	
-0.395691	
-0.396057	
-0.396606	
-0.396912	
-0.396545	
-0.396606	
-0.396179	
-0.396545	
-0.397278	
-0.397705	
-0.397095	
-0.396606	
-0.395935	
-0.395813	
-0.396301	
-0.396362	
-0.39502	
-0.394165	
-0.393555	
-0.393555	
-0.393005	
-0.392395	
-0.391296	
-0.392517	
-0.392334	
-0.392578	
-0.395874	
-0.396545	
-0.397766	
-0.398804	
-0.401489	
-0.404114	
-0.407288	
-0.410767	
-0.413513	
-0.416626	
-0.419678	
-0.424072	
-0.427917	
-0.430908	
-0.434021	
-0.437622	
-0.440125	
-0.442566	
-0.445251	
-0.448059	
-0.450867	
-0.453979	
-0.457336	
-0.460571	
-0.462097	
-0.464966	
-0.46582	
-0.469543	
-0.47113	
-0.472412	
-0.472168	
-0.473938	
-0.474487	
-0.474609	
-0.477173	
-0.476318	
-0.477234	
-0.478271	
-0.479492	
-0.481323	
-0.483887	
-0.485901	
-0.48822	
-0.489075	
-0.492432	
-0.495667	
-0.497803	
-0.499634	
-0.501038	
-0.501831	
-0.5047	
-0.505249	
-0.504883	
-0.503296	
-0.502136	
-0.500427	
-0.498108	
-0.496277	
-0.490723	
-0.48645	
-0.48175	
-0.479126	
-0.473877	
-0.469482	
-0.464172	
-0.460022	
-0.455139	
-0.450806	
-0.44751	
-0.443176	
-0.438416	
-0.434021	
-0.428467	
-0.425659	
-0.421997	
-0.41748	
-0.411255	
-0.407288	
-0.401733	
-0.395935	
-0.391724	
-0.384338	
-0.378113	
-0.370483	
-0.362976	
-0.355225	
-0.347229	
-0.338562	
-0.327698	
-0.31842	
-0.309204	
-0.299072	
-0.290344	
-0.279907	
-0.269897	
-0.260864	
-0.251831	
-0.24408	
-0.237122	
-0.230347	
-0.22467	
-0.221069	
-0.218445	
-0.218506	
-0.218262	
-0.218079	
-0.219666	
-0.221924	
-0.22583	
-0.229309	
-0.233276	
-0.236328	
-0.240662	
-0.244812	
-0.250183	
-0.254456	
-0.259277	
-0.264893	
-0.270142	
-0.276245	
-0.28125	
-0.28717	
-0.292114	
-0.297974	
-0.303894	
-0.310303	
-0.315186	
-0.320007	
-0.323669	
-0.329407	
-0.334045	
-0.336731	
-0.338928	
-0.342224	
-0.345337	
-0.346863	
-0.349609	
-0.350708	
-0.351929	
-0.352966	
-0.354126	
-0.356018	
-0.356506	
-0.356384	
-0.358154	
-0.35968	
-0.359253	
-0.361755	
-0.362061	
-0.363037	
-0.363892	
-0.365417	
-0.36731	
-0.367676	
-0.367615	
-0.36969	
-0.371399	
-0.371887	
-0.373901	
-0.374634	
-0.376099	
-0.37677	
-0.377625	
-0.378601	
-0.379272	
-0.37915	
-0.380554	
-0.380737	
-0.381348	
-0.381958	
-0.381592	
-0.381836	
-0.381409	
-0.381592	
-0.383423	
-0.383118	
-0.383179	
-0.383484	
-0.383667	
-0.384094	
-0.385376	
-0.386292	
-0.385132	
-0.385864	
-0.387146	
-0.387268	
-0.387695	
-0.387329	
-0.387024	
-0.386536	
-0.387451	
-0.388306	
-0.387878	
-0.38739	
-0.387512	
-0.388184	
-0.387329	
-0.388489	
-0.388245	
-0.387756	
-0.387634	
-0.387939	
-0.387695	
-0.388184	
-0.388794	
-0.388855	
-0.389343	
-0.388611	
-0.390686	
-0.390564	
-0.390625	
-0.39032	
-0.390686	
-0.390564	
-0.391479	
-0.391418	
-0.391174	
-0.391174	
-0.390198	
-0.391663	
-0.390564	
-0.390442	
-0.390625	
-0.390198	
-0.389648	
-0.390198	
-0.389832	
-0.389526	
-0.389282	
-0.387756	
-0.389343	
-0.389099	
-0.388245	
-0.388062	
-0.388794	
-0.387817	
-0.387817	
-0.387756	
-0.387146	
-0.386963	
-0.386169	
-0.387329	
-0.386902	
-0.386108	
-0.38562	
-0.386169	
-0.385132	
-0.385315	
-0.384766	
-0.384094	
-0.383728	
-0.382813	
-0.38385	
-0.384094	
-0.382629	
-0.381775	
-0.382935	
-0.382813	
-0.383179	
-0.382935	
-0.383118	
-0.383301	
-0.382385	
-0.38446	
-0.385132	
-0.384399	
-0.384399	
-0.384521	
-0.385132	
-0.385864	
-0.385986	
-0.386108	
-0.386353	
-0.384705	
-0.38739	
-0.388428	
-0.387329	
-0.388123	
-0.388306	
-0.388733	
-0.38916	
-0.389709	
-0.388977	
-0.389221	
-0.387451	
-0.390198	
-0.390259	
-0.389465	
-0.389832	
-0.388611	
-0.388794	
-0.38916	
-0.389954	
-0.388733	
-0.388916	
-0.38855	
-0.389099	
-0.389832	
-0.388367	
-0.388367	
-0.38678	
-0.387817	
-0.387878	
-0.387939	
-0.388	
-0.388184	
-0.388062	
-0.387329	
-0.389648	
-0.388489	
-0.388245	
-0.388733	
-0.388184	
-0.388367	
-0.388611	
-0.389771	
-0.388733	
-0.388489	
-0.388	
-0.389709	
-0.390015	
-0.389832	
-0.389282	
-0.388611	
-0.389954	
-0.390259	
-0.390381	
-0.39032	
-0.389954	
-0.390442	
-0.389648	
-0.392029	
-0.390747	
-0.391296	
-0.391174	
-0.390991	
-0.391296	
-0.391846	
-0.392822	
-0.392578	
-0.392517	
-0.391663	
-0.393372	
-0.393127	
-0.39325	
-0.393433	
-0.392212	
-0.393311	
-0.394104	
-0.394897	
-0.394104	
-0.394409	
-0.393555	
-0.395081	
-0.395508	
-0.39447	
-0.394226	
-0.394348	
-0.394104	
-0.39447	
-0.394897	
-0.394958	
-0.394348	
-0.393188	
-0.394836	
-0.394958	
-0.393555	
-0.394043	
-0.395142	
-0.394653	
-0.393982	
-0.395081	
-0.394775	
-0.39447	
-0.393738	
-0.394775	
-0.395447	
-0.39502	
-0.394836	
-0.395447	
-0.394653	
-0.394897	
-0.39563	
-0.394958	
-0.395264	
-0.395203	
-0.394958	
-0.395874	
-0.395264	
-0.39563	
-0.395813	
-0.395691	
-0.395447	
-0.396179	
-0.395447	
-0.394897	
-0.394958	
-0.39502	
-0.394958	
-0.394836	
-0.394104	
-0.394592	
-0.393799	
-0.39447	
-0.395081	
-0.393921	
-0.394226	
-0.394104	
-0.394104	
-0.393738	
-0.393982	
-0.393799	
-0.393372	
-0.39325	
-0.393799	
-0.394409	
-0.394348	
-0.394104	
-0.394104	
-0.39325	
-0.394226	
-0.395813	
-0.394531	
-0.394592	
-0.395508	
-0.395325	
-0.395508	
-0.396484	
-0.395874	
-0.395935	
-0.39624	
-0.397095	
-0.397034	
-0.397766	
-0.397461	
-0.397766	
-0.397949	
-0.397461	
-0.398132	
-0.397766	
-0.3974	
-0.397278	
-0.396729	
-0.396057	
-0.397278	
-0.396423	
-0.394836	
-0.396057	
-0.395691	
-0.395752	
-0.395508	
-0.395325	
-0.393982	
-0.393921	
-0.394348	
-0.394348	
-0.393005	
-0.392395	
-0.392517	
-0.392578	
-0.391663	
-0.391785	
-0.391418	
-0.391541	
-0.391663	
-0.390869	
-0.390991	
-0.391418	
-0.391357	
-0.391235	
-0.391907	
-0.392334	
-0.392578	
-0.393127	
-0.393555	
-0.393188	
-0.393005	
-0.392944	
-0.394226	
-0.393555	
-0.393188	
-0.393799	
-0.393677	
-0.393738	
-0.393616	
-0.394409	
-0.39447	
-0.39447	
-0.39325	
-0.394653	
-0.394043	
-0.393799	
-0.394348	
-0.394653	
-0.393982	
-0.393982	
-0.394653	
-0.394226	
-0.394714	
-0.394531	
-0.394287	
-0.394653	
-0.394897	
-0.393677	
-0.395691	
-0.395447	
-0.39502	
-0.395508	
-0.395508	
-0.395386	
-0.395081	
-0.395386	
-0.394958	
-0.395264	
-0.395142	
-0.39447	
-0.394714	
-0.394409	
-0.394226	
-0.393921	
-0.394043	
-0.394104	
-0.393372	
-0.394165	
-0.393127	
-0.393127	
-0.39209	
-0.39386	
-0.392944	
-0.393555	
-0.394714	
-0.393677	
-0.393433	
-0.393372	
-0.395203	
-0.393738	
-0.394226	
-0.393616	
-0.394958	
-0.394592	
-0.394348	
-0.394592	
-0.393433	
-0.395325	
-0.395569	
-0.395081	
-0.395447	
-0.395752	
-0.395386	
-0.395752	
-0.396729	
-0.396179	
-0.396423	
-0.397217	
-0.396179	
-0.396667	
-0.396179	
-0.396973	
-0.396301	
-0.395691	
-0.394592	
-0.396301	
-0.396423	
-0.396301	
-0.396423	
-0.394531	
-0.395569	
-0.395691	
-0.396362	
-0.395386	
-0.394897	
-0.395203	
-0.395569	
-0.395691	
-0.395752	
-0.396362	
-0.396973	
-0.396301	
-0.396545	
-0.395752	
-0.396973	
-0.397766	
-0.397583	
-0.396851	
-0.398254	
-0.399475	
-0.399048	
-0.399353	
-0.398621	
-0.398804	
-0.399597	
-0.400024	
-0.398621	
-0.39856	
-0.397339	
-0.397949	
-0.398193	
-0.397156	
-0.397522	
-0.398071	
-0.396423	
-0.396118	
-0.395569	
-0.396057	
-0.395142	
-0.395264	
-0.394287	
-0.395081	
-0.394836	
-0.394531	
-0.395142	
-0.392517	
-0.392761	
-0.392761	
-0.393188	
-0.392456	
-0.3927	
-0.391052	
-0.392639	
-0.393494	
-0.392822	
-0.393066	
-0.394165	
-0.393372	
-0.393311	
-0.39447	
-0.394043	
-0.394165	
-0.393921	
-0.394287	
-0.39502	
-0.395081	
-0.395325	
-0.396545	
-0.395325	
-0.396729	
-0.396545	
-0.39563	
-0.396667	
-0.397034	
-0.394714	
-0.397034	
-0.398071	
-0.397095	
-0.397461	
-0.397888	
-0.397217	
-0.397217	
-0.398682	
-0.397217	
-0.397278	
-0.397217	
-0.396973	
-0.396912	
-0.396484	
-0.396606	
-0.397278	
-0.396362	
-0.396301	
-0.396179	
-0.395569	
-0.396729	
-0.396423	
-0.395325	
-0.396729	
-0.396912	
-0.396545	
-0.397278	
-0.395996	
-0.395996	
-0.396484	
-0.396484	
-0.395752	
-0.395447	
-0.394287	
-0.395142	
-0.395508	
-0.394836	
-0.39563	
-0.394653	
-0.395142	
-0.393921	
-0.395386	
-0.392883	
-0.393555	
-0.392761	
-0.393616	
-0.393677	
-0.393616	
-0.39447	
-0.39447	
-0.393738	
-0.394043	
-0.393616	
-0.393799	
-0.393677	
-0.393677	
-0.391357	
-0.394287	
-0.395752	
-0.394897	
-0.394836	
-0.393677	
-0.394775	
-0.394287	
-0.396118	
-0.394104	
-0.394531	
-0.394104	
-0.394287	
-0.394592	
-0.394592	
-0.394775	
-0.394714	
-0.394287	
-0.394226	
-0.394531	
-0.394653	
-0.394836	
-0.39447	
-0.393799	
-0.395142	
-0.395508	
-0.394409	
-0.394958	
-0.395264	
-0.395081	
-0.39447	
-0.396301	
-0.394226	
-0.394775	
-0.394165	
-0.395508	
-0.395264	
-0.395203	
-0.395935	
-0.395142	
-0.394836	
-0.395508	
-0.396484	
-0.395325	
-0.395813	
-0.396179	
-0.395264	
-0.396484	
-0.397095	
-0.396912	
-0.396729	
-0.396484	
-0.396973	
-0.395691	
-0.397888	
-0.396057	
-0.395935	
-0.394958	
-0.395935	
-0.395935	
-0.395813	
-0.396484	
-0.395447	
-0.394592	
-0.39502	
-0.395508	
-0.394348	
-0.394165	
-0.393921	
-0.392761	
-0.393616	
-0.394043	
-0.393311	
-0.393066	
-0.39325	
-0.393555	
-0.392639	
-0.394531	
-0.392944	
-0.393555	
-0.392883	
-0.394531	
-0.394775	
-0.394836	
-0.396118	
-0.395203	
-0.395691	
-0.39624	
-0.397949	
-0.396423	
-0.397217	
-0.3974	
-0.398071	
-0.398804	
-0.399963	
-0.39917	
-0.399353	
-0.399841	
-0.39978	
-0.399048	
-0.400513	
-0.399231	
-0.400024	
-0.398621	
-0.400391	
-0.400635	
-0.400085	
-0.400452	
-0.399109	
-0.398804	
-0.398743	
-0.399902	
-0.398193	
-0.398193	
-0.397644	
-0.397583	
-0.398499	
-0.399475	
-0.398682	
-0.398438	
-0.397766	
-0.398132	
-0.397217	
-0.39856	
-0.397522	
-0.398254	
-0.396729	
-0.397949	
-0.398621	
-0.39856	
-0.398804	
-0.399048	
-0.397583	
-0.39801	
-0.399048	
-0.397583	
-0.397705	
-0.397522	
-0.397034	
-0.397705	
-0.398865	
-0.397278	
-0.397461	
-0.397339	
-0.398071	
-0.397217	
-0.397766	
-0.397217	
-0.397888	
-0.396606	
-0.398132	
-0.398071	
-0.398376	
-0.398987	
-0.399292	
-0.398376	
-0.399231	
-0.399475	
-0.398743	
-0.398315	
-0.399353	
-0.398438	
-0.40033	
-0.401062	
-0.399963	
-0.400879	
-0.399841	
-0.401123	
-0.400513	
-0.401489	
-0.399963	
-0.399902	
-0.398865	
-0.399109	
-0.400146	
-0.399231	
-0.399109	
-0.398743	
-0.398987	
-0.399048	
-0.398804	
-0.398132	
-0.397339	
-0.397522	
-0.396851	
-0.398071	
-0.398193	
-0.397705	
-0.398193	
-0.396606	
-0.39801	
-0.397949	
-0.398499	
-0.397827	
-0.3974	
-0.396545	
-0.397583	
-0.39856	
-0.397583	
-0.397583	
-0.397461	
-0.398315	
-0.398926	
-0.398438	
-0.397949	
-0.397827	
-0.398499	
-0.396973	
-0.398376	
-0.39801	
-0.397766	
-0.397949	
-0.3974	
-0.3974	
-0.397217	
-0.397888	
-0.396545	
-0.395935	
-0.394409	
-0.395874	
-0.395813	
-0.395447	
-0.395203	
-0.39447	
-0.394958	
-0.394897	
-0.394775	
-0.394714	
-0.394287	
-0.394958	
-0.394592	
-0.396606	
-0.396057	
-0.396484	
-0.397156	
-0.396606	
-0.397705	
-0.397949	
-0.398865	
-0.397766	
-0.398071	
-0.397644	
-0.398743	
-0.399719	
-0.399292	
-0.399414	
-0.399963	
-0.40033	
-0.401489	
-0.401062	
-0.401001	
-0.400818	
-0.400818	
-0.400574	
-0.401733	
-0.401245	
-0.401123	
-0.401184	
-0.399963	
-0.400696	
-0.400574	
-0.400391	
-0.39978	
-0.398499	
-0.398987	
-0.399963	
-0.400208	
-0.399231	
-0.399109	
-0.398987	
-0.398438	
-0.398743	
-0.398132	
-0.397522	
-0.397095	
-0.396912	
-0.395813	
-0.397461	
-0.397034	
-0.396729	
-0.397217	
-0.395996	
-0.397156	
-0.397095	
-0.397644	
-0.396606	
-0.39563	
-0.39624	
-0.397156	
-0.39801	
-0.397156	
-0.397522	
-0.397766	
-0.397583	
-0.398254	
-0.397339	
-0.397705	
-0.397156	
-0.397583	
-0.396912	
-0.397522	
-0.397766	
-0.397583	
-0.398071	
-0.397461	
-0.39856	
-0.39856	
-0.398438	
-0.398743	
-0.397522	
-0.398132	
-0.399048	
-0.399231	
-0.398804	
-0.39917	
-0.400269	
-0.399353	
-0.401001	
-0.400696	
-0.40094	
-0.400024	
-0.400146	
-0.399719	
-0.400696	
-0.401733	
-0.400574	
-0.400574	
-0.400757	
-0.400879	
-0.400818	
-0.40094	
-0.399841	
-0.399231	
-0.399719	
-0.400085	
-0.40033	
-0.400024	
-0.400146	
-0.400146	
-0.39917	
-0.40033	
-0.399902	
-0.399902	
-0.39978	
-0.399536	
-0.399353	
-0.399963	
-0.401001	
-0.399597	
-0.399658	
-0.400513	
-0.399902	
-0.400146	
-0.400208	
-0.399414	
-0.398865	
-0.39917	
-0.398804	
-0.39978	
-0.400146	
-0.399841	
-0.399841	
-0.398804	
-0.400513	
-0.39978	
-0.399109	
-0.399475	
-0.399109	
-0.398132	
-0.398926	
-0.399536	
-0.398865	
-0.398865	
-0.399048	
-0.398926	
-0.399536	
-0.398743	
-0.39801	
-0.397339	
-0.397095	
-0.396545	
-0.397339	
-0.397949	
-0.397217	
-0.397278	
-0.397217	
-0.397766	
-0.397461	
-0.397461	
-0.397522	
-0.396667	
-0.397461	
-0.397949	
-0.398132	
-0.398071	
-0.398499	
-0.398926	
-0.397644	
-0.399963	
-0.39978	
-0.39917	
-0.399475	
-0.399231	
-0.39978	
-0.400818	
-0.40094	
-0.400574	
-0.400757	
-0.40094	
-0.40033	
-0.400513	
-0.400391	
-0.399597	
-0.398315	
-0.398438	
-0.399292	
-0.399048	
-0.398926	
-0.398621	
-0.398438	
-0.397278	
-0.397949	
-0.397705	
-0.39624	
-0.395813	
-0.395325	
-0.394287	
-0.39502	
-0.395081	
-0.393982	
-0.394043	
-0.394653	
-0.393738	
-0.39502	
-0.394165	
-0.393372	
-0.393066	
-0.392456	
-0.393494	
-0.393372	
-0.394531	
-0.394165	
-0.394714	
-0.394226	
-0.395386	
-0.396118	
-0.394409	
-0.39502	
-0.394287	
-0.394653	
-0.395386	
-0.395569	
-0.395325	
-0.395325	
-0.396484	
-0.394409	
-0.396729	
-0.396667	
-0.395508	
-0.395569	
-0.395081	
-0.395691	
-0.395874	
-0.396179	
-0.395691	
-0.395813	
-0.395691	
-0.396179	
-0.396606	
-0.395264	
-0.396057	
-0.394592	
-0.39447	
-0.396118	
-0.396301	
-0.396912	
-0.396423	
-0.396912	
-0.396057	
-0.397156	
-0.397583	
-0.395935	
-0.395874	
-0.394958	
-0.395996	
-0.395752	
-0.395996	
-0.395447	
-0.395386	
-0.394897	
-0.39386	
-0.395813	
-0.393738	
-0.394104	
-0.393372	
-0.391907	
-0.393372	
-0.393555	
-0.394348	
-0.394348	
-0.394348	
-0.393738	
-0.394165	
-0.395142	
-0.39386	
-0.393494	
-0.393188	
-0.394348	
-0.394775	
-0.394775	
-0.395142	
-0.394836	
-0.394714	
-0.39502	
-0.396729	
-0.394043	
-0.395447	
-0.394531	
-0.393433	
-0.395447	
-0.395691	
-0.396362	
-0.395569	
-0.396179	
-0.395142	
-0.394775	
-0.396973	
-0.395386	
-0.395508	
-0.393921	
-0.395447	
-0.395813	
-0.395386	
-0.396423	
-0.395264	
-0.395081	
-0.395142	
-0.395996	
-0.39502	
-0.394409	
-0.39447	
-0.39447	
-0.395142	
-0.395386	
-0.395691	
-0.395447	
-0.396912	
-0.395935	
-0.395142	
-0.397949	
-0.396729	
-0.396912	
-0.396667	
-0.396423	
-0.397461	
-0.398254	
-0.398804	
-0.398621	
-0.399048	
-0.398376	
-0.398376	
-0.398376	
-0.397827	
-0.397278	
-0.394836	
-0.397095	
-0.39679	
-0.396545	
-0.396423	
-0.395935	
-0.39563	
-0.394836	
-0.396667	
-0.394714	
-0.394531	
-0.393738	
-0.393188	
-0.393677	
-0.393616	
-0.393677	
-0.392883	
-0.393494	
-0.392456	
-0.391174	
-0.393433	
-0.391663	
-0.391602	
-0.390381	
-0.391663	
-0.391968	
-0.391968	
-0.393066	
-0.392395	
-0.392578	
-0.392517	
-0.393188	
-0.393066	
-0.393127	
-0.392944	
-0.390869	
-0.393555	
-0.394165	
-0.394653	
-0.394836	
-0.395386	
-0.395386	
-0.394409	
-0.3974	
-0.395508	
-0.395813	
-0.395264	
-0.395752	
-0.395752	
-0.39624	
-0.395996	
-0.39624	
-0.395569	
-0.395996	
-0.395874	
-0.395691	
-0.396301	
-0.395569	
-0.393066	
-0.395752	
-0.395447	
-0.39563	
-0.396423	
-0.396118	
-0.395264	
-0.395203	
-0.396606	
-0.395264	
-0.395203	
-0.394653	
-0.394226	
-0.394653	
-0.394897	
-0.395081	
-0.395142	
-0.394226	
-0.394409	
-0.393188	
-0.394165	
-0.394104	
-0.393799	
-0.392151	
-0.393372	
-0.393494	
-0.39325	
-0.393616	
-0.393555	
-0.392578	
-0.392151	
-0.393127	
-0.392395	
-0.391846	
-0.391846	
-0.391113	
-0.392151	
-0.392151	
-0.392029	
-0.392212	
-0.392761	
-0.392395	
-0.391663	
-0.392578	
-0.3927	
-0.392151	
-0.39209	
-0.391968	
-0.392822	
-0.392822	
-0.39386	
-0.393677	
-0.393005	
-0.392944	
-0.393738	
-0.394287	
-0.392761	
-0.392212	
-0.391541	
-0.393372	
-0.392639	
-0.392883	
-0.39386	
-0.393311	
-0.393311	
-0.393372	
-0.39325	
-0.393738	
-0.393127	
-0.392029	
-0.391785	
-0.392822	
-0.393127	
-0.393127	
-0.393616	
-0.392944	
-0.393311	
-0.392944	
-0.394226	
-0.392822	
-0.393005	
-0.393433	
-0.392944	
-0.393616	
-0.394226	
-0.394592	
-0.393433	
-0.393799	
-0.394531	
-0.393311	
-0.395386	
-0.394409	
-0.393494	
-0.393372	
-0.394531	
-0.394775	
-0.394958	
-0.39563	
-0.394714	
-0.394287	
-0.393494	
-0.394714	
-0.394348	
-0.393738	
-0.393616	
-0.392456	
-0.393188	
-0.393005	
-0.393616	
-0.393005	
-0.392944	
-0.391968	
-0.392395	
-0.393433	
-0.391235	
-0.390564	
-0.390503	
-0.391113	
-0.391235	
-0.391357	
-0.392029	
-0.391357	
-0.391235	
-0.391235	
-0.392395	
-0.392456	
-0.391785	
-0.392395	
-0.391846	
-0.393188	
-0.393616	
-0.394226	
-0.394958	
-0.394409	
-0.394531	
-0.39624	
-0.397278	
-0.396118	
-0.396301	
-0.396729	
-0.396667	
-0.397156	
-0.397583	
-0.398438	
-0.398132	
-0.397888	
-0.397766	
-0.397461	
-0.398804	
-0.398254	
-0.396606	
-0.39624	
-0.397461	
-0.397278	
-0.397339	
-0.397156	
-0.396118	
-0.395996	
-0.395569	
-0.396973	
-0.396057	
-0.395447	
-0.395569	
-0.39447	
-0.395752	
-0.395996	
-0.396851	
-0.395935	
-0.395813	
-0.39563	
-0.39624	
-0.397766	
-0.39624	
-0.395386	
-0.395386	
-0.396057	
-0.396423	
-0.396423	
-0.396301	
-0.395569	
-0.395691	
-0.395203	
-0.394836	
-0.395691	
-0.395203	
-0.394653	
-0.393311	
-0.395264	
-0.395264	
-0.396179	
-0.395813	
-0.395081	
-0.394897	
-0.39624	
-0.3974	
-0.39563	
-0.39563	
-0.395569	
-0.396301	
-0.396729	
-0.396912	
-0.397034	
-0.396912	
-0.397095	
-0.396545	
-0.39679	
-0.399048	
-0.397644	
-0.397217	
-0.3974	
-0.39801	
-0.397766	
-0.398132	
-0.398315	
-0.397766	
-0.397583	
-0.397949	
-0.397949	
-0.397644	
-0.396667	
-0.396606	
-0.394653	
-0.396729	
-0.396545	
-0.397034	
-0.396179	
-0.395813	
-0.395752	
-0.395813	
-0.397522	
-0.395447	
-0.393921	
-0.394775	
-0.395386	
-0.39563	
-0.396057	
-0.395874	
-0.39563	
-0.395203	
-0.395813	
-0.395203	
-0.395935	
-0.395569	
-0.39502	
-0.394043	
-0.39563	
-0.396057	
-0.396973	
-0.396851	
-0.396057	
-0.395752	
-0.396423	
-0.396545	
-0.395264	
-0.395386	
-0.395081	
-0.394043	
-0.394958	
-0.395386	
-0.39502	
-0.39447	
-0.394531	
-0.39325	
-0.392517	
-0.394531	
-0.392578	
-0.391602	
-0.392029	
-0.392334	
-0.392334	
-0.393127	
-0.393127	
-0.392151	
-0.392456	
-0.393677	
-0.393433	
-0.394104	
-0.393677	
-0.394043	
-0.393188	
-0.394653	
-0.395142	
-0.395569	
-0.395874	
-0.395935	
-0.395142	
-0.396301	
-0.397644	
-0.396667	
-0.396301	
-0.396729	
-0.396667	
-0.397949	
-0.399048	
-0.39856	
-0.398499	
-0.398743	
-0.398865	
-0.39801	
-0.400024	
-0.398438	
-0.397583	
-0.397339	
-0.398193	
-0.398376	
-0.398804	
-0.398254	
-0.397583	
-0.397339	
-0.397705	
-0.397827	
-0.397278	
-0.396729	
-0.39624	
-0.39502	
-0.395691	
-0.395691	
-0.395325	
-0.395081	
-0.394531	
-0.394043	
-0.394043	
-0.395996	
-0.394409	
-0.393555	
-0.394165	
-0.394348	
-0.394897	
-0.395752	
-0.39563	
-0.394775	
-0.394287	
-0.395325	
-0.39502	
-0.39563	
-0.394836	
-0.394897	
-0.393799	
-0.395203	
-0.395691	
-0.395691	
-0.39563	
-0.395813	
-0.395142	
-0.39624	
-0.396545	
-0.395508	
-0.395081	
-0.395386	
-0.39502	
-0.396179	
-0.396973	
-0.397095	
-0.396667	
-0.397095	
-0.396484	
-0.39624	
-0.398865	
-0.397339	
-0.397217	
-0.397278	
-0.398621	
-0.398193	
-0.399414	
-0.400146	
-0.398804	
-0.398987	
-0.399353	
-0.398926	
-0.398987	
-0.398682	
-0.398926	
-0.396973	
-0.398804	
-0.399048	
-0.398804	
-0.398804	
-0.398193	
-0.39801	
-0.398193	
-0.398987	
-0.398071	
-0.39679	
-0.398071	
-0.397522	
-0.397949	
-0.398376	
-0.39801	
-0.3974	
-0.398193	
-0.398438	
-0.397644	
-0.399414	
-0.397766	
-0.397522	
-0.3974	
-0.397339	
-0.397949	
-0.398743	
-0.398132	
-0.397461	
-0.397339	
-0.397949	
-0.398132	
-0.397583	
-0.396667	
-0.397461	
-0.39679	
-0.397461	
-0.397827	
-0.397644	
-0.397644	
-0.397095	
-0.396423	
-0.396179	
-0.398071	
-0.396667	
-0.39679	
-0.396179	
-0.396606	
-0.396362	
-0.39679	
-0.396912	
-0.395874	
-0.39563	
-0.395874	
	
