E:\DOCUMENTS AND SETTINGS\JPOTAS\MEUS DOCUMENTOS\UFRJ\RSCI-BM 12 WK SERIES\070727-RSCI-BM-05\RSCI-BM-05-LEMG\070727-RSCI-BM-05-LEMG-0003.ACQ
0.025000 msec/sample
1 channel
Analog input
Volts
CH1	
2000	
-0.387695	
-0.387817	
-0.386597	
-0.386169	
-0.38678	
-0.387695	
-0.38739	
-0.388	
-0.387634	
-0.387451	
-0.387939	
-0.387756	
-0.387695	
-0.38739	
-0.385681	
-0.38623	
-0.387085	
-0.387085	
-0.387024	
-0.388	
-0.386963	
-0.387268	
-0.387695	
-0.387512	
-0.387756	
-0.388	
-0.386475	
-0.387268	
-0.387939	
-0.389221	
-0.388245	
-0.388977	
-0.388062	
-0.387939	
-0.388672	
-0.389343	
-0.389526	
-0.389221	
-0.388977	
-0.389343	
-0.389526	
-0.389221	
-0.389465	
-0.389526	
-0.388184	
-0.388367	
-0.387756	
-0.388611	
-0.38916	
-0.388672	
-0.387451	
-0.387756	
-0.388062	
-0.388184	
-0.388428	
-0.389404	
-0.387817	
-0.387878	
-0.388062	
-0.389282	
-0.388916	
-0.388611	
-0.388062	
-0.387329	
-0.388245	
-0.388062	
-0.388428	
-0.389404	
-0.388	
-0.38739	
-0.388062	
-0.388855	
-0.389221	
-0.389038	
-0.388367	
-0.388062	
-0.388733	
-0.388367	
-0.389099	
-0.390015	
-0.38916	
-0.388611	
-0.388611	
-0.389526	
-0.389771	
-0.389038	
-0.388489	
-0.387695	
-0.389099	
-0.388916	
-0.388733	
-0.389404	
-0.389099	
-0.388367	
-0.388855	
-0.388916	
-0.390503	
-0.389771	
-0.388855	
-0.38855	
-0.389526	
-0.38916	
-0.389282	
-0.389954	
-0.389404	
-0.38916	
-0.389404	
-0.389832	
-0.391235	
-0.390259	
-0.390198	
-0.389648	
-0.390564	
-0.390503	
-0.391235	
-0.391418	
-0.390808	
-0.389832	
-0.391296	
-0.390564	
-0.392395	
-0.391968	
-0.391357	
-0.390625	
-0.390869	
-0.391235	
-0.391418	
-0.391235	
-0.390747	
-0.389465	
-0.390076	
-0.389587	
-0.392029	
-0.389771	
-0.389893	
-0.38855	
-0.388733	
-0.388611	
-0.388611	
-0.388916	
-0.389099	
-0.388794	
-0.389709	
-0.389709	
-0.390808	
-0.389954	
-0.390381	
-0.388916	
-0.388062	
-0.38916	
-0.389221	
-0.388733	
-0.388245	
-0.388	
-0.388977	
-0.388672	
-0.389771	
-0.388855	
-0.389526	
-0.388489	
-0.388611	
-0.388855	
-0.389221	
-0.389343	
-0.389954	
-0.388916	
-0.389709	
-0.389709	
-0.390808	
-0.390137	
-0.390076	
-0.389465	
-0.389099	
-0.390381	
-0.391052	
-0.390564	
-0.391907	
-0.390564	
-0.391418	
-0.391113	
-0.392517	
-0.391479	
-0.391907	
-0.391113	
-0.390259	
-0.391541	
-0.392212	
-0.392029	
-0.392029	
-0.391846	
-0.391663	
-0.392578	
-0.392151	
-0.392639	
-0.393433	
-0.392395	
-0.391052	
-0.389404	
-0.387146	
-0.386169	
-0.386597	
-0.385803	
-0.386292	
-0.389404	
-0.392212	
-0.39209	
-0.393127	
-0.392517	
-0.391602	
-0.392761	
-0.3927	
-0.392822	
-0.393066	
-0.391479	
-0.39032	
-0.391907	
-0.391724	
-0.392822	
-0.392029	
-0.391052	
-0.390198	
-0.391479	
-0.389954	
-0.391296	
-0.392151	
-0.391846	
-0.391296	
-0.391418	
-0.390625	
-0.392212	
-0.391907	
-0.390808	
-0.390503	
-0.390869	
-0.390564	
-0.391602	
-0.391296	
-0.391296	
-0.390137	
-0.390991	
-0.390808	
-0.392517	
-0.391724	
-0.390442	
-0.390381	
-0.391235	
-0.390625	
-0.392151	
-0.392822	
-0.394531	
-0.394348	
-0.397827	
-0.40033	
-0.403503	
-0.406677	
-0.409241	
-0.411438	
-0.41748	
-0.421265	
-0.425171	
-0.429016	
-0.432373	
-0.434387	
-0.438782	
-0.443665	
-0.446899	
-0.450562	
-0.454346	
-0.459717	
-0.464844	
-0.472839	
-0.478455	
-0.48584	
-0.490356	
-0.495605	
-0.499573	
-0.503296	
-0.503723	
-0.503845	
-0.502441	
-0.501343	
-0.499817	
-0.497864	
-0.495056	
-0.492249	
-0.48761	
-0.48407	
-0.480286	
-0.476196	
-0.472229	
-0.466736	
-0.46051	
-0.457031	
-0.452271	
-0.447449	
-0.441833	
-0.437622	
-0.431885	
-0.428101	
-0.425232	
-0.421387	
-0.418152	
-0.414673	
-0.411682	
-0.409729	
-0.407471	
-0.406494	
-0.404541	
-0.403198	
-0.400757	
-0.399414	
-0.398438	
-0.39679	
-0.396423	
-0.394287	
-0.392334	
-0.392578	
-0.392334	
-0.39325	
-0.392761	
-0.394226	
-0.393616	
-0.39502	
-0.397339	
-0.397705	
-0.400024	
-0.399902	
-0.400879	
-0.401733	
-0.402527	
-0.401306	
-0.401001	
-0.399292	
-0.396362	
-0.395508	
-0.394409	
-0.390625	
-0.388611	
-0.384399	
-0.380005	
-0.376831	
-0.371521	
-0.367432	
-0.361206	
-0.355835	
-0.3479	
-0.341675	
-0.335205	
-0.327454	
-0.320374	
-0.313293	
-0.306519	
-0.300781	
-0.294067	
-0.289551	
-0.285339	
-0.281738	
-0.277344	
-0.276001	
-0.275391	
-0.274048	
-0.274658	
-0.274231	
-0.27594	
-0.27887	
-0.282349	
-0.285889	
-0.289429	
-0.293823	
-0.296509	
-0.302124	
-0.304382	
-0.308411	
-0.31073	
-0.312927	
-0.315186	
-0.316406	
-0.319031	
-0.319336	
-0.320007	
-0.319397	
-0.321411	
-0.321899	
-0.321411	
-0.322083	
-0.322998	
-0.324158	
-0.325623	
-0.329163	
-0.330444	
-0.333496	
-0.335205	
-0.337585	
-0.339844	
-0.342468	
-0.344299	
-0.344666	
-0.347229	
-0.348816	
-0.349609	
-0.350525	
-0.351563	
-0.352417	
-0.353088	
-0.354858	
-0.354553	
-0.354614	
-0.35498	
-0.355225	
-0.356201	
-0.355347	
-0.357361	
-0.357727	
-0.357727	
-0.357605	
-0.358643	
-0.358887	
-0.359314	
-0.359924	
-0.359619	
-0.359192	
-0.360535	
-0.361267	
-0.361755	
-0.362305	
-0.362305	
-0.362061	
-0.362061	
-0.362	
-0.363098	
-0.361389	
-0.362427	
-0.361938	
-0.362976	
-0.363037	
-0.36322	
-0.363953	
-0.363892	
-0.364319	
-0.364014	
-0.365295	
-0.364441	
-0.36377	
-0.363586	
-0.364441	
-0.364258	
-0.364258	
-0.364441	
-0.364258	
-0.364685	
-0.364807	
-0.364014	
-0.364685	
-0.364197	
-0.364075	
-0.363586	
-0.363525	
-0.365417	
-0.365479	
-0.366211	
-0.365295	
-0.36676	
-0.366333	
-0.366943	
-0.367859	
-0.367432	
-0.36792	
-0.366882	
-0.369202	
-0.368958	
-0.36908	
-0.369629	
-0.368896	
-0.369446	
-0.368713	
-0.369751	
-0.368408	
-0.368164	
-0.368164	
-0.368958	
-0.369934	
-0.36969	
-0.370239	
-0.370239	
-0.370361	
-0.370544	
-0.369995	
-0.371155	
-0.369812	
-0.370361	
-0.370422	
-0.37146	
-0.371704	
-0.371643	
-0.372681	
-0.371094	
-0.372498	
-0.371765	
-0.372864	
-0.371887	
-0.371704	
-0.372131	
-0.371033	
-0.373047	
-0.372498	
-0.372803	
-0.371643	
-0.372681	
-0.371704	
-0.372131	
-0.372437	
-0.371216	
-0.371826	
-0.370544	
-0.37146	
-0.371643	
-0.372253	
-0.371704	
-0.371277	
-0.37262	
-0.371643	
-0.372314	
-0.372314	
-0.372803	
-0.371887	
-0.372559	
-0.372986	
-0.372925	
-0.372742	
-0.37262	
-0.373291	
-0.374146	
-0.373657	
-0.374329	
-0.373596	
-0.374634	
-0.373596	
-0.373596	
-0.375732	
-0.375427	
-0.375366	
-0.374207	
-0.374451	
-0.373596	
-0.374817	
-0.374695	
-0.374756	
-0.375122	
-0.375732	
-0.374817	
-0.376404	
-0.37561	
-0.376343	
-0.375732	
-0.375671	
-0.376099	
-0.376404	
-0.377014	
-0.375305	
-0.375916	
-0.376343	
-0.377075	
-0.37616	
-0.376465	
-0.376221	
-0.37561	
-0.377563	
-0.376343	
-0.377625	
-0.378174	
-0.376892	
-0.377197	
-0.377563	
-0.37854	
-0.378174	
-0.378662	
-0.378052	
-0.378113	
-0.378723	
-0.377869	
-0.378662	
-0.378601	
-0.378479	
-0.378418	
-0.377625	
-0.379517	
-0.378479	
-0.379089	
-0.378723	
-0.379272	
-0.37915	
-0.379517	
-0.38031	
-0.378845	
-0.378113	
-0.379395	
-0.379944	
-0.379761	
-0.379822	
-0.37915	
-0.378601	
-0.379211	
-0.378479	
-0.379822	
-0.380127	
-0.37854	
-0.378784	
-0.3797	
-0.380859	
-0.380371	
-0.380981	
-0.38092	
-0.381042	
-0.381714	
-0.38147	
-0.381653	
-0.380554	
-0.381226	
-0.381836	
-0.381775	
-0.382629	
-0.382507	
-0.383118	
-0.38208	
-0.382385	
-0.383057	
-0.382568	
-0.382019	
-0.382141	
-0.382141	
-0.382324	
-0.383789	
-0.38324	
-0.383423	
-0.383545	
-0.383606	
-0.385132	
-0.38446	
-0.385925	
-0.38562	
-0.384583	
-0.38562	
-0.384583	
-0.385986	
-0.384705	
-0.385254	
-0.383911	
-0.384583	
-0.384583	
-0.384033	
-0.384705	
-0.383057	
-0.383057	
-0.38385	
-0.383789	
-0.384338	
-0.383484	
-0.383667	
-0.383118	
-0.383301	
-0.383484	
-0.383057	
-0.382751	
-0.382996	
-0.38269	
-0.381958	
-0.382874	
-0.383118	
-0.382996	
-0.382996	
-0.38269	
-0.384399	
-0.382935	
-0.383423	
-0.382996	
-0.382751	
-0.382751	
-0.382202	
-0.384155	
-0.383362	
-0.384277	
-0.38324	
-0.383362	
-0.383789	
-0.382874	
-0.384094	
-0.382996	
-0.382446	
-0.383728	
-0.383667	
-0.385437	
-0.384216	
-0.385071	
-0.384338	
-0.384766	
-0.38501	
-0.384888	
-0.384888	
-0.383667	
-0.384399	
-0.384583	
-0.386475	
-0.385681	
-0.386353	
-0.386902	
-0.385132	
-0.386597	
-0.386292	
-0.38623	
-0.386902	
-0.384827	
-0.384338	
-0.385498	
-0.38562	
-0.385681	
-0.385193	
-0.385864	
-0.384644	
-0.386597	
-0.385925	
-0.385986	
-0.385254	
-0.38562	
-0.38562	
-0.385681	
-0.38623	
-0.385864	
-0.386414	
-0.385803	
-0.386047	
-0.386353	
-0.386902	
-0.386414	
-0.385986	
-0.385498	
-0.385437	
-0.38623	
-0.386475	
-0.386414	
-0.386963	
-0.385498	
-0.386902	
-0.38739	
-0.387512	
-0.387756	
-0.385742	
-0.386597	
-0.386292	
-0.387451	
-0.387146	
-0.386902	
-0.387146	
-0.387207	
-0.387634	
-0.386597	
-0.387634	
-0.386597	
-0.386414	
-0.386414	
-0.386108	
-0.387756	
-0.387573	
-0.387573	
-0.386536	
-0.387512	
-0.388367	
-0.387207	
-0.388062	
-0.387573	
-0.38739	
-0.38623	
-0.386841	
-0.387817	
-0.387878	
-0.388367	
-0.387085	
-0.388611	
-0.38916	
-0.388916	
-0.389648	
-0.388672	
-0.388855	
-0.387756	
-0.389954	
-0.389282	
-0.389526	
-0.389893	
-0.389282	
-0.389648	
-0.389465	
-0.390442	
-0.389648	
-0.388794	
-0.389221	
-0.388977	
-0.389587	
-0.388977	
-0.38855	
-0.389099	
-0.388306	
-0.388184	
-0.387451	
-0.388428	
-0.387634	
-0.38623	
-0.386658	
-0.387268	
-0.388733	
-0.388123	
-0.38855	
-0.388977	
-0.388733	
-0.389221	
-0.387756	
-0.388855	
-0.387695	
-0.38678	
-0.387146	
-0.386292	
-0.38739	
-0.387573	
-0.387512	
-0.386963	
-0.387817	
-0.388245	
-0.387756	
-0.38855	
-0.387939	
-0.388062	
-0.387207	
-0.387329	
-0.388367	
-0.388367	
-0.38855	
-0.387695	
-0.388672	
-0.388855	
-0.388184	
-0.389709	
-0.389221	
-0.389526	
-0.389282	
-0.390015	
-0.389893	
-0.390503	
-0.390625	
-0.389954	
-0.390503	
-0.390564	
-0.389954	
-0.392029	
-0.39032	
-0.390686	
-0.390137	
-0.391724	
-0.391541	
-0.391418	
-0.391663	
-0.391907	
-0.391602	
-0.392029	
-0.391602	
-0.392029	
-0.390991	
-0.391296	
-0.391174	
-0.391785	
-0.390808	
-0.390686	
-0.391357	
-0.391174	
-0.392151	
-0.391724	
-0.392395	
-0.391479	
-0.392029	
-0.391052	
-0.390686	
-0.392761	
-0.392578	
-0.391785	
-0.390747	
-0.39093	
-0.391479	
-0.390808	
-0.389954	
-0.390869	
-0.391113	
-0.391052	
-0.390991	
-0.391479	
-0.390564	
-0.390564	
-0.391785	
-0.391052	
-0.391479	
-0.391418	
-0.391846	
-0.389771	
-0.39093	
-0.390198	
-0.391541	
-0.390991	
-0.390808	
-0.390564	
-0.390076	
-0.39093	
-0.390503	
-0.391479	
-0.390259	
-0.389343	
-0.390381	
-0.390198	
-0.390991	
-0.390747	
-0.390564	
-0.39032	
-0.391235	
-0.391235	
-0.391174	
-0.391541	
-0.391235	
-0.39093	
-0.390686	
-0.390198	
-0.391113	
-0.390503	
-0.390747	
-0.39093	
-0.39093	
-0.391418	
-0.391296	
-0.390686	
-0.390625	
-0.390747	
-0.389709	
-0.390259	
-0.391602	
-0.390625	
-0.390747	
-0.390747	
-0.390259	
-0.39093	
-0.391357	
-0.390808	
-0.389771	
-0.390137	
-0.390015	
-0.388916	
-0.390259	
-0.389893	
-0.389771	
-0.389587	
-0.389893	
-0.389709	
-0.390137	
-0.389832	
-0.388794	
-0.389526	
-0.389587	
-0.390076	
-0.390564	
-0.389343	
-0.389343	
-0.388855	
-0.390076	
-0.388794	
-0.388916	
-0.389099	
-0.386841	
-0.386963	
-0.387512	
-0.387268	
-0.387756	
-0.387451	
-0.387329	
-0.387512	
-0.388672	
-0.388428	
-0.38916	
-0.389404	
-0.388855	
-0.38855	
-0.388672	
-0.389221	
-0.389648	
-0.389221	
-0.389771	
-0.389404	
-0.391174	
-0.39093	
-0.390442	
-0.389771	
-0.389771	
-0.390381	
-0.390625	
-0.390991	
-0.390808	
-0.390747	
-0.390808	
-0.391113	
-0.391357	
-0.391663	
-0.391052	
-0.390198	
-0.389954	
-0.39032	
-0.390686	
-0.390564	
-0.390991	
-0.390747	
-0.391235	
-0.390076	
-0.391479	
-0.392273	
-0.391418	
-0.389771	
-0.390869	
-0.390747	
-0.389954	
-0.391602	
-0.390625	
-0.391296	
-0.390991	
-0.391113	
-0.391724	
-0.390564	
-0.390564	
-0.39093	
-0.389954	
-0.391052	
-0.389832	
-0.391174	
-0.390869	
-0.390442	
-0.390625	
-0.390442	
-0.389832	
-0.390015	
-0.390198	
-0.388245	
-0.389343	
-0.389526	
-0.390503	
-0.391174	
-0.390076	
-0.390137	
-0.39032	
-0.391663	
-0.390869	
-0.390564	
-0.390808	
-0.390198	
-0.389526	
-0.390137	
-0.390137	
-0.391174	
-0.39032	
-0.390564	
-0.389893	
-0.391296	
-0.39032	
-0.390747	
-0.391235	
-0.390198	
-0.38916	
-0.390259	
-0.390137	
-0.391174	
-0.39032	
-0.390137	
-0.390503	
-0.391602	
-0.390381	
-0.389893	
-0.389832	
-0.389282	
-0.389404	
-0.389282	
-0.389771	
-0.390503	
-0.389893	
-0.389465	
-0.389221	
-0.391663	
-0.390076	
-0.389587	
-0.389954	
-0.389954	
-0.388916	
-0.389526	
-0.389893	
-0.390259	
-0.389465	
-0.389282	
-0.389099	
-0.389771	
-0.390076	
-0.389221	
-0.387939	
-0.388306	
-0.389099	
-0.388	
-0.388733	
-0.389465	
-0.388977	
-0.389099	
-0.388672	
-0.389648	
-0.389221	
-0.387939	
-0.387573	
-0.388	
-0.38739	
-0.38739	
-0.387817	
-0.388306	
-0.387146	
-0.387268	
-0.387695	
-0.387146	
-0.387939	
-0.386963	
-0.385193	
-0.386841	
-0.387207	
-0.386353	
-0.387451	
-0.388611	
-0.388245	
-0.388184	
-0.388916	
-0.389282	
-0.389526	
-0.38916	
-0.387817	
-0.390076	
-0.389954	
-0.389404	
-0.390137	
-0.389954	
-0.389282	
-0.389038	
-0.388794	
-0.388916	
-0.388672	
-0.388916	
-0.387878	
-0.38916	
-0.389832	
-0.388733	
-0.390503	
-0.39032	
-0.389404	
-0.389893	
-0.390442	
-0.389587	
-0.389587	
-0.389709	
-0.388428	
-0.388245	
-0.389587	
-0.388672	
-0.389709	
-0.389099	
-0.389282	
-0.38916	
-0.389404	
-0.389893	
-0.388977	
-0.388977	
-0.387695	
-0.387695	
-0.388367	
-0.38739	
-0.388367	
-0.388184	
-0.388794	
-0.387695	
-0.388062	
-0.387756	
-0.387146	
-0.387451	
-0.385925	
-0.387207	
-0.387512	
-0.386353	
-0.387573	
-0.387329	
-0.387329	
-0.38739	
-0.386658	
-0.387756	
-0.386841	
-0.386902	
-0.386841	
-0.387024	
-0.387329	
-0.387573	
-0.388428	
-0.387695	
-0.388	
-0.388123	
-0.389038	
-0.388611	
-0.387817	
-0.386963	
-0.38623	
-0.387024	
-0.386658	
-0.387024	
-0.387878	
-0.387695	
-0.387512	
-0.387939	
-0.387573	
-0.387756	
-0.387451	
-0.388611	
-0.387268	
-0.388123	
-0.387329	
-0.387756	
-0.388306	
-0.387695	
-0.387695	
-0.388062	
-0.388611	
-0.388184	
-0.387573	
-0.387512	
-0.387024	
-0.387146	
-0.386963	
-0.387329	
-0.388184	
-0.388123	
-0.388062	
-0.388794	
-0.389038	
-0.388367	
-0.388306	
-0.388306	
-0.386902	
-0.388123	
-0.387634	
-0.387939	
-0.388245	
-0.388	
-0.388306	
-0.388489	
-0.389221	
-0.388	
-0.388062	
-0.38739	
-0.387451	
-0.387817	
-0.387146	
-0.388062	
-0.388489	
-0.388062	
-0.388367	
-0.388489	
-0.388977	
-0.388062	
-0.387451	
-0.387024	
-0.386475	
-0.387451	
-0.386353	
-0.387634	
-0.387878	
-0.387573	
-0.388123	
-0.386841	
-0.389221	
-0.388306	
-0.388428	
-0.388184	
-0.387512	
-0.388489	
-0.388672	
-0.389221	
-0.388855	
-0.38855	
-0.389221	
-0.388489	
-0.390686	
-0.388977	
-0.389221	
-0.388611	
-0.389038	
-0.388916	
-0.388672	
-0.389343	
-0.389221	
-0.389893	
-0.389954	
-0.388794	
-0.391235	
-0.390015	
-0.390625	
-0.390015	
-0.390747	
-0.39093	
-0.390747	
-0.392517	
-0.391968	
-0.391907	
-0.391907	
-0.391541	
-0.392456	
-0.39032	
-0.389893	
-0.389282	
-0.389587	
-0.389221	
-0.389404	
-0.390015	
-0.38916	
-0.389038	
-0.389526	
-0.389099	
-0.389526	
-0.388428	
-0.388672	
-0.387817	
-0.388611	
-0.388062	
-0.388367	
-0.389526	
-0.388428	
-0.38855	
-0.388672	
-0.388428	
-0.389648	
-0.388184	
-0.389221	
-0.388	
-0.388916	
-0.388489	
-0.388306	
-0.389587	
-0.388977	
-0.388794	
-0.388855	
-0.388672	
-0.388794	
-0.387573	
-0.388672	
-0.38678	
-0.388	
-0.388306	
-0.388733	
-0.389221	
-0.388306	
-0.388611	
-0.389038	
-0.389038	
-0.389648	
-0.38916	
-0.389587	
-0.387817	
-0.388977	
-0.389343	
-0.389954	
-0.390015	
-0.389709	
-0.390503	
-0.39032	
-0.391541	
-0.390442	
-0.390442	
-0.391663	
-0.390137	
-0.390686	
-0.389954	
-0.390198	
-0.389587	
-0.389587	
-0.389893	
-0.38855	
-0.390625	
-0.389465	
-0.388672	
-0.389954	
-0.388611	
-0.389221	
-0.389221	
-0.389893	
-0.389893	
-0.389404	
-0.390015	
-0.389587	
-0.390564	
-0.389221	
-0.388733	
-0.389832	
-0.388489	
-0.389282	
-0.389587	
-0.390137	
-0.390076	
-0.389893	
-0.390381	
-0.389893	
-0.390808	
-0.389893	
-0.389832	
-0.389832	
-0.389221	
-0.39093	
-0.390259	
-0.391541	
-0.390503	
-0.390503	
-0.390991	
-0.390747	
-0.391113	
-0.390137	
-0.390198	
-0.390686	
-0.389038	
-0.390137	
-0.389893	
-0.391113	
-0.390259	
-0.390564	
-0.391235	
-0.391174	
-0.391479	
-0.390564	
-0.391052	
-0.390259	
-0.390015	
-0.390625	
-0.390137	
-0.391541	
-0.391296	
-0.390686	
-0.391541	
-0.392212	
-0.391724	
-0.391357	
-0.391785	
-0.391113	
-0.390503	
-0.392029	
-0.392273	
-0.393127	
-0.392212	
-0.392578	
-0.393127	
-0.392822	
-0.393433	
-0.3927	
-0.392761	
-0.392761	
-0.392578	
-0.392517	
-0.392029	
-0.3927	
-0.39209	
-0.391785	
-0.39093	
-0.392456	
-0.391602	
-0.390137	
-0.390686	
-0.390076	
-0.389587	
-0.389893	
-0.390015	
-0.39032	
-0.39032	
-0.390991	
-0.390747	
-0.392151	
-0.391785	
-0.390259	
-0.390625	
-0.390259	
-0.390076	
-0.390015	
-0.389465	
-0.390076	
-0.389954	
-0.390442	
-0.389282	
-0.390747	
-0.390747	
-0.388916	
-0.390076	
-0.390076	
-0.390442	
-0.390625	
-0.390625	
-0.390747	
-0.390503	
-0.390808	
-0.390686	
-0.391724	
-0.391907	
-0.390015	
-0.390747	
-0.391724	
-0.391541	
-0.391785	
-0.391663	
-0.392395	
-0.392883	
-0.392639	
-0.391418	
-0.393005	
-0.393311	
-0.392578	
-0.393005	
-0.392944	
-0.392822	
-0.393005	
-0.393066	
-0.39325	
-0.393311	
-0.393311	
-0.394226	
-0.393677	
-0.394165	
-0.392944	
-0.393494	
-0.393921	
-0.394104	
-0.393799	
-0.393005	
-0.393066	
-0.393188	
-0.394226	
-0.393799	
-0.393433	
-0.393738	
-0.393188	
-0.394287	
-0.394348	
-0.394409	
-0.394165	
-0.39386	
-0.394287	
-0.393555	
-0.393127	
-0.393372	
-0.393372	
-0.393555	
-0.391724	
-0.39325	
-0.392273	
-0.392639	
-0.392578	
-0.39209	
-0.3927	
-0.392944	
-0.39386	
-0.393188	
-0.393494	
-0.393372	
-0.392029	
-0.393188	
-0.3927	
-0.392883	
-0.393005	
-0.393127	
-0.392944	
-0.392822	
-0.393066	
-0.392578	
-0.392578	
-0.392517	
-0.390076	
-0.392273	
-0.391968	
-0.392517	
-0.39209	
-0.39209	
-0.392639	
-0.392883	
-0.393433	
-0.392151	
-0.393372	
-0.392517	
-0.391541	
-0.392822	
-0.392517	
-0.392517	
-0.392273	
-0.392456	
-0.392456	
-0.392334	
-0.392578	
-0.392456	
-0.392639	
-0.3927	
-0.390564	
-0.392883	
-0.392151	
-0.392944	
-0.392578	
-0.393066	
-0.392639	
-0.392456	
-0.392944	
-0.392456	
-0.392761	
-0.392212	
-0.391235	
-0.392273	
-0.391541	
-0.391724	
-0.392151	
-0.392273	
-0.391479	
-0.391785	
-0.391724	
-0.391174	
-0.391479	
-0.391052	
-0.389221	
-0.391296	
-0.391052	
-0.391724	
-0.391418	
-0.391235	
-0.391418	
-0.391113	
-0.391235	
-0.390381	
-0.390991	
-0.390015	
-0.389282	
-0.390137	
-0.389221	
-0.389526	
-0.389282	
-0.389404	
-0.388428	
-0.38916	
-0.390259	
-0.389648	
-0.389954	
-0.390015	
-0.388245	
-0.390442	
-0.389832	
-0.390686	
-0.390991	
-0.39093	
-0.390808	
-0.39093	
-0.392273	
-0.391052	
-0.392151	
-0.391541	
-0.391235	
-0.39209	
-0.390991	
-0.391907	
-0.391907	
-0.392334	
-0.391663	
-0.392029	
-0.392639	
-0.391785	
-0.392273	
-0.391968	
-0.389954	
-0.391724	
-0.391724	
-0.391968	
-0.392029	
-0.39209	
-0.391785	
-0.391846	
-0.392822	
-0.391907	
-0.392578	
-0.39209	
-0.391602	
-0.392395	
-0.391785	
-0.392517	
-0.3927	
-0.392212	
-0.391785	
-0.391663	
-0.392883	
-0.39209	
-0.391968	
-0.391907	
-0.389771	
-0.392334	
-0.391357	
-0.391418	
-0.391357	
-0.391785	
-0.391541	
-0.391357	
-0.391602	
-0.390076	
-0.391113	
-0.390442	
-0.389771	
-0.390869	
-0.390442	
-0.391235	
-0.390808	
-0.390747	
-0.391479	
-0.391846	
-0.392456	
-0.390625	
-0.391907	
-0.391418	
-0.388855	
-0.390991	
-0.390198	
-0.391357	
-0.391418	
-0.390991	
-0.39093	
-0.391235	
-0.391968	
-0.39032	
-0.391846	
-0.390808	
-0.390808	
-0.391418	
-0.391174	
-0.391479	
-0.391235	
-0.390625	
-0.390991	
-0.391235	
-0.391846	
-0.390198	
-0.391052	
-0.389954	
-0.389099	
-0.390747	
-0.39032	
-0.390259	
-0.390442	
-0.39032	
-0.390198	
-0.39032	
-0.390808	
-0.389465	
-0.391052	
-0.390076	
-0.389465	
-0.390076	
-0.390564	
-0.390381	
-0.390625	
-0.389771	
-0.390076	
-0.39032	
-0.391113	
-0.388062	
-0.390076	
-0.389771	
-0.387573	
-0.38916	
-0.389404	
-0.389404	
-0.389099	
-0.389038	
-0.389099	
-0.389282	
-0.389771	
-0.388367	
-0.389526	
-0.388062	
-0.386475	
-0.38855	
-0.388184	
-0.38739	
-0.387939	
-0.387085	
-0.387512	
-0.387512	
-0.388611	
-0.386658	
-0.387573	
-0.387207	
-0.385376	
-0.387756	
-0.388123	
-0.387939	
-0.388245	
-0.388062	
-0.388977	
-0.389221	
-0.389954	
-0.389404	
-0.390808	
-0.389893	
-0.388	
-0.390137	
-0.390564	
-0.390137	
-0.389832	
-0.388977	
-0.389099	
-0.388611	
-0.390198	
-0.388062	
-0.390076	
-0.389282	
-0.389526	
-0.390015	
-0.390381	
-0.390076	
-0.390198	
-0.389832	
-0.389526	
-0.390076	
-0.391174	
-0.389099	
-0.390381	
-0.389343	
-0.388916	
-0.389465	
-0.389832	
-0.389221	
-0.389343	
-0.389404	
-0.388977	
-0.389099	
-0.39032	
-0.388062	
-0.389648	
-0.388184	
-0.386719	
-0.387512	
-0.38916	
-0.388245	
-0.387756	
-0.387146	
-0.38739	
-0.387573	
-0.388489	
-0.387085	
-0.38855	
-0.386719	
-0.386902	
-0.386658	
-0.387634	
-0.386902	
-0.386841	
-0.386536	
-0.387451	
-0.387695	
-0.388794	
-0.386047	
-0.387268	
-0.386719	
-0.386414	
-0.387024	
-0.387207	
-0.387329	
-0.387695	
-0.387695	
-0.387634	
-0.387634	
-0.389465	
-0.387268	
-0.388062	
-0.386719	
-0.386719	
-0.386475	
-0.386902	
-0.387268	
-0.38678	
-0.386963	
-0.387512	
-0.387451	
-0.388611	
-0.386902	
-0.387939	
-0.386536	
-0.386475	
-0.387573	
-0.387756	
-0.387512	
-0.386963	
-0.386169	
-0.387268	
-0.38739	
-0.388306	
-0.386658	
-0.387939	
-0.386902	
-0.38739	
-0.387268	
-0.38739	
-0.387329	
-0.387451	
-0.386353	
-0.387695	
-0.387756	
-0.38855	
-0.38739	
-0.38855	
-0.387085	
-0.386658	
-0.387817	
-0.387756	
-0.387451	
-0.387512	
-0.386597	
-0.387817	
-0.387634	
-0.388672	
-0.386963	
-0.387878	
-0.38678	
-0.387085	
-0.386902	
-0.387573	
-0.387024	
-0.387085	
-0.386414	
-0.388489	
-0.38739	
-0.388184	
-0.386475	
-0.387939	
-0.38623	
-0.385803	
-0.386902	
-0.386841	
-0.386963	
-0.38678	
-0.386475	
-0.387817	
-0.387756	
-0.38855	
-0.386902	
-0.387756	
-0.387268	
-0.386963	
-0.387695	
-0.387329	
-0.388184	
-0.388306	
-0.387817	
-0.388428	
-0.388428	
-0.389465	
-0.387817	
-0.388489	
-0.387939	
-0.386963	
-0.388184	
-0.388123	
-0.388428	
-0.388489	
-0.388733	
-0.388733	
-0.389282	
-0.390076	
-0.388916	
-0.390015	
-0.389771	
-0.389893	
-0.390808	
-0.390381	
-0.390808	
-0.390442	
-0.39032	
-0.389832	
-0.389282	
-0.389648	
-0.387939	
-0.389038	
-0.387878	
-0.387329	
-0.388367	
-0.387878	
-0.388	
-0.388245	
-0.388245	
-0.387451	
-0.387451	
-0.388245	
-0.386108	
-0.387146	
-0.386536	
-0.385742	
-0.387085	
-0.387024	
-0.387207	
-0.387146	
	
