E:\DOCUMENTS AND SETTINGS\JPOTAS\MEUS DOCUMENTOS\UFRJ\RSCI-BM 12 WK SERIES\070723-RSCI-BM-06\RSCI-BM-06-LEMG\070723-RSCI-BM-LEMG-0003.ACQ
0.025000 msec/sample
1 channel
Analog input
Volts
CH1	
2000	
-0.391663	
-0.392395	
-0.39093	
-0.391174	
-0.389404	
-0.390503	
-0.391174	
-0.391174	
-0.390198	
-0.389893	
-0.390808	
-0.39093	
-0.391235	
-0.390442	
-0.390747	
-0.390747	
-0.390076	
-0.391724	
-0.390991	
-0.391052	
-0.390747	
-0.390747	
-0.391418	
-0.391785	
-0.393677	
-0.393005	
-0.392944	
-0.391602	
-0.392944	
-0.394348	
-0.393127	
-0.392761	
-0.393188	
-0.393066	
-0.39386	
-0.394592	
-0.393311	
-0.39325	
-0.393982	
-0.392395	
-0.39502	
-0.395447	
-0.395142	
-0.395935	
-0.394958	
-0.396301	
-0.396606	
-0.397461	
-0.396545	
-0.397095	
-0.395691	
-0.395264	
-0.396118	
-0.395935	
-0.396301	
-0.395569	
-0.394409	
-0.395813	
-0.395935	
-0.395569	
-0.395691	
-0.395569	
-0.393921	
-0.396423	
-0.396179	
-0.395996	
-0.395813	
-0.39386	
-0.395569	
-0.396179	
-0.396667	
-0.395691	
-0.395508	
-0.395386	
-0.395325	
-0.396667	
-0.394287	
-0.39502	
-0.394714	
-0.394958	
-0.394958	
-0.395203	
-0.395569	
-0.395142	
-0.395569	
-0.393982	
-0.394958	
-0.394714	
-0.394287	
-0.393921	
-0.392639	
-0.394348	
-0.39386	
-0.394531	
-0.393921	
-0.394226	
-0.393616	
-0.392883	
-0.394836	
-0.393433	
-0.394531	
-0.393921	
-0.394775	
-0.395142	
-0.395691	
-0.396179	
-0.395874	
-0.397095	
-0.395752	
-0.397522	
-0.397522	
-0.396973	
-0.397522	
-0.396057	
-0.397461	
-0.396973	
-0.398193	
-0.397278	
-0.397888	
-0.39679	
-0.396118	
-0.398193	
-0.395996	
-0.396912	
-0.396729	
-0.39679	
-0.396912	
-0.396545	
-0.396667	
-0.39624	
-0.396057	
-0.394958	
-0.395691	
-0.396118	
-0.394226	
-0.393494	
-0.392273	
-0.392578	
-0.392639	
-0.392029	
-0.39209	
-0.39209	
-0.391602	
-0.391724	
-0.3927	
-0.391541	
-0.391968	
-0.392029	
-0.392456	
-0.392639	
-0.39325	
-0.393188	
-0.392578	
-0.392761	
-0.3927	
-0.393799	
-0.394531	
-0.393005	
-0.393372	
-0.392822	
-0.393982	
-0.394409	
-0.394836	
-0.394775	
-0.39447	
-0.394836	
-0.393982	
-0.394958	
-0.394897	
-0.395142	
-0.394531	
-0.392883	
-0.394958	
-0.396301	
-0.396545	
-0.397156	
-0.396545	
-0.396301	
-0.397888	
-0.399597	
-0.396973	
-0.398132	
-0.39801	
-0.398987	
-0.399414	
-0.399719	
-0.400269	
-0.399658	
-0.399231	
-0.399719	
-0.400452	
-0.400513	
-0.400146	
-0.400085	
-0.398193	
-0.400208	
-0.400574	
-0.395447	
-0.394409	
-0.395325	
-0.394958	
-0.393188	
-0.395142	
-0.399048	
-0.398865	
-0.398254	
-0.398682	
-0.398376	
-0.398132	
-0.39856	
-0.397339	
-0.397522	
-0.397156	
-0.3974	
-0.397644	
-0.397766	
-0.3974	
-0.394836	
-0.396667	
-0.396545	
-0.39624	
-0.396362	
-0.396973	
-0.396545	
-0.395264	
-0.396606	
-0.39502	
-0.395996	
-0.395325	
-0.395203	
-0.395874	
-0.395996	
-0.396179	
-0.395935	
-0.396423	
-0.395203	
-0.396179	
-0.396484	
-0.395996	
-0.395935	
-0.395264	
-0.396118	
-0.396545	
-0.396301	
-0.395996	
-0.397461	
-0.398254	
-0.39978	
-0.403076	
-0.40387	
-0.407898	
-0.41156	
-0.414856	
-0.420044	
-0.4245	
-0.430176	
-0.434021	
-0.438538	
-0.443054	
-0.448975	
-0.451233	
-0.458313	
-0.463318	
-0.470154	
-0.47998	
-0.49054	
-0.501465	
-0.513855	
-0.52533	
-0.535156	
-0.54364	
-0.549011	
-0.556824	
-0.561951	
-0.56665	
-0.571533	
-0.574463	
-0.575439	
-0.576355	
-0.575439	
-0.574036	
-0.573059	
-0.569885	
-0.567993	
-0.565308	
-0.562134	
-0.560425	
-0.559937	
-0.558472	
-0.556335	
-0.554321	
-0.552551	
-0.551453	
-0.550293	
-0.546509	
-0.545959	
-0.543213	
-0.543579	
-0.542664	
-0.541504	
-0.539429	
-0.538025	
-0.536926	
-0.535034	
-0.534241	
-0.530701	
-0.528931	
-0.526733	
-0.523926	
-0.520874	
-0.517334	
-0.512817	
-0.508362	
-0.502075	
-0.496765	
-0.493774	
-0.489807	
-0.484375	
-0.48114	
-0.477844	
-0.475098	
-0.4729	
-0.470154	
-0.467285	
-0.464966	
-0.463684	
-0.461609	
-0.45929	
-0.455505	
-0.452942	
-0.449036	
-0.447083	
-0.445435	
-0.443359	
-0.439697	
-0.437927	
-0.436707	
-0.434814	
-0.434021	
-0.432495	
-0.429443	
-0.427551	
-0.425476	
-0.423462	
-0.420898	
-0.417297	
-0.413452	
-0.40918	
-0.405457	
-0.400818	
-0.395935	
-0.390137	
-0.385193	
-0.379089	
-0.372864	
-0.36731	
-0.360535	
-0.351685	
-0.342957	
-0.334167	
-0.325317	
-0.317017	
-0.306885	
-0.295959	
-0.286743	
-0.278259	
-0.269653	
-0.263428	
-0.257446	
-0.25238	
-0.247742	
-0.245605	
-0.24408	
-0.242737	
-0.24115	
-0.241638	
-0.242676	
-0.244385	
-0.247009	
-0.249634	
-0.251831	
-0.25415	
-0.256958	
-0.262695	
-0.266541	
-0.269592	
-0.273682	
-0.279419	
-0.284485	
-0.289734	
-0.2948	
-0.299561	
-0.304626	
-0.309204	
-0.313965	
-0.317627	
-0.320618	
-0.323364	
-0.327087	
-0.329529	
-0.332336	
-0.333801	
-0.335205	
-0.337463	
-0.339417	
-0.340454	
-0.342041	
-0.34314	
-0.344238	
-0.344971	
-0.348022	
-0.348511	
-0.348938	
-0.349792	
-0.351929	
-0.352539	
-0.35321	
-0.354492	
-0.355835	
-0.357422	
-0.358459	
-0.361389	
-0.362854	
-0.363708	
-0.363831	
-0.365906	
-0.367737	
-0.367981	
-0.368469	
-0.368896	
-0.369934	
-0.370667	
-0.372437	
-0.372498	
-0.373047	
-0.372864	
-0.374023	
-0.375	
-0.375244	
-0.374634	
-0.373535	
-0.374756	
-0.374573	
-0.374695	
-0.373901	
-0.374268	
-0.374023	
-0.37439	
-0.374817	
-0.374512	
-0.373474	
-0.372986	
-0.373535	
-0.37439	
-0.374817	
-0.37384	
-0.373596	
-0.373718	
-0.374329	
-0.374084	
-0.373962	
-0.373962	
-0.373596	
-0.374207	
-0.374207	
-0.376038	
-0.374939	
-0.375	
-0.375732	
-0.377075	
-0.377686	
-0.377441	
-0.37738	
-0.377441	
-0.37738	
-0.377258	
-0.378784	
-0.378235	
-0.378662	
-0.378845	
-0.379089	
-0.379517	
-0.379333	
-0.379333	
-0.378906	
-0.379211	
-0.379211	
-0.381165	
-0.379883	
-0.379944	
-0.378967	
-0.379272	
-0.380798	
-0.379822	
-0.380188	
-0.379944	
-0.380798	
-0.379456	
-0.382141	
-0.381042	
-0.381042	
-0.379883	
-0.381653	
-0.381714	
-0.381653	
-0.381104	
-0.380493	
-0.380432	
-0.380249	
-0.380798	
-0.379517	
-0.379578	
-0.37854	
-0.380493	
-0.379395	
-0.379028	
-0.378174	
-0.378845	
-0.378601	
-0.379028	
-0.37854	
-0.378601	
-0.378479	
-0.378845	
-0.380493	
-0.379822	
-0.381165	
-0.380432	
-0.381287	
-0.381287	
-0.381958	
-0.381592	
-0.382385	
-0.382751	
-0.384033	
-0.385559	
-0.385071	
-0.38623	
-0.385559	
-0.385498	
-0.385132	
-0.387329	
-0.38678	
-0.386841	
-0.386292	
-0.38623	
-0.388916	
-0.387878	
-0.387268	
-0.385803	
-0.387695	
-0.387024	
-0.389465	
-0.388428	
-0.388428	
-0.387939	
-0.388611	
-0.39032	
-0.389526	
-0.389709	
-0.388672	
-0.389404	
-0.389526	
-0.391296	
-0.389893	
-0.39032	
-0.390991	
-0.390503	
-0.391174	
-0.390686	
-0.391174	
-0.389832	
-0.389709	
-0.390076	
-0.390625	
-0.390076	
-0.390686	
-0.389709	
-0.38916	
-0.391296	
-0.390137	
-0.390564	
-0.389893	
-0.388977	
-0.389709	
-0.389893	
-0.39032	
-0.389771	
-0.389526	
-0.388367	
-0.39093	
-0.39032	
-0.390686	
-0.389771	
-0.388977	
-0.389465	
-0.390564	
-0.391052	
-0.389954	
-0.390076	
-0.389709	
-0.391785	
-0.391174	
-0.391785	
-0.390747	
-0.390564	
-0.391296	
-0.392395	
-0.393127	
-0.391602	
-0.391968	
-0.391785	
-0.393921	
-0.393677	
-0.393677	
-0.39325	
-0.393127	
-0.393127	
-0.394043	
-0.395508	
-0.394348	
-0.394897	
-0.394043	
-0.396606	
-0.396362	
-0.396179	
-0.395996	
-0.396118	
-0.395935	
-0.39679	
-0.39679	
-0.397278	
-0.397217	
-0.396057	
-0.397217	
-0.397888	
-0.397644	
-0.395935	
-0.396057	
-0.39679	
-0.397644	
-0.397888	
-0.397095	
-0.39679	
-0.395996	
-0.396912	
-0.397034	
-0.396423	
-0.394653	
-0.394104	
-0.394714	
-0.39502	
-0.394836	
-0.393616	
-0.392944	
-0.392822	
-0.393127	
-0.393311	
-0.391663	
-0.390991	
-0.390198	
-0.390747	
-0.391724	
-0.392517	
-0.390686	
-0.390381	
-0.391052	
-0.391479	
-0.391357	
-0.391174	
-0.389404	
-0.389832	
-0.39093	
-0.391418	
-0.391174	
-0.390076	
-0.390442	
-0.391174	
-0.391296	
-0.390991	
-0.391357	
-0.390747	
-0.390198	
-0.39093	
-0.39209	
-0.392578	
-0.392761	
-0.391968	
-0.392029	
-0.392578	
-0.392883	
-0.392944	
-0.3927	
-0.392212	
-0.392883	
-0.39502	
-0.394592	
-0.394226	
-0.394104	
-0.394165	
-0.394226	
-0.395813	
-0.395508	
-0.394043	
-0.39386	
-0.394409	
-0.395813	
-0.396057	
-0.396851	
-0.396667	
-0.397888	
-0.397278	
-0.398804	
-0.398376	
-0.396729	
-0.396973	
-0.397705	
-0.398376	
-0.397522	
-0.39801	
-0.397827	
-0.3974	
-0.397827	
-0.398254	
-0.397339	
-0.397217	
-0.396912	
-0.397583	
-0.39801	
-0.397949	
-0.397644	
-0.397766	
-0.396179	
-0.397949	
-0.39801	
-0.397949	
-0.397583	
-0.39801	
-0.397583	
-0.397217	
-0.3974	
-0.397339	
-0.397583	
-0.396545	
-0.396545	
-0.396118	
-0.397949	
-0.397095	
-0.395813	
-0.396729	
-0.396545	
-0.397095	
-0.397217	
-0.39679	
-0.394958	
-0.39624	
-0.395691	
-0.396423	
-0.396057	
-0.394592	
-0.39563	
-0.395142	
-0.396545	
-0.395935	
-0.39624	
-0.395203	
-0.396912	
-0.397095	
-0.396667	
-0.396912	
-0.395996	
-0.397461	
-0.396912	
-0.398499	
-0.398682	
-0.399597	
-0.398315	
-0.40033	
-0.40033	
-0.400024	
-0.40033	
-0.399475	
-0.399475	
-0.399597	
-0.400146	
-0.399963	
-0.401367	
-0.39917	
-0.398926	
-0.400024	
-0.400146	
-0.399902	
-0.39856	
-0.397644	
-0.398499	
-0.399597	
-0.39856	
-0.398376	
-0.397644	
-0.397705	
-0.397522	
-0.396973	
-0.396606	
-0.395691	
-0.394409	
-0.395142	
-0.394653	
-0.394775	
-0.394653	
-0.394958	
-0.394531	
-0.394958	
-0.394226	
-0.394836	
-0.395813	
-0.394104	
-0.395325	
-0.395142	
-0.394897	
-0.395142	
-0.39679	
-0.395447	
-0.395569	
-0.397522	
-0.396118	
-0.397217	
-0.395752	
-0.396057	
-0.396973	
-0.397339	
-0.396606	
-0.397339	
-0.39624	
-0.397766	
-0.397705	
-0.39801	
-0.397644	
-0.397644	
-0.397644	
-0.398438	
-0.398804	
-0.399109	
-0.399353	
-0.399902	
-0.400024	
-0.400696	
-0.400269	
-0.401245	
-0.401184	
-0.399353	
-0.40155	
-0.402283	
-0.402649	
-0.402588	
-0.403442	
-0.403015	
-0.403015	
-0.403259	
-0.403015	
-0.404541	
-0.402771	
-0.402283	
-0.402893	
-0.403076	
-0.402588	
-0.403198	
-0.401794	
-0.402039	
-0.402344	
-0.401855	
-0.401489	
-0.401062	
-0.400452	
-0.400818	
-0.401245	
-0.40094	
-0.400635	
-0.399414	
-0.400574	
-0.401184	
-0.399597	
-0.400696	
-0.40094	
-0.399963	
-0.399902	
-0.400085	
-0.400024	
-0.399353	
-0.399963	
-0.399048	
-0.39917	
-0.399353	
-0.399414	
-0.399963	
-0.398499	
-0.398315	
-0.398987	
-0.398621	
-0.398865	
-0.399902	
-0.398376	
-0.398865	
-0.399841	
-0.400024	
-0.399048	
-0.399414	
-0.398804	
-0.399231	
-0.398987	
-0.399353	
-0.399963	
-0.398438	
-0.399231	
-0.399353	
-0.399475	
-0.399719	
-0.400391	
-0.399597	
-0.399231	
-0.400452	
-0.400452	
-0.401428	
-0.399902	
-0.400085	
-0.400696	
-0.40094	
-0.401855	
-0.40155	
-0.399658	
-0.40033	
-0.401672	
-0.401062	
-0.401001	
-0.401062	
-0.40094	
-0.40094	
-0.401611	
-0.401062	
-0.400696	
-0.40094	
-0.400513	
-0.400635	
-0.399475	
-0.400391	
-0.40033	
-0.399902	
-0.399902	
-0.399292	
-0.399597	
-0.399963	
-0.400391	
-0.398682	
-0.39801	
-0.398621	
-0.397949	
-0.399109	
-0.397888	
-0.397095	
-0.396973	
-0.398132	
-0.397888	
-0.396973	
-0.395935	
-0.396851	
-0.3974	
-0.395691	
-0.396667	
-0.395935	
-0.396851	
-0.396667	
-0.397583	
-0.396851	
-0.396729	
-0.397278	
-0.39679	
-0.397644	
-0.397278	
-0.397583	
-0.397705	
-0.398193	
-0.398254	
-0.397217	
-0.398926	
-0.399841	
-0.400696	
-0.399414	
-0.400513	
-0.400879	
-0.401855	
-0.402649	
-0.4021	
-0.402405	
-0.402405	
-0.403809	
-0.404236	
-0.403992	
-0.403442	
-0.404419	
-0.404358	
-0.403625	
-0.404541	
-0.404053	
-0.404114	
-0.404358	
-0.404541	
-0.404358	
-0.405334	
-0.405884	
-0.403687	
-0.40448	
-0.405029	
-0.404968	
-0.404114	
-0.404907	
-0.404297	
-0.403503	
-0.405762	
-0.405945	
-0.404907	
-0.404236	
-0.404846	
-0.404114	
-0.404114	
-0.40332	
-0.40332	
-0.403564	
-0.402527	
-0.402466	
-0.402649	
-0.402527	
-0.402222	
-0.401428	
-0.40155	
-0.401245	
-0.4021	
-0.40155	
-0.401794	
-0.401184	
-0.401367	
-0.402039	
-0.401062	
-0.401001	
-0.399902	
-0.398804	
-0.399475	
-0.399902	
-0.399231	
-0.398865	
-0.399231	
-0.398132	
-0.399719	
-0.400208	
-0.400452	
-0.400024	
-0.398193	
-0.399475	
-0.400024	
-0.399109	
-0.399719	
-0.399475	
-0.399475	
-0.399597	
-0.400208	
-0.399475	
-0.399963	
-0.399963	
-0.39801	
-0.399414	
-0.399414	
-0.399048	
-0.399536	
-0.399292	
-0.399414	
-0.399902	
-0.401184	
-0.400024	
-0.400146	
-0.399292	
-0.399231	
-0.40033	
-0.399597	
-0.400208	
-0.399597	
-0.399658	
-0.400452	
-0.401733	
-0.401367	
-0.400696	
-0.400574	
-0.400391	
-0.401062	
-0.400452	
-0.400879	
-0.401184	
-0.400696	
-0.401245	
-0.401367	
-0.401978	
-0.401733	
-0.401855	
-0.40033	
-0.401306	
-0.401306	
-0.400696	
-0.400574	
-0.400269	
-0.399963	
-0.399719	
-0.400391	
-0.399109	
-0.397888	
-0.396729	
-0.396851	
-0.398743	
-0.397156	
-0.397705	
-0.397522	
-0.397461	
-0.398132	
-0.398376	
-0.398499	
-0.398865	
-0.398438	
-0.396851	
-0.398743	
-0.398743	
-0.39856	
-0.398438	
-0.398438	
-0.399536	
-0.399109	
-0.400452	
-0.399719	
-0.400574	
-0.399719	
-0.401611	
-0.401672	
-0.401794	
-0.402466	
-0.401306	
-0.402771	
-0.403442	
-0.404114	
-0.403198	
-0.403931	
-0.403198	
-0.40155	
-0.403625	
-0.401917	
-0.402832	
-0.402161	
-0.402161	
-0.402222	
-0.402527	
-0.403992	
-0.402283	
-0.402771	
-0.399841	
-0.401978	
-0.401306	
-0.401123	
-0.400696	
-0.400818	
-0.401001	
-0.401367	
-0.403015	
-0.400635	
-0.40094	
-0.399414	
-0.400024	
-0.399719	
-0.399658	
-0.399292	
-0.398376	
-0.399292	
-0.398804	
-0.398499	
-0.397522	
-0.397583	
-0.3974	
-0.394958	
-0.3974	
-0.394958	
-0.39624	
-0.395569	
-0.395386	
-0.395569	
-0.395569	
-0.396973	
-0.395142	
-0.396484	
-0.393982	
-0.39563	
-0.395142	
-0.39447	
-0.394958	
-0.39502	
-0.394897	
-0.395813	
-0.39801	
-0.396057	
-0.396606	
-0.395386	
-0.396484	
-0.397095	
-0.396973	
-0.397034	
-0.396057	
-0.397034	
-0.3974	
-0.397766	
-0.397949	
-0.396973	
-0.397644	
-0.394531	
-0.398376	
-0.395813	
-0.397339	
-0.397949	
-0.397888	
-0.397522	
-0.398438	
-0.401123	
-0.39856	
-0.399109	
-0.397644	
-0.398865	
-0.39801	
-0.399048	
-0.398804	
-0.398682	
-0.398376	
-0.398987	
-0.400391	
-0.399536	
-0.399719	
-0.398926	
-0.398621	
-0.39978	
-0.398132	
-0.398926	
-0.398499	
-0.398743	
-0.398499	
-0.39856	
-0.399597	
-0.398926	
-0.398987	
-0.397705	
-0.399353	
-0.397949	
-0.397583	
-0.397766	
-0.397827	
-0.397644	
-0.397583	
-0.398926	
-0.397827	
-0.397827	
-0.395752	
-0.396667	
-0.397278	
-0.396729	
-0.39624	
-0.39624	
-0.397156	
-0.39679	
-0.398193	
-0.398438	
-0.397034	
-0.396729	
-0.39563	
-0.397949	
-0.39624	
-0.397034	
-0.396667	
-0.3974	
-0.396973	
-0.398376	
-0.399292	
-0.398865	
-0.399292	
-0.397156	
-0.398621	
-0.39801	
-0.398682	
-0.398682	
-0.398132	
-0.399841	
-0.400208	
-0.400696	
-0.400696	
-0.401428	
-0.399536	
-0.400146	
-0.401978	
-0.400452	
-0.400879	
-0.401245	
-0.401611	
-0.401306	
-0.401855	
-0.401917	
-0.401367	
-0.400818	
-0.399963	
-0.400513	
-0.399719	
-0.400574	
-0.400146	
-0.399841	
-0.400085	
-0.400452	
-0.400391	
-0.400574	
-0.400146	
-0.397278	
-0.397461	
-0.398193	
-0.397278	
-0.39679	
-0.395691	
-0.395569	
-0.395386	
-0.396484	
-0.395813	
-0.39502	
-0.394165	
-0.392944	
-0.39447	
-0.393005	
-0.393433	
-0.393372	
-0.393799	
-0.393555	
-0.393982	
-0.39386	
-0.393799	
-0.393799	
-0.392761	
-0.392334	
-0.392822	
-0.392944	
-0.392883	
-0.391602	
-0.392883	
-0.393555	
-0.394043	
-0.394592	
-0.393616	
-0.392334	
-0.393677	
-0.394043	
-0.393555	
-0.393433	
-0.393372	
-0.394165	
-0.395142	
-0.395813	
-0.395142	
-0.395386	
-0.394653	
-0.394409	
-0.395325	
-0.394043	
-0.395142	
-0.395386	
-0.395203	
-0.395996	
-0.396362	
-0.396606	
-0.396545	
-0.397034	
-0.395447	
-0.396912	
-0.397583	
-0.397583	
-0.398315	
-0.397949	
-0.398621	
-0.399109	
-0.400085	
-0.398865	
-0.399292	
-0.398193	
-0.397949	
-0.397705	
-0.397278	
-0.397461	
-0.397888	
-0.397644	
-0.398254	
-0.398987	
-0.398376	
-0.397827	
-0.398499	
-0.396179	
-0.397095	
-0.397278	
-0.397644	
-0.398254	
-0.397217	
-0.398376	
-0.398132	
-0.399841	
-0.398438	
-0.398315	
-0.396301	
-0.397644	
-0.398132	
-0.397644	
-0.396973	
-0.396912	
-0.396606	
-0.397949	
-0.397766	
-0.3974	
-0.397034	
-0.396545	
-0.396667	
-0.395874	
-0.396362	
-0.396484	
-0.396362	
-0.39502	
-0.396057	
-0.39679	
-0.396545	
-0.397278	
-0.396912	
-0.394104	
-0.395691	
-0.395874	
-0.396973	
-0.396667	
-0.39563	
-0.397156	
-0.397705	
-0.399597	
-0.398254	
-0.398376	
-0.398071	
-0.398743	
-0.400208	
-0.399719	
-0.399353	
-0.399292	
-0.399353	
-0.39978	
-0.400391	
-0.399658	
-0.400085	
-0.399536	
-0.398438	
-0.399597	
-0.397888	
-0.399292	
-0.399353	
-0.397888	
-0.398865	
-0.398865	
-0.399719	
-0.398987	
-0.39917	
-0.397095	
-0.397522	
-0.397278	
-0.396362	
-0.395935	
-0.395508	
-0.395081	
-0.394836	
-0.395752	
-0.39447	
-0.394958	
-0.393738	
-0.393433	
-0.393494	
-0.393433	
-0.393494	
-0.393799	
-0.392883	
-0.394653	
-0.395081	
-0.395813	
-0.395264	
-0.395569	
-0.393738	
-0.395081	
-0.395203	
-0.395325	
-0.395203	
-0.395752	
-0.396057	
-0.39624	
-0.397583	
-0.396729	
-0.397461	
-0.395569	
-0.39624	
-0.396484	
-0.396667	
-0.396667	
-0.397095	
-0.396912	
-0.397522	
-0.398193	
-0.398743	
-0.398987	
-0.398193	
-0.397644	
-0.399597	
-0.399353	
-0.399475	
-0.400452	
-0.400452	
-0.400879	
-0.401062	
-0.402527	
-0.401367	
-0.402832	
-0.401306	
-0.401428	
-0.401062	
-0.401917	
-0.402283	
-0.4021	
-0.402405	
-0.402405	
-0.402466	
-0.402832	
-0.402954	
-0.401245	
-0.400391	
-0.400879	
-0.400879	
-0.40033	
-0.400085	
-0.399536	
-0.399353	
-0.399414	
-0.400818	
-0.401001	
-0.39978	
-0.399109	
-0.398804	
-0.399353	
-0.399658	
-0.399414	
-0.398865	
-0.399292	
-0.399902	
-0.400269	
-0.399719	
-0.399597	
-0.397888	
-0.396912	
-0.3974	
-0.398315	
-0.397522	
-0.397827	
-0.397095	
-0.397949	
-0.397644	
-0.398926	
-0.399536	
-0.398376	
-0.397278	
-0.397644	
-0.398254	
-0.397644	
-0.398315	
-0.397705	
-0.39801	
-0.398132	
-0.399414	
-0.399353	
-0.398987	
-0.398132	
-0.3974	
-0.396729	
-0.397888	
-0.398254	
-0.398315	
-0.397522	
-0.398804	
-0.399597	
-0.400513	
-0.401245	
-0.398804	
-0.397461	
-0.398254	
-0.400208	
-0.399658	
-0.399292	
-0.399048	
-0.40033	
-0.399841	
-0.401184	
-0.40033	
-0.39917	
-0.39917	
-0.398254	
-0.399231	
-0.399414	
-0.39917	
-0.399414	
-0.398926	
-0.399475	
-0.399719	
-0.399719	
-0.400085	
-0.398743	
-0.398193	
-0.3974	
-0.398315	
-0.39856	
-0.398071	
-0.396729	
-0.397827	
-0.3974	
-0.397522	
-0.397461	
-0.396484	
-0.394897	
-0.395447	
-0.395813	
-0.395447	
-0.395264	
-0.394348	
-0.395142	
-0.395447	
-0.396301	
-0.396057	
-0.396057	
-0.394897	
-0.394592	
-0.394775	
-0.395813	
-0.395508	
-0.395569	
-0.395996	
-0.396423	
-0.396179	
-0.396545	
-0.397461	
-0.396545	
-0.395325	
-0.396729	
-0.396545	
-0.398132	
-0.398804	
-0.398132	
-0.400085	
-0.400085	
-0.401123	
-0.401489	
-0.401489	
-0.400696	
-0.400146	
-0.401428	
-0.402161	
-0.402283	
-0.402344	
-0.402527	
-0.402832	
-0.403625	
-0.404175	
-0.403931	
-0.402771	
-0.401733	
-0.402222	
-0.403015	
-0.403442	
-0.40271	
-0.401672	
-0.403442	
-0.404175	
-0.404785	
-0.403992	
-0.403381	
-0.403076	
-0.402161	
-0.402771	
-0.403198	
-0.40332	
-0.402405	
-0.402954	
-0.402771	
-0.402161	
-0.402405	
-0.4021	
-0.401428	
-0.400574	
-0.40033	
-0.400574	
-0.400818	
-0.401001	
-0.400574	
-0.400452	
-0.400818	
-0.40155	
-0.40094	
-0.399902	
-0.398926	
-0.398132	
-0.398621	
-0.399231	
-0.399658	
-0.398743	
-0.398254	
-0.39801	
-0.398987	
-0.398621	
-0.397827	
-0.397217	
-0.397034	
-0.397461	
-0.397156	
-0.398071	
-0.397644	
-0.398315	
-0.398499	
-0.398071	
-0.398804	
-0.398499	
-0.397888	
-0.3974	
-0.397339	
-0.396667	
-0.397705	
-0.398315	
-0.396606	
-0.397278	
-0.397278	
-0.398438	
-0.398621	
-0.398621	
-0.397766	
-0.396606	
-0.398438	
-0.397888	
-0.398254	
-0.397339	
-0.397827	
-0.39801	
-0.398682	
-0.399292	
-0.39856	
-0.397522	
-0.397766	
-0.397888	
-0.397705	
-0.398315	
-0.398743	
-0.398071	
-0.398987	
-0.399109	
-0.400757	
-0.400146	
-0.399719	
-0.398926	
-0.399414	
-0.399109	
-0.399414	
-0.399109	
-0.397888	
-0.399475	
-0.398499	
-0.399597	
-0.398621	
-0.398499	
-0.398438	
-0.395996	
-0.398193	
-0.396179	
-0.396912	
-0.395813	
-0.396301	
-0.396179	
-0.396057	
-0.398071	
-0.396851	
-0.396606	
-0.39563	
-0.395508	
-0.395813	
-0.395996	
-0.395935	
-0.396118	
-0.396484	
-0.396606	
-0.397034	
-0.396973	
-0.39679	
-0.396729	
-0.396118	
-0.397095	
-0.396912	
-0.398621	
-0.397766	
-0.399292	
-0.399597	
-0.400574	
-0.401794	
-0.401367	
-0.401245	
-0.40033	
-0.401001	
-0.401062	
-0.401672	
-0.401184	
-0.401001	
-0.40155	
-0.401917	
-0.402283	
-0.401794	
-0.401428	
-0.400635	
-0.399963	
-0.400391	
-0.399963	
-0.40033	
-0.398926	
-0.400085	
-0.400024	
-0.40033	
-0.401062	
-0.39978	
-0.399231	
-0.397644	
-0.399048	
-0.399109	
-0.398865	
-0.398682	
-0.397949	
-0.398315	
-0.397888	
-0.399841	
-0.39801	
-0.397644	
-0.397705	
-0.396729	
-0.396606	
-0.395386	
-0.395813	
-0.39502	
-0.395264	
-0.394836	
-0.395081	
-0.395447	
-0.394897	
-0.395081	
-0.392822	
-0.393921	
-0.393738	
-0.393738	
-0.393494	
-0.394165	
-0.39447	
-0.393738	
-0.395203	
-0.394836	
-0.393738	
-0.394104	
-0.394775	
-0.394958	
-0.394653	
-0.39502	
-0.393555	
-0.395508	
-0.395935	
-0.396362	
-0.396545	
-0.39624	
-0.396423	
-0.394714	
-0.395447	
-0.396179	
-0.396179	
-0.396545	
-0.396179	
-0.396851	
-0.396301	
-0.397644	
-0.396912	
-0.396973	
-0.396667	
-0.397461	
-0.397156	
-0.397034	
-0.397522	
-0.397217	
-0.397827	
-0.398376	
-0.398804	
-0.39801	
-0.398376	
-0.397888	
-0.397461	
-0.398071	
-0.397766	
-0.398132	
-0.398254	
-0.398071	
-0.398804	
-0.398804	
-0.399658	
-0.399048	
-0.397522	
-0.396423	
-0.397522	
-0.397522	
-0.397095	
-0.397522	
-0.397095	
-0.397644	
-0.3974	
-0.398193	
-0.396484	
-0.396606	
-0.397034	
-0.39624	
-0.396179	
-0.396362	
-0.396179	
-0.396057	
-0.396362	
-0.396057	
-0.395935	
-0.395935	
-0.397034	
-0.396362	
-0.39447	
-0.395447	
-0.395935	
-0.395142	
-0.39563	
-0.395508	
-0.396484	
-0.396118	
-0.397827	
-0.396851	
-0.396729	
-0.396973	
-0.397217	
-0.397217	
-0.397461	
-0.3974	
-0.396912	
-0.3974	
-0.397827	
-0.39801	
-0.397827	
-0.398865	
-0.398682	
-0.398682	
-0.398376	
-0.399048	
-0.398376	
-0.399841	
-0.399597	
-0.399292	
-0.399597	
-0.401062	
-0.399963	
-0.399719	
-0.399353	
-0.399231	
-0.399841	
-0.399841	
-0.399353	
-0.398743	
-0.399414	
-0.399658	
-0.400513	
-0.399109	
-0.399597	
-0.398804	
-0.399231	
-0.398438	
-0.398499	
-0.3974	
-0.396912	
-0.397095	
-0.395935	
-0.396057	
-0.396423	
-0.394958	
-0.394592	
-0.393494	
-0.394043	
-0.394226	
-0.393433	
-0.392273	
-0.392334	
-0.392822	
-0.3927	
-0.393799	
-0.392273	
	
