E:\DOCUMENTS AND SETTINGS\JPOTAS\MEUS DOCUMENTOS\UFRJ\RSCI-BM 12 WK SERIES\070718-RSCI-BM-03\RSCI-BM-03-LEMG\070718-RSCI-BM-03-LEMG-0001.ACQ
0.025000 msec/sample
1 channel
Analog input
Volts
CH1	
2000	
-0.39447	
-0.394592	
-0.395081	
-0.393188	
-0.393921	
-0.393982	
-0.394897	
-0.394897	
-0.393799	
-0.394104	
-0.393921	
-0.393066	
-0.395142	
-0.393555	
-0.393921	
-0.393494	
-0.392395	
-0.39386	
-0.392334	
-0.392944	
-0.394043	
-0.393188	
-0.393066	
-0.393127	
-0.392639	
-0.393494	
-0.393005	
-0.391785	
-0.391846	
-0.390503	
-0.391602	
-0.391602	
-0.391479	
-0.391479	
-0.391357	
-0.391235	
-0.392334	
-0.391663	
-0.391968	
-0.39209	
-0.391052	
-0.391174	
-0.392273	
-0.392395	
-0.393005	
-0.393311	
-0.394043	
-0.394714	
-0.394165	
-0.394104	
-0.395752	
-0.394653	
-0.394897	
-0.394592	
-0.393982	
-0.394775	
-0.394531	
-0.394409	
-0.395447	
-0.394287	
-0.394165	
-0.393494	
-0.392761	
-0.394165	
-0.39325	
-0.3927	
-0.392639	
-0.391663	
-0.391663	
-0.391785	
-0.39209	
-0.391663	
-0.391052	
-0.390686	
-0.390564	
-0.390564	
-0.390686	
-0.390076	
-0.388428	
-0.388855	
-0.388428	
-0.388184	
-0.38855	
-0.389221	
-0.388611	
-0.388611	
-0.388794	
-0.389099	
-0.389404	
-0.38916	
-0.388855	
-0.387329	
-0.387573	
-0.387695	
-0.388428	
-0.388062	
-0.388733	
-0.388855	
-0.388062	
-0.387939	
-0.388062	
-0.389038	
-0.389404	
-0.388428	
-0.387878	
-0.388245	
-0.387817	
-0.388367	
-0.389343	
-0.390015	
-0.389587	
-0.389282	
-0.389832	
-0.389954	
-0.390015	
-0.390808	
-0.388794	
-0.388428	
-0.388977	
-0.389404	
-0.388855	
-0.389648	
-0.389038	
-0.38916	
-0.389282	
-0.39032	
-0.390015	
-0.389954	
-0.388977	
-0.387329	
-0.388794	
-0.387512	
-0.389465	
-0.389832	
-0.389648	
-0.388855	
-0.388794	
-0.38916	
-0.388184	
-0.389526	
-0.39093	
-0.388794	
-0.389648	
-0.389282	
-0.387451	
-0.389465	
-0.390259	
-0.390076	
-0.390137	
-0.390381	
-0.389832	
-0.390808	
-0.390686	
-0.391663	
-0.39032	
-0.389587	
-0.390442	
-0.390259	
-0.391174	
-0.391357	
-0.391235	
-0.391113	
-0.390869	
-0.391113	
-0.391785	
-0.391296	
-0.390747	
-0.389343	
-0.390198	
-0.389526	
-0.389832	
-0.389954	
-0.390869	
-0.390259	
-0.390198	
-0.389832	
-0.390015	
-0.390259	
-0.390442	
-0.389282	
-0.387878	
-0.390503	
-0.389038	
-0.389648	
-0.390076	
-0.390991	
-0.389832	
-0.390381	
-0.390564	
-0.391602	
-0.390259	
-0.391724	
-0.390564	
-0.389648	
-0.390869	
-0.389526	
-0.392395	
-0.132263	
0.344055	
0.137817	
0.0808105	
0.0686035	
0.0671997	
-0.435669	
-0.625671	
-0.422852	
-0.361877	
-0.337952	
-0.327271	
-0.323181	
-0.31897	
-0.317688	
-0.316223	
-0.315918	
-0.314941	
-0.315125	
-0.317322	
-0.31427	
-0.314331	
-0.313843	
-0.311523	
-0.313965	
-0.313782	
-0.314514	
-0.314575	
-0.31488	
-0.315491	
-0.315735	
-0.318604	
-0.316223	
-0.317017	
-0.315857	
-0.313416	
-0.31604	
-0.315369	
-0.316528	
-0.316833	
-0.316589	
-0.317017	
-0.31781	
-0.32019	
-0.317078	
-0.317932	
-0.316467	
-0.313782	
-0.31665	
-0.316528	
-0.31665	
-0.317932	
-0.318359	
-0.319336	
-0.321106	
-0.325012	
-0.32428	
-0.327637	
-0.330078	
-0.330505	
-0.335876	
-0.33844	
-0.341614	
-0.343872	
-0.345093	
-0.346069	
-0.348206	
-0.352173	
-0.351257	
-0.35437	
-0.356689	
-0.357788	
-0.364136	
-0.367432	
-0.371094	
-0.37384	
-0.375061	
-0.375244	
-0.374939	
-0.375854	
-0.374084	
-0.373779	
-0.373108	
-0.370056	
-0.373718	
-0.372009	
-0.371765	
-0.369995	
-0.368774	
-0.367615	
-0.366638	
-0.36676	
-0.36615	
-0.363953	
-0.362732	
-0.36084	
-0.361755	
-0.361145	
-0.360718	
-0.362427	
-0.362305	
-0.362122	
-0.363281	
-0.365234	
-0.370117	
-0.368958	
-0.370605	
-0.370239	
-0.37146	
-0.374207	
-0.375061	
-0.376526	
-0.377136	
-0.377869	
-0.378052	
-0.378357	
-0.379822	
-0.377625	
-0.377869	
-0.375122	
-0.373779	
-0.374268	
-0.372742	
-0.371094	
-0.369385	
-0.367188	
-0.365173	
-0.363831	
-0.361511	
-0.358154	
-0.355469	
-0.351074	
-0.348328	
-0.345581	
-0.342651	
-0.338562	
-0.334778	
-0.330627	
-0.326599	
-0.32251	
-0.319458	
-0.313538	
-0.308655	
-0.303345	
-0.298767	
-0.296082	
-0.291138	
-0.287842	
-0.283875	
-0.280457	
-0.2771	
-0.273621	
-0.27179	
-0.267578	
-0.263977	
-0.26001	
-0.255127	
-0.252258	
-0.248901	
-0.246033	
-0.24115	
-0.236938	
-0.232544	
-0.227905	
-0.223877	
-0.219666	
-0.213684	
-0.208435	
-0.203125	
-0.198486	
-0.194275	
-0.189331	
-0.18457	
-0.180725	
-0.177551	
-0.175415	
-0.174744	
-0.173584	
-0.173706	
-0.172974	
-0.173218	
-0.176453	
-0.180664	
-0.184998	
-0.190491	
-0.195801	
-0.200623	
-0.207031	
-0.213379	
-0.217957	
-0.221863	
-0.226318	
-0.232788	
-0.23877	
-0.244446	
-0.249268	
-0.254578	
-0.260254	
-0.265686	
-0.271667	
-0.275391	
-0.279785	
-0.283508	
-0.287415	
-0.291809	
-0.296936	
-0.300842	
-0.30481	
-0.307861	
-0.31134	
-0.314392	
-0.318115	
-0.319397	
-0.320435	
-0.32135	
-0.323608	
-0.323853	
-0.326355	
-0.328125	
-0.328918	
-0.329773	
-0.330872	
-0.331726	
-0.332825	
-0.333557	
-0.332031	
-0.331177	
-0.332764	
-0.333862	
-0.333618	
-0.334351	
-0.335571	
-0.335693	
-0.335876	
-0.337036	
-0.337341	
-0.337463	
-0.334717	
-0.333252	
-0.333801	
-0.33197	
-0.331726	
-0.33075	
-0.32959	
-0.328125	
-0.326721	
-0.325134	
-0.324463	
-0.32251	
-0.319092	
-0.31604	
-0.315125	
-0.311462	
-0.310364	
-0.30896	
-0.30719	
-0.305237	
-0.302917	
-0.300293	
-0.300293	
-0.296631	
-0.29364	
-0.291565	
-0.288818	
-0.287659	
-0.287048	
-0.285645	
-0.283997	
-0.283264	
-0.282288	
-0.282288	
-0.283447	
-0.282166	
-0.282288	
-0.282227	
-0.281494	
-0.282776	
-0.2854	
-0.287109	
-0.288879	
-0.290955	
-0.292847	
-0.295471	
-0.298462	
-0.301086	
-0.301941	
-0.303711	
-0.30481	
-0.307556	
-0.309509	
-0.310791	
-0.3125	
-0.313538	
-0.314758	
-0.315857	
-0.31897	
-0.318909	
-0.319763	
-0.319031	
-0.319458	
-0.322021	
-0.323853	
-0.323975	
-0.325195	
-0.326111	
-0.327209	
-0.328491	
-0.329407	
-0.328796	
-0.329102	
-0.327759	
-0.329224	
-0.329346	
-0.331665	
-0.33197	
-0.332153	
-0.332825	
-0.333008	
-0.334839	
-0.334167	
-0.334229	
-0.33313	
-0.334412	
-0.333618	
-0.333313	
-0.334839	
-0.335388	
-0.335205	
-0.334961	
-0.335999	
-0.335693	
-0.335327	
-0.3349	
-0.332581	
-0.334473	
-0.334351	
-0.333679	
-0.335205	
-0.334961	
-0.334961	
-0.335022	
-0.337463	
-0.33606	
-0.336182	
-0.33606	
-0.335876	
-0.336304	
-0.336609	
-0.335938	
-0.336853	
-0.337646	
-0.337524	
-0.338013	
-0.339294	
-0.339661	
-0.339294	
-0.339294	
-0.340332	
-0.340393	
-0.341187	
-0.340942	
-0.342651	
-0.342834	
-0.344055	
-0.345276	
-0.344238	
-0.345032	
-0.345581	
-0.345581	
-0.345825	
-0.347229	
-0.348206	
-0.348145	
-0.348816	
-0.349304	
-0.349854	
-0.351013	
-0.351013	
-0.350281	
-0.350342	
-0.351501	
-0.351013	
-0.350098	
-0.351563	
-0.351807	
-0.352173	
-0.352844	
-0.353149	
-0.352844	
-0.353699	
-0.353394	
-0.351318	
-0.352112	
-0.35199	
-0.351624	
-0.351501	
-0.351624	
-0.35199	
-0.351563	
-0.353027	
-0.353088	
-0.352356	
-0.352661	
-0.35199	
-0.352417	
-0.352783	
-0.353394	
-0.352905	
-0.35437	
-0.354309	
-0.354126	
-0.355225	
-0.355225	
-0.354858	
-0.353638	
-0.355591	
-0.354675	
-0.35437	
-0.355103	
-0.35498	
-0.356018	
-0.35553	
-0.356445	
-0.355774	
-0.355408	
-0.35614	
-0.355469	
-0.35553	
-0.356323	
-0.356873	
-0.3573	
-0.357239	
-0.357056	
-0.357849	
-0.359436	
-0.358948	
-0.35791	
-0.357483	
-0.358582	
-0.359436	
-0.359192	
-0.359497	
-0.358582	
-0.359436	
-0.359924	
-0.359802	
-0.36084	
-0.360413	
-0.360657	
-0.359863	
-0.360535	
-0.360168	
-0.359924	
-0.359924	
-0.360046	
-0.360229	
-0.360168	
-0.361023	
-0.360901	
-0.360107	
-0.359619	
-0.357605	
-0.359436	
-0.359619	
-0.359131	
-0.35907	
-0.360107	
-0.359924	
-0.359985	
-0.361816	
-0.361084	
-0.359802	
-0.359863	
-0.359924	
-0.359985	
-0.359314	
-0.360168	
-0.35907	
-0.360168	
-0.360474	
-0.360657	
-0.362549	
-0.361023	
-0.361267	
-0.360352	
-0.360962	
-0.360535	
-0.359558	
-0.360718	
-0.360107	
-0.360413	
-0.360107	
-0.360657	
-0.361328	
-0.360413	
-0.36084	
-0.359863	
-0.360168	
-0.359192	
-0.359253	
-0.359375	
-0.359558	
-0.359436	
-0.359497	
-0.359619	
-0.360657	
-0.359314	
-0.360901	
-0.359131	
-0.359436	
-0.360291	
-0.361389	
-0.361145	
-0.362488	
-0.362488	
-0.362915	
-0.363831	
-0.364197	
-0.363831	
-0.364319	
-0.362732	
-0.363586	
-0.364136	
-0.364746	
-0.364502	
-0.365173	
-0.365173	
-0.364929	
-0.365662	
-0.36615	
-0.36499	
-0.364258	
-0.364319	
-0.364197	
-0.363586	
-0.363831	
-0.363098	
-0.36322	
-0.363647	
-0.363403	
-0.363647	
-0.363098	
-0.362793	
-0.362183	
-0.361328	
-0.362183	
-0.361145	
-0.361755	
-0.360962	
-0.362244	
-0.361877	
-0.362244	
-0.36261	
-0.361084	
-0.360962	
-0.360046	
-0.361267	
-0.360779	
-0.360962	
-0.361877	
-0.361816	
-0.361511	
-0.362183	
-0.362915	
-0.363342	
-0.361877	
-0.362183	
-0.361328	
-0.362976	
-0.361877	
-0.362	
-0.362793	
-0.362549	
-0.362549	
-0.36322	
-0.36377	
-0.363647	
-0.362976	
-0.36322	
-0.362793	
-0.364624	
-0.363831	
-0.364441	
-0.363892	
-0.364258	
-0.364258	
-0.364746	
-0.365112	
-0.365051	
-0.364685	
-0.363953	
-0.363525	
-0.364807	
-0.364502	
-0.36499	
-0.364319	
-0.364807	
-0.36499	
-0.365662	
-0.366272	
-0.365234	
-0.365662	
-0.363953	
-0.364929	
-0.365173	
-0.364502	
-0.365417	
-0.36438	
-0.365967	
-0.36615	
-0.366394	
-0.367249	
-0.366455	
-0.366333	
-0.364502	
-0.366455	
-0.367004	
-0.366028	
-0.367004	
-0.36615	
-0.366821	
-0.367249	
-0.368591	
-0.368713	
-0.368347	
-0.368469	
-0.367188	
-0.369019	
-0.368713	
-0.367126	
-0.368713	
-0.368408	
-0.368652	
-0.369507	
-0.369141	
-0.36853	
-0.368103	
-0.367859	
-0.367249	
-0.367981	
-0.368347	
-0.36676	
-0.36792	
-0.368042	
-0.367798	
-0.368042	
-0.369019	
-0.367798	
-0.367737	
-0.368042	
-0.366821	
-0.367615	
-0.367859	
-0.366882	
-0.368347	
-0.368774	
-0.368958	
-0.369385	
-0.369751	
-0.368896	
-0.36908	
-0.369507	
-0.368652	
-0.369019	
-0.370178	
-0.370972	
-0.371033	
-0.371094	
-0.371887	
-0.37207	
-0.372192	
-0.372314	
-0.372131	
-0.37146	
-0.371521	
-0.371521	
-0.372559	
-0.372009	
-0.371216	
-0.372559	
-0.372253	
-0.372803	
-0.373535	
-0.373474	
-0.37262	
-0.372559	
-0.372314	
-0.371948	
-0.372253	
-0.37207	
-0.371277	
-0.372314	
-0.371826	
-0.372375	
-0.372498	
-0.372437	
-0.371643	
-0.370056	
-0.371765	
-0.370544	
-0.370178	
-0.371033	
-0.370056	
-0.369812	
-0.369629	
-0.3703	
-0.370117	
-0.369446	
-0.36969	
-0.368774	
-0.369751	
-0.369263	
-0.368774	
-0.369141	
-0.368591	
-0.369324	
-0.369324	
-0.370544	
-0.370117	
-0.370483	
-0.3703	
-0.369934	
-0.370422	
-0.370117	
-0.371277	
-0.371094	
-0.370422	
-0.372314	
-0.372803	
-0.374146	
-0.373657	
-0.374207	
-0.374023	
-0.373352	
-0.373596	
-0.372559	
-0.373291	
-0.373596	
-0.372864	
-0.373779	
-0.373962	
-0.37439	
-0.375	
-0.374939	
-0.375	
-0.373779	
-0.374451	
-0.373779	
-0.374329	
-0.374512	
-0.37323	
-0.374878	
-0.375244	
-0.375854	
-0.375671	
-0.375671	
-0.376099	
-0.375549	
-0.376099	
-0.374939	
-0.375732	
-0.375427	
-0.374756	
-0.375305	
-0.37561	
-0.376709	
-0.376221	
-0.375854	
-0.37561	
-0.374939	
-0.375854	
-0.373596	
-0.374084	
-0.374695	
-0.372437	
-0.374207	
-0.374268	
-0.375244	
-0.374329	
-0.37439	
-0.374207	
-0.373962	
-0.374817	
-0.372986	
-0.375	
-0.375122	
-0.375061	
-0.375183	
-0.375061	
-0.37561	
-0.375732	
-0.375671	
-0.375549	
-0.374695	
-0.376892	
-0.37439	
-0.376343	
-0.376831	
-0.375854	
-0.376526	
-0.37677	
-0.377563	
-0.377075	
-0.377441	
-0.376404	
-0.376648	
-0.377869	
-0.375183	
-0.377502	
-0.377747	
-0.376648	
-0.37793	
-0.377808	
-0.378235	
-0.378113	
-0.378601	
-0.377441	
-0.377319	
-0.378784	
-0.376892	
-0.37854	
-0.378662	
-0.377869	
-0.3797	
-0.379578	
-0.380005	
-0.379883	
-0.380249	
-0.379517	
-0.378967	
-0.380615	
-0.379333	
-0.380981	
-0.380798	
-0.379944	
-0.381714	
-0.382019	
-0.381836	
-0.381958	
-0.382446	
-0.38147	
-0.380981	
-0.382202	
-0.380554	
-0.381714	
-0.380981	
-0.379883	
-0.381042	
-0.380249	
-0.380005	
-0.380188	
-0.380127	
-0.379028	
-0.378418	
-0.379333	
-0.378235	
-0.379517	
-0.378784	
-0.378113	
-0.379395	
-0.379639	
-0.380859	
-0.379761	
-0.380676	
-0.380676	
-0.379639	
-0.380676	
-0.380371	
-0.381348	
-0.382141	
-0.381104	
-0.38269	
-0.383057	
-0.384277	
-0.383789	
-0.384583	
-0.38385	
-0.383606	
-0.385254	
-0.383911	
-0.385315	
-0.385437	
-0.384888	
-0.385925	
-0.386353	
-0.387512	
-0.387817	
-0.388916	
-0.387512	
-0.386658	
-0.386902	
-0.387451	
-0.386719	
-0.387695	
-0.387207	
-0.38739	
-0.387451	
-0.388367	
-0.388367	
-0.388672	
-0.388428	
-0.387329	
-0.388489	
-0.388367	
-0.388306	
-0.388306	
-0.387756	
-0.387817	
-0.387695	
-0.388123	
-0.389221	
-0.388794	
-0.38739	
-0.386292	
-0.387573	
-0.387085	
-0.386902	
-0.387207	
-0.387146	
-0.387268	
-0.387756	
-0.38739	
-0.388	
-0.388245	
-0.387878	
-0.387207	
-0.387878	
-0.388611	
-0.387878	
-0.388	
-0.387573	
-0.387939	
-0.387756	
-0.388611	
-0.389404	
-0.389465	
-0.389099	
-0.388062	
-0.387756	
-0.388794	
-0.388245	
-0.388428	
-0.389038	
-0.387756	
-0.38916	
-0.389648	
-0.390747	
-0.390381	
-0.390076	
-0.388794	
-0.388489	
-0.38855	
-0.388611	
-0.388672	
-0.389404	
-0.388184	
-0.388	
-0.387756	
-0.389404	
-0.388245	
-0.388123	
-0.38739	
-0.387085	
-0.387878	
-0.387573	
-0.387207	
-0.387573	
-0.387329	
-0.388367	
-0.388855	
-0.390503	
-0.389343	
-0.389648	
-0.388245	
-0.388123	
-0.388916	
-0.389099	
-0.389343	
-0.389099	
-0.389587	
-0.389648	
-0.390381	
-0.391602	
-0.390198	
-0.390198	
-0.38916	
-0.38916	
-0.389465	
-0.389282	
-0.389099	
-0.389282	
-0.389282	
-0.389343	
-0.389343	
-0.390381	
-0.389343	
-0.389404	
-0.387634	
-0.386169	
-0.387573	
-0.387268	
-0.386963	
-0.387268	
-0.38739	
-0.387512	
-0.387329	
-0.388245	
-0.388184	
-0.387878	
-0.386658	
-0.385437	
-0.387146	
-0.387024	
-0.387085	
-0.387024	
-0.386902	
-0.387329	
-0.38739	
-0.388062	
-0.387939	
-0.387634	
-0.387329	
-0.38678	
-0.388672	
-0.388306	
-0.388733	
-0.388977	
-0.38916	
-0.388794	
-0.389404	
-0.390442	
-0.390808	
-0.389954	
-0.390137	
-0.388916	
-0.390259	
-0.391357	
-0.391907	
-0.391846	
-0.392151	
-0.392639	
-0.3927	
-0.3927	
-0.39386	
-0.3927	
-0.392212	
-0.391296	
-0.391602	
-0.392517	
-0.393799	
-0.393311	
-0.392944	
-0.392883	
-0.393066	
-0.393555	
-0.393921	
-0.392883	
-0.392029	
-0.390625	
-0.391235	
-0.391418	
-0.391052	
-0.391052	
-0.390076	
-0.389526	
-0.390747	
-0.390747	
-0.391602	
-0.390442	
-0.390015	
-0.389404	
-0.390137	
-0.39032	
-0.390869	
-0.390259	
-0.390259	
-0.389099	
-0.390198	
-0.390686	
-0.390686	
-0.390869	
-0.390259	
-0.389343	
-0.389587	
-0.390503	
-0.390137	
-0.390076	
-0.390015	
-0.389221	
-0.390076	
-0.39032	
-0.390442	
-0.390686	
-0.390686	
-0.389465	
-0.389587	
-0.390564	
-0.39093	
-0.390625	
-0.389954	
-0.389832	
-0.390625	
-0.390869	
-0.391907	
-0.392334	
-0.392212	
-0.391785	
-0.390747	
-0.391968	
-0.392883	
-0.391785	
-0.392456	
-0.392639	
-0.393127	
-0.392944	
-0.393738	
-0.394165	
-0.394104	
-0.392761	
-0.392578	
-0.391724	
-0.393677	
-0.393066	
-0.392578	
-0.391968	
-0.392212	
-0.3927	
-0.392578	
-0.392334	
-0.392456	
-0.391235	
-0.391174	
-0.390259	
-0.392334	
-0.391541	
-0.391541	
-0.391113	
-0.391602	
-0.391724	
-0.392151	
-0.392761	
-0.392151	
-0.390686	
-0.390625	
-0.390076	
-0.391541	
-0.391113	
-0.391113	
-0.391724	
-0.389832	
-0.390869	
-0.392273	
-0.391357	
-0.391968	
-0.390381	
-0.390259	
-0.38916	
-0.390442	
-0.389893	
-0.389954	
-0.389832	
-0.38916	
-0.389893	
-0.390625	
-0.389709	
-0.390686	
-0.388733	
-0.388855	
-0.387085	
-0.388306	
-0.389465	
-0.388245	
-0.388306	
-0.388123	
-0.388672	
-0.389221	
-0.388916	
-0.389954	
-0.389526	
-0.389648	
-0.388733	
-0.389526	
-0.391602	
-0.39093	
-0.391052	
-0.391235	
-0.391602	
-0.392395	
-0.391968	
-0.392639	
-0.391357	
-0.391846	
-0.391541	
-0.389648	
-0.392334	
-0.391907	
-0.391296	
-0.390808	
-0.390808	
-0.391479	
-0.390564	
-0.390686	
-0.390198	
-0.389221	
-0.388977	
-0.388855	
-0.389221	
-0.388428	
-0.388123	
-0.387939	
-0.386658	
-0.38855	
-0.387817	
-0.388123	
-0.388855	
-0.386475	
-0.386597	
-0.386169	
-0.386536	
-0.385864	
-0.385376	
-0.385559	
-0.384521	
-0.386536	
-0.386414	
-0.386963	
-0.386536	
-0.38501	
-0.385681	
-0.38562	
-0.383423	
-0.385437	
-0.385193	
-0.385315	
-0.384888	
-0.386108	
-0.385742	
-0.386902	
-0.386597	
-0.385681	
-0.385925	
-0.386047	
-0.384827	
-0.38623	
-0.385864	
-0.38623	
-0.386536	
-0.387207	
-0.387207	
-0.387878	
-0.387512	
-0.387329	
-0.386902	
-0.386719	
-0.386475	
-0.387878	
-0.387085	
-0.387085	
-0.386047	
-0.386536	
-0.387024	
-0.387268	
-0.387085	
-0.387207	
-0.387451	
-0.386169	
-0.386902	
-0.386353	
-0.386292	
-0.385986	
-0.386292	
-0.386597	
-0.386597	
-0.387146	
-0.387146	
-0.387512	
-0.387024	
-0.38562	
-0.387146	
-0.388	
-0.387329	
-0.386902	
-0.386963	
-0.387573	
-0.388428	
-0.387695	
-0.387695	
-0.38855	
-0.387878	
-0.387451	
-0.388184	
-0.389343	
-0.388	
-0.388611	
-0.388184	
-0.387756	
-0.389771	
-0.389343	
-0.388977	
-0.38855	
-0.38855	
-0.388489	
-0.387634	
-0.386963	
-0.387085	
-0.387756	
-0.387817	
-0.386841	
-0.389099	
-0.387939	
-0.388184	
-0.387695	
-0.387512	
-0.386902	
-0.387329	
-0.387207	
-0.387634	
-0.387329	
-0.387512	
-0.387512	
-0.388489	
-0.387939	
-0.388977	
-0.388489	
-0.388245	
-0.388794	
-0.388184	
-0.388733	
-0.389526	
-0.389038	
-0.389832	
-0.390076	
-0.390442	
-0.390259	
-0.391235	
-0.390747	
-0.390686	
-0.391296	
-0.389954	
-0.390564	
-0.390686	
-0.391235	
-0.391113	
-0.390808	
-0.391113	
-0.391541	
-0.391479	
-0.391235	
-0.391541	
-0.391663	
-0.391052	
-0.391418	
-0.391113	
-0.390015	
-0.391113	
-0.390808	
-0.389587	
-0.391541	
-0.390686	
-0.390503	
-0.390625	
-0.391235	
-0.388916	
-0.389771	
-0.389282	
-0.388184	
-0.388916	
-0.389099	
-0.388733	
-0.389099	
-0.387878	
-0.388367	
-0.38678	
-0.386719	
-0.387024	
-0.386902	
-0.386902	
-0.38678	
-0.387024	
-0.386841	
-0.387085	
-0.387024	
-0.386597	
-0.386902	
-0.386414	
-0.386108	
-0.386963	
-0.386536	
-0.387024	
-0.387451	
-0.387634	
-0.388428	
-0.388306	
-0.387207	
-0.389404	
-0.389771	
-0.388977	
-0.389587	
-0.391479	
-0.388611	
-0.389099	
-0.389099	
-0.389587	
-0.389343	
-0.389282	
-0.389038	
-0.389648	
-0.390015	
-0.389404	
-0.389465	
-0.39032	
-0.389038	
-0.389282	
-0.389221	
-0.388916	
-0.389038	
-0.389709	
-0.389526	
-0.390381	
-0.389465	
-0.390259	
-0.390625	
-0.391541	
-0.390747	
-0.39032	
-0.390015	
-0.390503	
-0.390259	
-0.390564	
-0.39032	
-0.390381	
-0.390625	
-0.390564	
-0.390442	
-0.389893	
-0.390869	
-0.389282	
-0.389221	
-0.388123	
-0.388062	
-0.388855	
-0.388733	
-0.388306	
-0.388733	
-0.388916	
-0.388062	
-0.388062	
-0.38855	
-0.389648	
-0.388855	
-0.388611	
-0.389282	
-0.388855	
-0.388916	
-0.388245	
-0.389404	
-0.389832	
-0.389893	
-0.389709	
-0.390747	
-0.390259	
-0.390015	
-0.390137	
-0.390442	
-0.390015	
-0.390076	
-0.390015	
-0.390442	
-0.390808	
-0.39032	
-0.39032	
-0.390564	
-0.390137	
-0.390564	
-0.39032	
-0.39093	
-0.390625	
-0.390869	
-0.390564	
-0.390747	
-0.390869	
-0.391296	
-0.390747	
-0.390808	
-0.390808	
-0.392212	
-0.391235	
-0.391052	
-0.391174	
-0.391418	
-0.391541	
-0.390991	
-0.392456	
-0.392639	
-0.391907	
-0.391846	
-0.392517	
-0.392578	
-0.392395	
-0.392822	
-0.393311	
-0.3927	
-0.393555	
-0.393372	
-0.393921	
-0.394104	
-0.393372	
-0.393066	
-0.392944	
-0.392578	
-0.393066	
-0.392517	
-0.39325	
-0.391724	
-0.391235	
-0.391235	
-0.390381	
-0.390808	
-0.391052	
-0.390259	
-0.390564	
-0.390503	
-0.390198	
-0.389893	
-0.390137	
-0.389282	
-0.389221	
-0.390442	
-0.389343	
-0.390991	
-0.391296	
-0.390869	
-0.39093	
-0.391235	
-0.391174	
-0.391418	
-0.391174	
-0.393066	
-0.391235	
-0.392944	
-0.393066	
-0.39386	
-0.394043	
-0.395203	
-0.394043	
-0.394043	
-0.394775	
-0.395325	
-0.395081	
-0.396362	
-0.395691	
-0.395813	
-0.396667	
-0.396545	
-0.397766	
-0.397644	
-0.396851	
-0.396912	
-0.396057	
-0.396973	
-0.396545	
-0.396912	
-0.396423	
-0.396851	
-0.396545	
-0.396729	
-0.397644	
-0.397278	
-0.397278	
-0.397705	
-0.396118	
-0.396606	
-0.396912	
-0.395752	
-0.397339	
-0.395081	
-0.396301	
-0.39624	
-0.396667	
-0.396484	
-0.396057	
-0.395569	
-0.395691	
-0.395569	
-0.396057	
-0.395752	
-0.39502	
-0.395142	
-0.395081	
-0.395386	
-0.394836	
-0.396667	
-0.397156	
-0.39624	
-0.396362	
-0.395142	
-0.395813	
-0.395508	
-0.395874	
-0.39563	
-0.394775	
-0.395874	
-0.39624	
-0.396179	
-0.396362	
-0.395813	
-0.396545	
-0.395325	
-0.395691	
-0.395996	
-0.395142	
-0.396667	
-0.395691	
-0.396057	
-0.396606	
-0.395569	
-0.396118	
-0.396362	
-0.395569	
-0.395386	
-0.395935	
-0.396423	
-0.394897	
-0.394653	
-0.393555	
-0.393555	
-0.394409	
-0.393982	
-0.395874	
-0.394897	
-0.393311	
-0.394226	
-0.393372	
-0.393616	
-0.394287	
-0.394226	
-0.395752	
-0.393982	
-0.394409	
-0.394348	
-0.394531	
-0.394653	
-0.395874	
-0.39502	
-0.394714	
-0.394897	
-0.396301	
-0.394653	
-0.395264	
-0.394592	
-0.395447	
-0.394836	
-0.394531	
-0.39563	
-0.39563	
-0.394653	
-0.394714	
-0.394348	
-0.394104	
-0.394531	
-0.394226	
-0.394348	
-0.391846	
-0.393433	
-0.3927	
-0.393066	
-0.3927	
-0.392395	
-0.392883	
-0.390869	
-0.391663	
-0.391907	
-0.390991	
-0.392639	
-0.391357	
-0.391602	
-0.391602	
-0.390442	
-0.391907	
-0.392517	
-0.391418	
-0.391418	
-0.391418	
-0.391663	
-0.391174	
-0.391235	
-0.391968	
-0.39032	
-0.392212	
-0.391846	
-0.393127	
-0.392822	
-0.393005	
-0.392761	
-0.392212	
-0.392883	
-0.393433	
-0.393127	
-0.394104	
-0.393127	
-0.393616	
-0.393738	
-0.393616	
-0.394714	
-0.395691	
-0.395691	
-0.394958	
-0.39563	
-0.396667	
-0.395142	
-0.395813	
-0.395447	
-0.39563	
-0.395508	
-0.395813	
-0.397095	
-0.396973	
-0.396179	
-0.396851	
-0.396301	
-0.395447	
-0.395447	
-0.395447	
-0.395996	
-0.393799	
-0.394287	
-0.393921	
-0.394836	
-0.393433	
-0.393799	
-0.393127	
-0.391541	
-0.392761	
-0.393311	
-0.391541	
-0.392761	
-0.393188	
-0.3927	
-0.392578	
-0.391541	
-0.393005	
-0.393005	
-0.392334	
-0.392212	
-0.392334	
-0.393127	
-0.392517	
-0.393005	
-0.39209	
-0.391663	
-0.392273	
-0.392151	
-0.393005	
-0.392578	
-0.392517	
-0.392029	
-0.391357	
-0.391724	
-0.391968	
-0.391968	
-0.392883	
-0.390991	
-0.391968	
-0.39209	
-0.3927	
-0.392395	
-0.392578	
-0.392456	
-0.391479	
-0.392639	
-0.392822	
-0.392517	
-0.393677	
-0.393616	
-0.392944	
-0.393127	
-0.393066	
-0.395142	
-0.394653	
-0.395142	
-0.395142	
-0.394043	
-0.394287	
-0.394104	
-0.394409	
-0.394287	
-0.392883	
-0.393921	
-0.394043	
-0.394592	
-0.393677	
-0.39386	
-0.393677	
-0.392029	
-0.392883	
-0.392212	
-0.39209	
-0.393005	
-0.391968	
-0.392395	
-0.392822	
-0.391296	
-0.392334	
	
