E:\DOCUMENTS AND SETTINGS\JPOTAS\MEUS DOCUMENTOS\UFRJ\RSCI-BM 12 WK SERIES\070731-RSCI-BM-12\RSCI-BM-12-LEMG\070731-RSCI-BM-12-LEMG-0018.ACQ
0.025000 msec/sample
1 channel
Analog input
Volts
CH1	
2000	
-0.4021	
-0.401001	
-0.401245	
-0.400452	
-0.399963	
-0.400146	
-0.399841	
-0.399963	
-0.399658	
-0.398926	
-0.397583	
-0.398193	
-0.397827	
-0.397949	
-0.397156	
-0.397217	
-0.396423	
-0.395691	
-0.396362	
-0.395935	
-0.396057	
-0.396973	
-0.395874	
-0.394836	
-0.395752	
-0.395935	
-0.396118	
-0.395508	
-0.39563	
-0.395203	
-0.39563	
-0.395752	
-0.395569	
-0.395142	
-0.395752	
-0.394531	
-0.393433	
-0.394226	
-0.394531	
-0.395386	
-0.39563	
-0.394653	
-0.395203	
-0.395081	
-0.395569	
-0.395874	
-0.395691	
-0.396362	
-0.39563	
-0.395813	
-0.395752	
-0.395691	
-0.397034	
-0.397583	
-0.397156	
-0.396301	
-0.397034	
-0.397522	
-0.397766	
-0.397461	
-0.39856	
-0.397522	
-0.397827	
-0.397278	
-0.397339	
-0.397339	
-0.397949	
-0.397339	
-0.397034	
-0.396912	
-0.397278	
-0.396729	
-0.396423	
-0.396912	
-0.395813	
-0.395325	
-0.395447	
-0.394287	
-0.39502	
-0.395203	
-0.394592	
-0.39386	
-0.394348	
-0.393188	
-0.394226	
-0.393677	
-0.394226	
-0.393921	
-0.393738	
-0.393677	
-0.393372	
-0.394287	
-0.394836	
-0.39447	
-0.394409	
-0.394592	
-0.393311	
-0.39502	
-0.394348	
-0.394592	
-0.394836	
-0.393921	
-0.394775	
-0.394043	
-0.394775	
-0.395203	
-0.394409	
-0.394226	
-0.394653	
-0.394348	
-0.395752	
-0.394958	
-0.394958	
-0.394714	
-0.394348	
-0.39502	
-0.394836	
-0.39502	
-0.395386	
-0.395325	
-0.395508	
-0.395935	
-0.395813	
-0.396912	
-0.396729	
-0.397888	
-0.397583	
-0.397034	
-0.398254	
-0.398743	
-0.398804	
-0.39978	
-0.399719	
-0.399475	
-0.399536	
-0.400208	
-0.401001	
-0.400391	
-0.400391	
-0.400818	
-0.399109	
-0.400085	
-0.400024	
-0.39978	
-0.400391	
-0.399841	
-0.399658	
-0.399109	
-0.399109	
-0.400208	
-0.399292	
-0.399109	
-0.399292	
-0.397766	
-0.398438	
-0.39801	
-0.398438	
-0.397827	
-0.39801	
-0.397644	
-0.396912	
-0.396667	
-0.397034	
-0.39563	
-0.395996	
-0.395142	
-0.393921	
-0.394592	
-0.394165	
-0.393921	
-0.39325	
-0.393188	
-0.392944	
-0.392822	
-0.392212	
-0.39325	
-0.392395	
-0.392395	
-0.392151	
-0.391968	
-0.392517	
-0.392273	
-0.393372	
-0.392151	
-0.393372	
-0.392395	
-0.392822	
-0.392944	
-0.393616	
-0.393433	
-0.392761	
-0.394165	
-0.393738	
-0.394226	
-0.394287	
-0.394958	
-0.394775	
-0.389954	
-0.38385	
-0.383301	
-0.383545	
-0.385498	
-0.384827	
-0.391357	
-0.396423	
-0.395203	
-0.396118	
-0.395996	
-0.396301	
-0.395996	
-0.396545	
-0.396606	
-0.395691	
-0.396545	
-0.396545	
-0.396057	
-0.396301	
-0.396912	
-0.394775	
-0.395508	
-0.396057	
-0.396301	
-0.395386	
-0.396301	
-0.395874	
-0.394775	
-0.395325	
-0.395691	
-0.395752	
-0.395691	
-0.396118	
-0.394958	
-0.39563	
-0.395935	
-0.395447	
-0.396484	
-0.397034	
-0.395935	
-0.39502	
-0.395813	
-0.39502	
-0.395874	
-0.395813	
-0.396606	
-0.39563	
-0.396179	
-0.396545	
-0.395752	
-0.396667	
-0.397705	
-0.397339	
-0.398926	
-0.399109	
-0.399841	
-0.402039	
-0.404419	
-0.406677	
-0.409607	
-0.412842	
-0.41687	
-0.420532	
-0.425232	
-0.431213	
-0.436096	
-0.443909	
-0.450134	
-0.458069	
-0.466309	
-0.475159	
-0.481812	
-0.490479	
-0.498352	
-0.505615	
-0.513184	
-0.52002	
-0.524597	
-0.52832	
-0.533081	
-0.536133	
-0.540466	
-0.542908	
-0.545837	
-0.545349	
-0.547729	
-0.547791	
-0.547668	
-0.546753	
-0.546448	
-0.542603	
-0.539978	
-0.538025	
-0.535217	
-0.535583	
-0.535828	
-0.536194	
-0.537537	
-0.53949	
-0.542236	
-0.544983	
-0.548218	
-0.549927	
-0.551086	
-0.554504	
-0.555481	
-0.556946	
-0.557312	
-0.557495	
-0.555725	
-0.555054	
-0.553284	
-0.550842	
-0.546509	
-0.542786	
-0.536804	
-0.53009	
-0.523865	
-0.517273	
-0.510254	
-0.50238	
-0.494934	
-0.487061	
-0.480225	
-0.4729	
-0.466309	
-0.458435	
-0.452576	
-0.445801	
-0.437805	
-0.432068	
-0.425476	
-0.418945	
-0.412598	
-0.40564	
-0.397339	
-0.390381	
-0.382996	
-0.375244	
-0.367065	
-0.359558	
-0.352722	
-0.342896	
-0.335876	
-0.328491	
-0.321777	
-0.314636	
-0.308105	
-0.302124	
-0.296448	
-0.29187	
-0.287903	
-0.283569	
-0.280151	
-0.27771	
-0.273743	
-0.272705	
-0.271057	
-0.270386	
-0.269958	
-0.271057	
-0.270569	
-0.273071	
-0.274841	
-0.276001	
-0.279053	
-0.283569	
-0.286133	
-0.29071	
-0.295654	
-0.299011	
-0.305481	
-0.310791	
-0.313599	
-0.319397	
-0.323486	
-0.327454	
-0.33075	
-0.334045	
-0.334961	
-0.336731	
-0.338684	
-0.338379	
-0.341675	
-0.342773	
-0.343811	
-0.344238	
-0.344971	
-0.345825	
-0.347961	
-0.349304	
-0.350281	
-0.351318	
-0.352966	
-0.353882	
-0.355469	
-0.356812	
-0.356934	
-0.358154	
-0.359436	
-0.361206	
-0.361694	
-0.362915	
-0.364746	
-0.363953	
-0.365173	
-0.36731	
-0.367981	
-0.36908	
-0.370667	
-0.369934	
-0.371521	
-0.372681	
-0.372375	
-0.373962	
-0.375	
-0.373779	
-0.375183	
-0.375977	
-0.374207	
-0.375916	
-0.377319	
-0.37616	
-0.376648	
-0.377319	
-0.376587	
-0.377563	
-0.377747	
-0.376892	
-0.377991	
-0.378052	
-0.378174	
-0.378845	
-0.379578	
-0.379089	
-0.379761	
-0.380066	
-0.379211	
-0.380188	
-0.380737	
-0.380615	
-0.380371	
-0.380859	
-0.380859	
-0.380127	
-0.380493	
-0.381714	
-0.38092	
-0.381592	
-0.381714	
-0.380859	
-0.381653	
-0.382446	
-0.382324	
-0.38147	
-0.38092	
-0.380676	
-0.380005	
-0.380676	
-0.379883	
-0.378601	
-0.380066	
-0.379089	
-0.378723	
-0.378784	
-0.377747	
-0.378601	
-0.377808	
-0.378052	
-0.377502	
-0.376892	
-0.377563	
-0.376526	
-0.377197	
-0.376587	
-0.376953	
-0.377319	
-0.377747	
-0.378296	
-0.377869	
-0.378052	
-0.377869	
-0.378723	
-0.378845	
-0.378967	
-0.379639	
-0.37915	
-0.379211	
-0.380066	
-0.379761	
-0.381165	
-0.380981	
-0.38147	
-0.38208	
-0.380554	
-0.382874	
-0.383057	
-0.383667	
-0.38324	
-0.383362	
-0.384155	
-0.385071	
-0.385681	
-0.385925	
-0.386902	
-0.386963	
-0.38678	
-0.387207	
-0.388245	
-0.387878	
-0.388245	
-0.387817	
-0.388489	
-0.387939	
-0.390625	
-0.389465	
-0.388977	
-0.38916	
-0.388855	
-0.389771	
-0.389648	
-0.388672	
-0.389221	
-0.388611	
-0.388123	
-0.388428	
-0.388794	
-0.388977	
-0.388	
-0.387573	
-0.387085	
-0.386597	
-0.387939	
-0.387451	
-0.385864	
-0.386719	
-0.386292	
-0.386841	
-0.385681	
-0.387634	
-0.38739	
-0.38678	
-0.386658	
-0.387207	
-0.38678	
-0.387695	
-0.386841	
-0.386719	
-0.386719	
-0.386963	
-0.387146	
-0.386963	
-0.388367	
-0.387573	
-0.387878	
-0.387329	
-0.387573	
-0.388306	
-0.388062	
-0.388184	
-0.387756	
-0.387451	
-0.389343	
-0.388733	
-0.38916	
-0.389648	
-0.389099	
-0.388977	
-0.388672	
-0.388367	
-0.38916	
-0.388916	
-0.389099	
-0.389038	
-0.389343	
-0.388916	
-0.388062	
-0.390137	
-0.390442	
-0.389709	
-0.389526	
-0.390198	
-0.38916	
-0.390503	
-0.390564	
-0.390198	
-0.389893	
-0.390198	
-0.390503	
-0.39032	
-0.391296	
-0.390564	
-0.390381	
-0.389526	
-0.388367	
-0.389038	
-0.388306	
-0.388367	
-0.388062	
-0.386841	
-0.387817	
-0.387512	
-0.387695	
-0.388611	
-0.387085	
-0.387207	
-0.388123	
-0.385864	
-0.387146	
-0.386841	
-0.386719	
-0.386475	
-0.386475	
-0.386475	
-0.387207	
-0.388306	
-0.388855	
-0.387939	
-0.388062	
-0.387024	
-0.388733	
-0.388428	
-0.388123	
-0.388306	
-0.387817	
-0.389221	
-0.388794	
-0.389465	
-0.390076	
-0.389282	
-0.389099	
-0.389771	
-0.388611	
-0.390137	
-0.389648	
-0.391174	
-0.389893	
-0.390137	
-0.390747	
-0.391296	
-0.39209	
-0.392212	
-0.3927	
-0.393005	
-0.391724	
-0.393494	
-0.393982	
-0.393372	
-0.394165	
-0.394409	
-0.39563	
-0.395386	
-0.3974	
-0.398926	
-0.397888	
-0.398743	
-0.399231	
-0.398254	
-0.399841	
-0.399475	
-0.400085	
-0.399414	
-0.398071	
-0.39856	
-0.398865	
-0.399048	
-0.398682	
-0.39801	
-0.398193	
-0.396667	
-0.396606	
-0.397888	
-0.397339	
-0.397583	
-0.396729	
-0.395691	
-0.395935	
-0.39624	
-0.397034	
-0.395935	
-0.394653	
-0.394775	
-0.393494	
-0.393799	
-0.394287	
-0.393982	
-0.393311	
-0.393188	
-0.392151	
-0.392395	
-0.393433	
-0.394348	
-0.393188	
-0.393616	
-0.392761	
-0.392395	
-0.392639	
-0.39325	
-0.39386	
-0.392517	
-0.392273	
-0.391052	
-0.392273	
-0.392334	
-0.392151	
-0.392395	
-0.392883	
-0.391724	
-0.391724	
-0.392212	
-0.39209	
-0.393494	
-0.392822	
-0.392883	
-0.3927	
-0.392883	
-0.393311	
-0.393188	
-0.393799	
-0.393921	
-0.393494	
-0.393677	
-0.394287	
-0.394714	
-0.394714	
-0.394714	
-0.394287	
-0.394531	
-0.394653	
-0.396118	
-0.396545	
-0.396118	
-0.39502	
-0.39386	
-0.393982	
-0.395081	
-0.39563	
-0.395081	
-0.394714	
-0.393433	
-0.394531	
-0.394348	
-0.394592	
-0.394653	
-0.393799	
-0.3927	
-0.392395	
-0.392517	
-0.393555	
-0.391968	
-0.391968	
-0.391541	
-0.390747	
-0.391174	
-0.391846	
-0.391846	
-0.392212	
-0.390747	
-0.391052	
-0.391479	
-0.391907	
-0.392761	
-0.391785	
-0.391663	
-0.391479	
-0.39093	
-0.392273	
-0.393188	
-0.392334	
-0.393066	
-0.391846	
-0.391052	
-0.391479	
-0.392944	
-0.3927	
-0.393066	
-0.392395	
-0.391235	
-0.392517	
-0.393005	
-0.393494	
-0.393311	
-0.392822	
-0.392456	
-0.392395	
-0.39093	
-0.393738	
-0.393066	
-0.393677	
-0.393188	
-0.392578	
-0.394287	
-0.395691	
-0.395569	
-0.396606	
-0.395203	
-0.395569	
-0.396057	
-0.395569	
-0.397705	
-0.3974	
-0.396912	
-0.397339	
-0.396729	
-0.398315	
-0.399231	
-0.398865	
-0.400513	
-0.398193	
-0.397644	
-0.397949	
-0.397034	
-0.398804	
-0.39801	
-0.397522	
-0.397278	
-0.396484	
-0.397888	
-0.398438	
-0.397705	
-0.398438	
-0.39679	
-0.396729	
-0.396057	
-0.395447	
-0.397522	
-0.395935	
-0.396179	
-0.39447	
-0.393799	
-0.394775	
-0.394897	
-0.394714	
-0.394348	
-0.393066	
-0.393188	
-0.392151	
-0.392395	
-0.392578	
-0.391602	
-0.39093	
-0.390564	
-0.390503	
-0.390991	
-0.390442	
-0.391235	
-0.390991	
-0.38916	
-0.39032	
-0.390015	
-0.391174	
-0.391113	
-0.390991	
-0.39093	
-0.390686	
-0.391235	
-0.392151	
-0.391174	
-0.3927	
-0.391724	
-0.391602	
-0.391785	
-0.39093	
-0.393127	
-0.393372	
-0.393005	
-0.393188	
-0.393311	
-0.393921	
-0.394104	
-0.394043	
-0.395752	
-0.393738	
-0.393921	
-0.393494	
-0.391846	
-0.394653	
-0.394165	
-0.394104	
-0.393982	
-0.39325	
-0.394714	
-0.393982	
-0.39386	
-0.395325	
-0.393188	
-0.394104	
-0.393677	
-0.394287	
-0.395325	
-0.393982	
-0.39386	
-0.393616	
-0.3927	
-0.394897	
-0.393555	
-0.394226	
-0.393799	
-0.3927	
-0.394287	
-0.39386	
-0.394226	
-0.394897	
-0.394104	
-0.393738	
-0.393433	
-0.394043	
-0.394714	
-0.393982	
-0.393921	
-0.393005	
-0.392822	
-0.393127	
-0.392212	
-0.3927	
-0.393616	
-0.393066	
-0.392944	
-0.392761	
-0.392761	
-0.392944	
-0.393005	
-0.393738	
-0.392212	
-0.392578	
-0.392761	
-0.392517	
-0.394653	
-0.395325	
-0.39502	
-0.394897	
-0.395203	
-0.395325	
-0.395996	
-0.396362	
-0.396973	
-0.395935	
-0.396545	
-0.396851	
-0.395996	
-0.397278	
-0.397522	
-0.397583	
-0.397766	
-0.3974	
-0.396851	
-0.397766	
-0.397644	
-0.398193	
-0.395325	
-0.396667	
-0.39624	
-0.395691	
-0.397156	
-0.397156	
-0.395813	
-0.396484	
-0.395874	
-0.395325	
-0.395325	
-0.395996	
-0.396667	
-0.394348	
-0.395264	
-0.395203	
-0.39447	
-0.395935	
-0.396301	
-0.394653	
-0.394531	
-0.392944	
-0.393921	
-0.393616	
-0.393921	
-0.393921	
-0.393005	
-0.392822	
-0.392395	
-0.39093	
-0.392944	
-0.39209	
-0.390808	
-0.39032	
-0.389648	
-0.389282	
-0.388733	
-0.389343	
-0.387756	
-0.38739	
-0.386963	
-0.386597	
-0.386536	
-0.387207	
-0.386597	
-0.386536	
-0.386169	
-0.387573	
-0.387634	
-0.387695	
-0.388123	
-0.387817	
-0.387756	
-0.387695	
-0.387146	
-0.388733	
-0.388855	
-0.388489	
-0.388977	
-0.389465	
-0.389099	
-0.389648	
-0.389771	
-0.391235	
-0.390625	
-0.391113	
-0.391541	
-0.389893	
-0.3927	
-0.39325	
-0.392883	
-0.392395	
-0.392395	
-0.392151	
-0.392883	
-0.392822	
-0.394104	
-0.392273	
-0.393311	
-0.39325	
-0.392029	
-0.39502	
-0.39447	
-0.393677	
-0.393311	
-0.39386	
-0.39386	
-0.394775	
-0.394592	
-0.395691	
-0.393738	
-0.39447	
-0.394226	
-0.392578	
-0.395081	
-0.395447	
-0.394897	
-0.394104	
-0.39447	
-0.395142	
-0.393921	
-0.393921	
-0.394958	
-0.393433	
-0.392822	
-0.392639	
-0.391174	
-0.392822	
-0.392578	
-0.392639	
-0.391785	
-0.391663	
-0.392212	
-0.391907	
-0.392517	
-0.392334	
-0.391785	
-0.392029	
-0.391907	
-0.390686	
-0.39209	
-0.392883	
-0.3927	
-0.3927	
-0.393005	
-0.393799	
-0.393982	
-0.394226	
-0.395264	
-0.394348	
-0.394653	
-0.39386	
-0.395813	
-0.395264	
-0.395691	
-0.395447	
-0.394958	
-0.395569	
-0.39563	
-0.396301	
-0.397339	
-0.396118	
-0.395996	
-0.395386	
-0.394165	
-0.396301	
-0.395813	
-0.395752	
-0.394958	
-0.394287	
-0.395508	
-0.395691	
-0.395508	
-0.395935	
-0.39502	
-0.395203	
-0.394958	
-0.395142	
-0.396118	
-0.395569	
-0.395142	
-0.395447	
-0.394653	
-0.395264	
-0.395264	
-0.39563	
-0.39563	
-0.39502	
-0.395142	
-0.394409	
-0.394714	
-0.395203	
-0.394897	
-0.394287	
-0.394104	
-0.393616	
-0.393555	
-0.392944	
-0.393127	
-0.392883	
-0.391235	
-0.391663	
-0.390381	
-0.390442	
-0.391174	
-0.391052	
-0.389587	
-0.389099	
-0.389709	
-0.388855	
-0.38855	
-0.389648	
-0.389832	
-0.389038	
-0.389587	
-0.388672	
-0.388916	
-0.389893	
-0.390686	
-0.390137	
-0.389282	
-0.390564	
-0.389771	
-0.390442	
-0.391541	
-0.391785	
-0.390198	
-0.391296	
-0.390442	
-0.392395	
-0.392151	
-0.392517	
-0.392273	
-0.391541	
-0.392944	
-0.392883	
-0.393738	
-0.39502	
-0.395081	
-0.393677	
-0.395386	
-0.394165	
-0.396851	
-0.396301	
-0.397156	
-0.396362	
-0.39563	
-0.397339	
-0.397888	
-0.397156	
-0.398438	
-0.397949	
-0.396545	
-0.397461	
-0.397461	
-0.398621	
-0.398254	
-0.398254	
-0.397339	
-0.396179	
-0.396973	
-0.397827	
-0.396912	
-0.397522	
-0.39624	
-0.395264	
-0.395935	
-0.395813	
-0.395752	
-0.395264	
-0.394897	
-0.394714	
-0.392883	
-0.393677	
-0.394592	
-0.394348	
-0.395264	
-0.394104	
-0.393555	
-0.393677	
-0.393616	
-0.39447	
-0.394897	
-0.394287	
-0.393921	
-0.393677	
-0.393677	
-0.394592	
-0.394897	
-0.394531	
-0.393738	
-0.393677	
-0.393799	
-0.392883	
-0.394531	
-0.394897	
-0.394348	
-0.393799	
-0.394287	
-0.393799	
-0.39563	
-0.39624	
-0.395447	
-0.394348	
-0.394592	
-0.393799	
-0.394653	
-0.395142	
-0.39563	
-0.394409	
-0.39386	
-0.394836	
-0.393982	
-0.395752	
-0.395813	
-0.395996	
-0.394897	
-0.394897	
-0.394653	
-0.395325	
-0.395508	
-0.396423	
-0.39502	
-0.394897	
-0.395569	
-0.394592	
-0.395264	
-0.395996	
-0.396057	
-0.394714	
-0.394043	
-0.393738	
-0.39386	
-0.394043	
-0.393799	
-0.391968	
-0.392029	
-0.392334	
-0.391785	
-0.392029	
-0.393066	
-0.391907	
-0.390869	
-0.390747	
-0.390503	
-0.391113	
-0.390503	
-0.390869	
-0.390137	
-0.390076	
-0.390503	
-0.39093	
-0.391052	
-0.391846	
-0.391296	
-0.390747	
-0.391235	
-0.391357	
-0.392639	
-0.392761	
-0.391296	
-0.391724	
-0.391846	
-0.392273	
-0.392761	
-0.392761	
-0.392639	
-0.392517	
-0.390747	
-0.392334	
-0.391968	
-0.393188	
-0.393433	
-0.393188	
-0.393127	
-0.39325	
-0.394104	
-0.394958	
-0.39447	
-0.394836	
-0.395081	
-0.394104	
-0.395325	
-0.395325	
-0.396484	
-0.397949	
-0.397034	
-0.397217	
-0.39801	
-0.398254	
-0.399902	
-0.400879	
-0.401611	
-0.401062	
-0.401001	
-0.400818	
-0.401062	
-0.401917	
-0.402344	
-0.401917	
-0.401367	
-0.400024	
-0.400696	
-0.400635	
-0.400269	
-0.401001	
-0.399902	
-0.399902	
-0.39917	
-0.398499	
-0.399292	
-0.39978	
-0.398499	
-0.398071	
-0.397217	
-0.398254	
-0.397766	
-0.397827	
-0.397217	
-0.396301	
-0.395752	
-0.395142	
-0.394104	
-0.395813	
-0.395813	
-0.395081	
-0.395386	
-0.393799	
-0.394897	
-0.395264	
-0.395508	
-0.39502	
-0.393555	
-0.393982	
-0.393005	
-0.394287	
-0.395264	
-0.394348	
-0.393982	
-0.393738	
-0.392456	
-0.39386	
-0.394531	
-0.394592	
-0.394165	
-0.393311	
-0.393494	
-0.392639	
-0.394226	
-0.394958	
-0.394104	
-0.394165	
-0.394104	
-0.393921	
-0.394714	
-0.39502	
-0.395813	
-0.395569	
-0.394775	
-0.394836	
-0.394165	
-0.396301	
-0.396362	
-0.396118	
-0.396179	
-0.396118	
-0.395874	
-0.396362	
-0.396362	
-0.398071	
-0.395813	
-0.395874	
-0.395935	
-0.395386	
-0.396118	
-0.396851	
-0.395752	
-0.396179	
-0.395325	
-0.393738	
-0.395203	
-0.394775	
-0.395569	
-0.393372	
-0.392822	
-0.392883	
-0.392395	
-0.393616	
-0.393616	
-0.392395	
-0.39209	
-0.391968	
-0.392334	
-0.3927	
-0.392273	
-0.39386	
-0.392395	
-0.391479	
-0.392151	
-0.391113	
-0.393372	
-0.393738	
-0.392822	
-0.392822	
-0.392578	
-0.392883	
-0.393799	
-0.393616	
-0.394348	
-0.393555	
-0.391907	
-0.3927	
-0.392212	
-0.394226	
-0.39325	
-0.393005	
-0.393372	
-0.392883	
-0.393188	
-0.394043	
-0.393616	
-0.394897	
-0.392883	
-0.392029	
-0.39325	
-0.393433	
-0.39502	
-0.394226	
-0.394714	
-0.395081	
-0.394409	
-0.396118	
-0.396606	
-0.396179	
-0.396973	
-0.396545	
-0.396118	
-0.396851	
-0.397583	
-0.399353	
-0.398621	
-0.398376	
-0.39856	
-0.398499	
-0.399841	
-0.399597	
-0.399536	
-0.399048	
-0.398438	
-0.398926	
-0.398071	
-0.398254	
-0.399292	
-0.398743	
-0.398193	
-0.398193	
-0.396606	
-0.397827	
-0.397705	
-0.397827	
-0.396973	
-0.397034	
-0.396362	
-0.395447	
-0.396301	
-0.397034	
-0.395935	
-0.395264	
-0.394836	
-0.393372	
-0.394409	
-0.394653	
-0.39502	
-0.393188	
-0.392456	
-0.392517	
-0.390991	
-0.391907	
-0.393066	
-0.391968	
-0.391479	
-0.390564	
-0.389954	
-0.391418	
-0.391113	
-0.392029	
-0.390869	
-0.390625	
-0.39093	
-0.388977	
-0.391785	
-0.392822	
-0.391602	
-0.391479	
-0.391357	
-0.390137	
-0.3927	
-0.392334	
-0.393921	
-0.39209	
-0.391541	
-0.393188	
-0.391846	
-0.39386	
-0.395386	
-0.394226	
-0.394348	
-0.394104	
-0.392212	
-0.394714	
-0.394409	
-0.396118	
-0.394226	
-0.393616	
-0.394104	
-0.393127	
-0.39447	
-0.395752	
-0.394409	
-0.394531	
-0.394104	
-0.392212	
-0.394836	
-0.39502	
-0.395935	
-0.394409	
-0.394531	
-0.394104	
-0.39325	
-0.394226	
-0.395447	
-0.394104	
-0.394348	
-0.394348	
-0.392151	
-0.39447	
-0.394714	
-0.395508	
-0.393799	
-0.393921	
-0.39386	
-0.394531	
-0.394958	
-0.395508	
-0.394592	
-0.394592	
-0.393188	
-0.392212	
-0.39386	
-0.394226	
-0.394714	
-0.3927	
-0.393005	
-0.393066	
-0.39325	
-0.393555	
-0.394104	
-0.392761	
-0.393188	
-0.393127	
-0.3927	
-0.393005	
-0.393799	
-0.394043	
-0.39386	
-0.39447	
-0.394226	
-0.395264	
-0.396118	
-0.396545	
-0.395752	
-0.396179	
-0.395691	
-0.39624	
-0.396851	
-0.397583	
-0.397034	
-0.396667	
-0.396912	
-0.396545	
-0.398254	
-0.398315	
-0.399353	
-0.397827	
-0.397888	
-0.397095	
-0.396912	
-0.397095	
-0.39801	
-0.396912	
-0.396912	
-0.396301	
-0.394836	
-0.396301	
-0.396973	
-0.397095	
-0.396057	
-0.396301	
-0.396057	
-0.396362	
-0.395935	
-0.397339	
-0.395691	
-0.394958	
-0.395203	
-0.393127	
-0.394958	
-0.395508	
-0.39563	
-0.394226	
-0.393738	
-0.393433	
-0.394287	
-0.39386	
-0.394104	
-0.392151	
-0.391602	
-0.392029	
-0.389099	
-0.390747	
-0.391357	
-0.39093	
-0.389465	
-0.388367	
-0.38739	
-0.388489	
-0.388062	
-0.389282	
-0.387268	
-0.386353	
-0.387573	
-0.384766	
-0.386963	
-0.388	
-0.388672	
-0.387878	
-0.387756	
-0.38678	
-0.388367	
-0.388184	
-0.389221	
-0.388428	
-0.388855	
-0.389038	
-0.387085	
-0.389282	
-0.390564	
-0.390381	
-0.389465	
-0.390198	
-0.390686	
-0.391418	
-0.392029	
-0.393372	
-0.391602	
-0.392517	
-0.392273	
-0.391479	
-0.392456	
-0.394043	
-0.394348	
-0.393372	
-0.392883	
-0.393433	
-0.393616	
-0.394348	
-0.394165	
-0.393066	
-0.393616	
-0.393066	
-0.393311	
-0.394348	
-0.395081	
-0.394775	
-0.394592	
-0.394043	
-0.394653	
-0.394714	
-0.395447	
-0.395752	
-0.393433	
-0.39447	
-0.39447	
-0.394531	
-0.394592	
-0.394897	
-0.394409	
-0.393738	
-0.393494	
-0.394226	
-0.394287	
-0.394104	
-0.393677	
-0.391602	
-0.392517	
-0.391357	
-0.392151	
-0.392334	
-0.39209	
-0.391846	
-0.392273	
-0.392273	
-0.391846	
-0.39209	
-0.392883	
-0.3927	
-0.390747	
-0.39209	
-0.391663	
-0.393127	
-0.393494	
-0.394043	
-0.393677	
-0.394653	
-0.393982	
-0.39502	
-0.394958	
-0.395874	
-0.395447	
-0.393982	
-0.395081	
-0.395386	
-0.396545	
-0.396912	
-0.39679	
-0.395996	
-0.396545	
-0.396362	
-0.395752	
-0.396301	
-0.396301	
-0.396606	
-0.396118	
-0.39502	
-0.395081	
-0.395203	
-0.395752	
-0.396118	
-0.395447	
-0.395081	
-0.39502	
-0.395752	
-0.395691	
-0.395203	
-0.395447	
-0.395142	
-0.395081	
-0.394958	
-0.394287	
-0.395447	
-0.396423	
-0.395386	
-0.394714	
-0.395691	
-0.395142	
-0.395996	
-0.395142	
-0.395081	
-0.394897	
-0.394226	
-0.394104	
-0.39386	
-0.393372	
-0.394836	
-0.392517	
-0.392883	
-0.39209	
-0.391113	
-0.392151	
-0.391418	
-0.390808	
-0.390869	
-0.389282	
-0.389648	
-0.389343	
-0.389587	
-0.390503	
-0.388977	
-0.388916	
-0.39032	
-0.388672	
-0.390686	
-0.389648	
-0.389343	
-0.390015	
-0.388733	
-0.389221	
-0.390259	
-0.390869	
-0.392212	
-0.390869	
-0.391113	
-0.391541	
-0.390015	
-0.392395	
-0.391663	
-0.391785	
-0.39209	
-0.390991	
-0.392212	
-0.392883	
-0.393616	
-0.394897	
-0.393799	
-0.394043	
-0.394226	
-0.393311	
-0.395996	
-0.395813	
-0.396057	
-0.396179	
-0.395874	
-0.39624	
-0.397278	
-0.397278	
-0.398804	
-0.397034	
-0.397583	
-0.397278	
-0.396606	
-0.398376	
-0.397766	
-0.398193	
-0.397583	
-0.396606	
-0.396912	
-0.397522	
-0.397766	
-0.398621	
-0.397278	
-0.397278	
-0.396118	
-0.395996	
-0.397095	
-0.395447	
-0.394897	
-0.39447	
-0.393738	
-0.393188	
-0.394104	
-0.394409	
-0.395996	
-0.394653	
-0.394958	
-0.393372	
-0.393799	
-0.394958	
-0.394592	
-0.393738	
-0.393555	
-0.3927	
-0.393433	
-0.394104	
-0.39447	
-0.394897	
-0.393799	
-0.394592	
-0.393982	
-0.393127	
-0.394653	
-0.394653	
-0.394287	
-0.394165	
-0.394104	
-0.393311	
-0.394165	
-0.394775	
-0.395874	
-0.395386	
-0.395447	
-0.39502	
-0.394531	
-0.395325	
-0.395142	
-0.395081	
-0.394226	
-0.394165	
-0.393494	
-0.395081	
-0.395081	
-0.396118	
-0.395386	
-0.395203	
-0.39447	
-0.394714	
-0.395752	
-0.395813	
-0.395142	
-0.394836	
-0.395691	
-0.394409	
-0.39563	
-0.395447	
-0.396057	
-0.395935	
-0.395081	
-0.394409	
-0.393921	
-0.394165	
-0.394592	
-0.393677	
-0.3927	
-0.392273	
-0.392273	
-0.392517	
-0.392151	
-0.391724	
-0.392334	
-0.391602	
-0.390686	
-0.391846	
-0.390503	
-0.391174	
-0.390686	
-0.390137	
-0.390442	
-0.389587	
-0.390564	
-0.390991	
-0.391602	
-0.391724	
-0.390991	
-0.39093	
-0.391418	
-0.390991	
-0.392212	
-0.391663	
-0.390686	
-0.391785	
-0.392273	
-0.391907	
-0.392456	
-0.393311	
-0.393005	
-0.392456	
-0.391968	
-0.392639	
-0.391907	
-0.393799	
-0.392761	
-0.392151	
-0.393066	
-0.393555	
-0.394165	
-0.394958	
-0.394897	
-0.395264	
-0.395203	
-0.395081	
-0.396118	
-0.395508	
-0.397095	
-0.396729	
-0.396118	
-0.397705	
-0.398987	
-0.399475	
-0.401184	
-0.401001	
-0.401123	
-0.401001	
-0.400085	
-0.401428	
-0.401428	
-0.401367	
-0.401245	
-0.40033	
-0.400146	
-0.400574	
-0.400696	
-0.401794	
-0.40094	
-0.400085	
	
