E:\DOCUMENTS AND SETTINGS\JPOTAS\MEUS DOCUMENTOS\UFRJ\RSCI-BM 12 WK SERIES\070727-RSCI-BM-05\RSCI-BM-05-LEMG\070727-RSCI-BM-05-LEMG-0020.ACQ
0.025000 msec/sample
1 channel
Analog input
Volts
CH1	
2000	
-0.385925	
-0.388062	
-0.386597	
-0.386658	
-0.386841	
-0.386658	
-0.386963	
-0.386902	
-0.388	
-0.38623	
-0.386658	
-0.385925	
-0.38678	
-0.386597	
-0.386047	
-0.386475	
-0.386719	
-0.386292	
-0.386719	
-0.386475	
-0.386414	
-0.386597	
-0.386292	
-0.386353	
-0.386047	
-0.386414	
-0.385254	
-0.386414	
-0.386902	
-0.386414	
-0.386719	
-0.387146	
-0.387756	
-0.387207	
-0.38739	
-0.389221	
-0.38855	
-0.387817	
-0.38916	
-0.389038	
-0.389771	
-0.389221	
-0.389893	
-0.388916	
-0.389221	
-0.388245	
-0.389465	
-0.388733	
-0.388977	
-0.38916	
-0.388733	
-0.388611	
-0.388916	
-0.389832	
-0.387695	
-0.387573	
-0.387573	
-0.387939	
-0.387329	
-0.38678	
-0.387268	
-0.385925	
-0.387146	
-0.386841	
-0.386719	
-0.386047	
-0.386169	
-0.385559	
-0.385864	
-0.385986	
-0.385315	
-0.383911	
-0.384888	
-0.384705	
-0.384583	
-0.383972	
-0.383911	
-0.384033	
-0.383606	
-0.383972	
-0.384399	
-0.383484	
-0.383789	
-0.384094	
-0.383545	
-0.383667	
-0.383972	
-0.384399	
-0.38446	
-0.384644	
-0.384644	
-0.385803	
-0.385864	
-0.385986	
-0.387024	
-0.386658	
-0.387573	
-0.387695	
-0.387939	
-0.387085	
-0.387085	
-0.386658	
-0.387756	
-0.388123	
-0.387634	
-0.387695	
-0.387085	
-0.388184	
-0.388245	
-0.387939	
-0.38739	
-0.387329	
-0.387146	
-0.387756	
-0.388123	
-0.387329	
-0.386597	
-0.387939	
-0.387695	
-0.388367	
-0.388245	
-0.387878	
-0.386963	
-0.38739	
-0.387329	
-0.388245	
-0.387085	
-0.386597	
-0.387756	
-0.387207	
-0.386719	
-0.388	
-0.388123	
-0.386597	
-0.385925	
-0.385864	
-0.38623	
-0.385071	
-0.384583	
-0.384949	
-0.38446	
-0.384583	
-0.384277	
-0.384949	
-0.384033	
-0.383728	
-0.38385	
-0.384949	
-0.384277	
-0.38446	
-0.384216	
-0.383118	
-0.384338	
-0.384827	
-0.383728	
-0.384888	
-0.384705	
-0.383728	
-0.385193	
-0.386169	
-0.385254	
-0.383911	
-0.38501	
-0.384888	
-0.385193	
-0.385193	
-0.385132	
-0.384888	
-0.384949	
-0.385559	
-0.385559	
-0.38501	
-0.384583	
-0.385254	
-0.384888	
-0.385376	
-0.385681	
-0.385498	
-0.385742	
-0.384827	
-0.385071	
-0.385132	
-0.385315	
-0.385498	
-0.38623	
-0.384827	
-0.385864	
-0.38623	
-0.387085	
-0.386169	
-0.386169	
-0.386353	
-0.38678	
-0.386963	
-0.386841	
-0.386353	
-0.385803	
-0.383972	
-0.380188	
-0.380432	
-0.380371	
-0.380676	
-0.379517	
-0.384277	
-0.388367	
-0.387695	
-0.387024	
-0.388123	
-0.388062	
-0.387634	
-0.387268	
-0.38739	
-0.38678	
-0.386108	
-0.387146	
-0.387268	
-0.386597	
-0.385864	
-0.38623	
-0.385376	
-0.385254	
-0.385376	
-0.384705	
-0.383545	
-0.382813	
-0.383362	
-0.382813	
-0.382813	
-0.382751	
-0.383972	
-0.382568	
-0.383057	
-0.383484	
-0.383972	
-0.383728	
-0.383545	
-0.384094	
-0.384827	
-0.38501	
-0.38446	
-0.384949	
-0.384277	
-0.385864	
-0.385742	
-0.386414	
-0.386536	
-0.387207	
-0.387146	
-0.38916	
-0.391907	
-0.392883	
-0.395874	
-0.397949	
-0.400879	
-0.404541	
-0.408752	
-0.412354	
-0.41626	
-0.419495	
-0.424805	
-0.430115	
-0.432861	
-0.437683	
-0.440247	
-0.445923	
-0.451355	
-0.457886	
-0.463135	
-0.47052	
-0.479065	
-0.488525	
-0.498901	
-0.50769	
-0.517456	
-0.524414	
-0.533508	
-0.538879	
-0.544617	
-0.547852	
-0.550171	
-0.551697	
-0.552307	
-0.552368	
-0.551147	
-0.55072	
-0.547546	
-0.546326	
-0.54364	
-0.541626	
-0.537659	
-0.53479	
-0.531067	
-0.528259	
-0.524475	
-0.519348	
-0.515503	
-0.510742	
-0.506836	
-0.502258	
-0.498352	
-0.495605	
-0.492554	
-0.489197	
-0.485901	
-0.484924	
-0.481079	
-0.477966	
-0.475037	
-0.472778	
-0.469421	
-0.465576	
-0.462708	
-0.458984	
-0.455017	
-0.451965	
-0.450378	
-0.447754	
-0.444946	
-0.443604	
-0.441467	
-0.440186	
-0.440369	
-0.43988	
-0.438965	
-0.438721	
-0.437988	
-0.437622	
-0.436584	
-0.434509	
-0.434509	
-0.431885	
-0.429565	
-0.428284	
-0.425964	
-0.422302	
-0.418701	
-0.415894	
-0.411682	
-0.407715	
-0.401855	
-0.398926	
-0.391052	
-0.387085	
-0.380737	
-0.374939	
-0.367737	
-0.360474	
-0.352844	
-0.345581	
-0.339355	
-0.331604	
-0.325928	
-0.319641	
-0.314514	
-0.308899	
-0.304199	
-0.300293	
-0.296936	
-0.293823	
-0.291077	
-0.291565	
-0.289612	
-0.289734	
-0.289978	
-0.291443	
-0.293823	
-0.295166	
-0.297852	
-0.300476	
-0.302551	
-0.305359	
-0.307373	
-0.307068	
-0.308777	
-0.308105	
-0.309143	
-0.308777	
-0.309509	
-0.309265	
-0.309814	
-0.310364	
-0.311951	
-0.31311	
-0.314148	
-0.317505	
-0.320068	
-0.322327	
-0.325928	
-0.329407	
-0.33136	
-0.334351	
-0.335938	
-0.340393	
-0.341919	
-0.344177	
-0.346497	
-0.347534	
-0.349548	
-0.350952	
-0.352478	
-0.353149	
-0.353882	
-0.35498	
-0.357727	
-0.357056	
-0.358398	
-0.358459	
-0.35968	
-0.359619	
-0.36084	
-0.36145	
-0.361633	
-0.362366	
-0.363525	
-0.363953	
-0.36438	
-0.364929	
-0.365051	
-0.365845	
-0.365967	
-0.367798	
-0.366455	
-0.366211	
-0.366333	
-0.36676	
-0.366089	
-0.364746	
-0.366272	
-0.365906	
-0.365845	
-0.365723	
-0.366272	
-0.365845	
-0.365906	
-0.365173	
-0.366821	
-0.366333	
-0.36554	
-0.365906	
-0.36676	
-0.366638	
-0.36731	
-0.366638	
-0.366882	
-0.367004	
-0.366455	
-0.367493	
-0.367004	
-0.366699	
-0.366943	
-0.366699	
-0.367432	
-0.367676	
-0.367432	
-0.367615	
-0.367493	
-0.36792	
-0.368835	
-0.368347	
-0.367737	
-0.367554	
-0.368164	
-0.368835	
-0.369751	
-0.369446	
-0.369751	
-0.369873	
-0.370117	
-0.371155	
-0.371216	
-0.370728	
-0.371338	
-0.372437	
-0.37323	
-0.373718	
-0.373047	
-0.373291	
-0.373169	
-0.373535	
-0.374329	
-0.374329	
-0.373962	
-0.373169	
-0.37439	
-0.374573	
-0.375488	
-0.374939	
-0.374573	
-0.374939	
-0.374023	
-0.37439	
-0.374268	
-0.374084	
-0.37439	
-0.374695	
-0.374023	
-0.375244	
-0.374268	
-0.374634	
-0.374451	
-0.374939	
-0.375061	
-0.375183	
-0.375366	
-0.375977	
-0.375183	
-0.375366	
-0.376587	
-0.375427	
-0.375488	
-0.375366	
-0.376587	
-0.375854	
-0.375671	
-0.375854	
-0.37616	
-0.376038	
-0.375854	
-0.375427	
-0.375366	
-0.375671	
-0.374146	
-0.375916	
-0.376282	
-0.374817	
-0.375366	
-0.375488	
-0.375854	
-0.375427	
-0.374146	
-0.375305	
-0.375854	
-0.374756	
-0.375549	
-0.375671	
-0.37439	
-0.375	
-0.37561	
-0.375061	
-0.376221	
-0.375671	
-0.375977	
-0.375793	
-0.376587	
-0.376953	
-0.376526	
-0.375916	
-0.376587	
-0.37738	
-0.377625	
-0.378174	
-0.376953	
-0.378418	
-0.379272	
-0.378784	
-0.380127	
-0.380493	
-0.380005	
-0.380371	
-0.382324	
-0.381592	
-0.382629	
-0.381836	
-0.380981	
-0.381042	
-0.38092	
-0.381531	
-0.381042	
-0.38031	
-0.38031	
-0.381836	
-0.380371	
-0.380981	
-0.380859	
-0.379822	
-0.379883	
-0.379822	
-0.379639	
-0.379089	
-0.378418	
-0.377502	
-0.379456	
-0.378174	
-0.378479	
-0.377808	
-0.377014	
-0.376587	
-0.377014	
-0.377747	
-0.377502	
-0.376953	
-0.37677	
-0.378723	
-0.378235	
-0.378723	
-0.378357	
-0.378052	
-0.377808	
-0.378418	
-0.37793	
-0.378479	
-0.378174	
-0.377136	
-0.378723	
-0.378113	
-0.379578	
-0.379028	
-0.377625	
-0.378052	
-0.378601	
-0.378357	
-0.378174	
-0.377563	
-0.378296	
-0.380066	
-0.378906	
-0.379761	
-0.379211	
-0.379272	
-0.37854	
-0.378784	
-0.379578	
-0.379211	
-0.378662	
-0.379761	
-0.381226	
-0.380432	
-0.380554	
-0.379822	
-0.38031	
-0.378906	
-0.379822	
-0.380005	
-0.380188	
-0.379578	
-0.379822	
-0.380981	
-0.38092	
-0.380432	
-0.379456	
-0.379944	
-0.38031	
-0.380127	
-0.379578	
-0.380371	
-0.380737	
-0.380798	
-0.380676	
-0.380188	
-0.379944	
-0.379456	
-0.379272	
-0.38031	
-0.380615	
-0.380615	
-0.380371	
-0.380066	
-0.380798	
-0.38208	
-0.382751	
-0.381897	
-0.381042	
-0.381531	
-0.38208	
-0.381714	
-0.381653	
-0.381226	
-0.381531	
-0.381897	
-0.382751	
-0.382813	
-0.382385	
-0.381348	
-0.381165	
-0.382446	
-0.381592	
-0.381531	
-0.381592	
-0.381287	
-0.381226	
-0.382874	
-0.382629	
-0.381409	
-0.380676	
-0.381042	
-0.382263	
-0.381653	
-0.381409	
-0.381042	
-0.381531	
-0.380554	
-0.382446	
-0.383057	
-0.382202	
-0.381775	
-0.382263	
-0.383362	
-0.38269	
-0.383118	
-0.38324	
-0.383667	
-0.382629	
-0.384705	
-0.385376	
-0.38501	
-0.384399	
-0.384399	
-0.386108	
-0.38501	
-0.385559	
-0.384644	
-0.385498	
-0.38446	
-0.386047	
-0.386169	
-0.384766	
-0.384644	
-0.384583	
-0.385254	
-0.384033	
-0.38501	
-0.384277	
-0.383545	
-0.383118	
-0.384766	
-0.384583	
-0.383911	
-0.38324	
-0.382751	
-0.384094	
-0.383057	
-0.383606	
-0.382385	
-0.383301	
-0.382813	
-0.382996	
-0.382996	
-0.382385	
-0.38147	
-0.380005	
-0.381531	
-0.381531	
-0.382263	
-0.381104	
-0.381287	
-0.380493	
-0.381226	
-0.381042	
-0.380859	
-0.380798	
-0.379333	
-0.381409	
-0.380676	
-0.381653	
-0.381104	
-0.381287	
-0.381226	
-0.383301	
-0.383545	
-0.384277	
-0.38385	
-0.383728	
-0.385376	
-0.384521	
-0.385864	
-0.384705	
-0.385437	
-0.384949	
-0.385986	
-0.386108	
-0.385803	
-0.385559	
-0.385376	
-0.386353	
-0.386292	
-0.386108	
-0.385742	
-0.385803	
-0.38562	
-0.386658	
-0.385986	
-0.386414	
-0.385864	
-0.385376	
-0.386169	
-0.385376	
-0.38678	
-0.386108	
-0.385925	
-0.384949	
-0.386414	
-0.385864	
-0.386292	
-0.385864	
-0.384949	
-0.386292	
-0.386292	
-0.386658	
-0.38562	
-0.385742	
-0.384827	
-0.38562	
-0.385071	
-0.384521	
-0.383667	
-0.382935	
-0.382996	
-0.383606	
-0.384155	
-0.383179	
-0.38208	
-0.382629	
-0.383972	
-0.384277	
-0.383667	
-0.382751	
-0.382813	
-0.383362	
-0.383911	
-0.383911	
-0.384033	
-0.38324	
-0.383972	
-0.385132	
-0.384644	
-0.384033	
-0.384216	
-0.38446	
-0.384644	
-0.385681	
-0.384888	
-0.384766	
-0.384033	
-0.384399	
-0.385071	
-0.385559	
-0.384827	
-0.38446	
-0.384277	
-0.385071	
-0.385803	
-0.385132	
-0.384705	
-0.384094	
-0.384521	
-0.385376	
-0.386047	
-0.385254	
-0.38501	
-0.385376	
-0.385437	
-0.385864	
-0.385925	
-0.385925	
-0.385254	
-0.38623	
-0.385864	
-0.386658	
-0.386292	
-0.385925	
-0.386353	
-0.38678	
-0.387878	
-0.387207	
-0.387695	
-0.387085	
-0.387329	
-0.387268	
-0.387695	
-0.387817	
-0.38739	
-0.387268	
-0.387939	
-0.388306	
-0.387573	
-0.388123	
-0.387085	
-0.387268	
-0.387451	
-0.387268	
-0.387024	
-0.386475	
-0.386536	
-0.386292	
-0.38739	
-0.386292	
-0.38739	
-0.385559	
-0.385071	
-0.385681	
-0.384705	
-0.384216	
-0.383545	
-0.38385	
-0.383057	
-0.384338	
-0.384216	
-0.38501	
-0.383972	
-0.38385	
-0.384888	
-0.384521	
-0.38562	
-0.384644	
-0.385193	
-0.384888	
-0.385498	
-0.38623	
-0.386353	
-0.386719	
-0.387268	
-0.38739	
-0.387939	
-0.388672	
-0.387878	
-0.388794	
-0.389038	
-0.388733	
-0.390198	
-0.390198	
-0.390625	
-0.390381	
-0.390381	
-0.389587	
-0.390198	
-0.38916	
-0.389465	
-0.389282	
-0.388733	
-0.389893	
-0.390259	
-0.389465	
-0.389282	
-0.389832	
-0.389526	
-0.389954	
-0.390076	
-0.389587	
-0.389587	
-0.387573	
-0.389954	
-0.390076	
-0.390564	
-0.389343	
-0.390503	
-0.388855	
-0.390503	
-0.392029	
-0.389709	
-0.390747	
-0.389709	
-0.391357	
-0.390747	
-0.390808	
-0.388062	
-0.389832	
-0.388855	
-0.389893	
-0.390747	
-0.388184	
-0.389587	
-0.388672	
-0.390442	
-0.390137	
-0.39032	
-0.389099	
-0.389771	
-0.390076	
-0.389893	
-0.390991	
-0.389221	
-0.389648	
-0.389648	
-0.391541	
-0.391418	
-0.391724	
-0.390503	
-0.390869	
-0.391235	
-0.391113	
-0.392456	
-0.391479	
-0.392334	
-0.391602	
-0.392395	
-0.39209	
-0.392761	
-0.391052	
-0.391235	
-0.391968	
-0.390991	
-0.391541	
-0.390869	
-0.389893	
-0.389282	
-0.389038	
-0.390381	
-0.390503	
-0.388916	
-0.389587	
-0.390564	
-0.390198	
-0.391113	
-0.390747	
-0.389709	
-0.389587	
-0.389587	
-0.390137	
-0.390564	
-0.390015	
-0.389893	
-0.390808	
-0.390442	
-0.391846	
-0.391296	
-0.390381	
-0.390442	
-0.390442	
-0.390198	
-0.390991	
-0.390686	
-0.390747	
-0.391113	
-0.390015	
-0.391724	
-0.391541	
-0.390625	
-0.390564	
-0.390625	
-0.390198	
-0.390503	
-0.389954	
-0.38916	
-0.389282	
-0.388245	
-0.389648	
-0.38855	
-0.388062	
-0.387695	
-0.388367	
-0.387146	
-0.387451	
-0.388489	
-0.38739	
-0.387634	
-0.387695	
-0.388977	
-0.388184	
-0.387695	
-0.38855	
-0.38855	
-0.388184	
-0.388855	
-0.389648	
-0.388306	
-0.389954	
-0.389709	
-0.389771	
-0.389832	
-0.389771	
-0.389771	
-0.390259	
-0.390503	
-0.390381	
-0.391357	
-0.389954	
-0.391052	
-0.391602	
-0.391602	
-0.391052	
-0.391602	
-0.391357	
-0.391846	
-0.393311	
-0.392639	
-0.393005	
-0.392334	
-0.392883	
-0.393921	
-0.392212	
-0.39325	
-0.393311	
-0.393311	
-0.391907	
-0.394226	
-0.392761	
-0.393555	
-0.393188	
-0.392761	
-0.39325	
-0.391174	
-0.391663	
-0.390625	
-0.390747	
-0.388855	
-0.390503	
-0.388794	
-0.389282	
-0.390381	
-0.389526	
-0.390198	
-0.388794	
-0.389771	
-0.388733	
-0.389526	
-0.387878	
-0.388794	
-0.387878	
-0.388977	
-0.389282	
-0.388672	
-0.389648	
-0.388916	
-0.390015	
-0.38916	
-0.389832	
-0.388611	
-0.389526	
-0.388672	
-0.38916	
-0.389709	
-0.388916	
-0.389465	
-0.388794	
-0.389954	
-0.389832	
-0.390503	
-0.389282	
-0.389893	
-0.389587	
-0.389954	
-0.390015	
-0.389893	
-0.390564	
-0.390564	
-0.391235	
-0.391174	
-0.392029	
-0.391541	
-0.392212	
-0.391907	
-0.392639	
-0.392578	
-0.39209	
-0.392578	
-0.392517	
-0.392883	
-0.392029	
-0.392578	
-0.392334	
-0.393494	
-0.392212	
-0.392212	
-0.392212	
-0.392151	
-0.3927	
-0.391541	
-0.390381	
-0.391235	
-0.390869	
-0.391541	
-0.390991	
-0.390747	
-0.390381	
-0.391052	
-0.391479	
-0.390869	
-0.391113	
-0.390808	
-0.391174	
-0.389954	
-0.391724	
-0.390503	
-0.390747	
-0.390991	
-0.390991	
-0.391907	
-0.391479	
-0.390991	
-0.39032	
-0.391296	
-0.390198	
-0.391113	
-0.390198	
-0.390076	
-0.389832	
-0.389771	
-0.39093	
-0.390015	
-0.390503	
-0.389771	
-0.390747	
-0.389404	
-0.389343	
-0.388916	
-0.389526	
-0.388977	
-0.388733	
-0.389343	
-0.388489	
-0.389526	
-0.388062	
-0.388306	
-0.387878	
-0.388855	
-0.388	
-0.388123	
-0.388489	
-0.388184	
-0.387756	
-0.388	
-0.388855	
-0.388855	
-0.389099	
-0.388611	
-0.389465	
-0.389648	
-0.389709	
-0.388977	
-0.388977	
-0.389526	
-0.39093	
-0.391602	
-0.391663	
-0.391846	
-0.392151	
-0.39209	
-0.392639	
-0.391785	
-0.392212	
-0.391296	
-0.391174	
-0.39209	
-0.392029	
-0.391418	
-0.390991	
-0.391541	
-0.389709	
-0.390808	
-0.39032	
-0.389954	
-0.389343	
-0.389465	
-0.389038	
-0.388611	
-0.389343	
-0.38739	
-0.389221	
-0.387329	
-0.388123	
-0.386719	
-0.385803	
-0.385986	
-0.386169	
-0.386108	
-0.386169	
-0.38739	
-0.385925	
-0.387146	
-0.386475	
-0.387085	
-0.387207	
-0.386536	
-0.386597	
-0.385925	
-0.386841	
-0.386169	
-0.387085	
-0.386047	
-0.386536	
-0.386292	
-0.386475	
-0.386414	
-0.385925	
-0.385986	
-0.386047	
-0.386353	
-0.386353	
-0.38678	
-0.385986	
-0.386353	
-0.38623	
-0.386292	
-0.386169	
-0.386597	
-0.386536	
-0.385681	
-0.385864	
-0.387024	
-0.38678	
-0.386536	
-0.386963	
-0.386719	
-0.386902	
-0.387451	
-0.386353	
-0.386902	
-0.386108	
-0.386353	
-0.387573	
-0.387024	
-0.386963	
-0.385986	
-0.387085	
-0.386108	
-0.388367	
-0.38623	
-0.386536	
-0.386047	
-0.386169	
-0.38678	
-0.387451	
-0.386292	
-0.386047	
-0.387207	
-0.385498	
-0.386536	
-0.385742	
-0.38562	
-0.385681	
-0.385742	
-0.386536	
-0.385925	
-0.386597	
-0.386414	
-0.386963	
-0.386169	
-0.387695	
-0.387756	
-0.387451	
-0.386963	
-0.386963	
-0.387939	
-0.387512	
-0.387024	
-0.386963	
-0.387268	
-0.386292	
-0.387695	
-0.387939	
-0.38678	
-0.386108	
-0.386108	
-0.387268	
-0.386597	
-0.386536	
-0.385742	
-0.386414	
-0.385986	
-0.386902	
-0.386536	
-0.385864	
-0.386536	
-0.385559	
-0.38739	
-0.385742	
-0.386963	
-0.386292	
-0.386658	
-0.386963	
-0.387268	
-0.387756	
-0.385803	
-0.387207	
-0.386902	
-0.388062	
-0.387817	
-0.388916	
-0.389038	
-0.388184	
-0.389343	
-0.389282	
-0.390259	
-0.389099	
-0.389404	
-0.38916	
-0.389893	
-0.389465	
-0.390198	
-0.389038	
-0.388611	
-0.389587	
-0.38916	
-0.389832	
-0.389709	
-0.388672	
-0.388123	
-0.387451	
-0.388855	
-0.388977	
-0.38855	
-0.387146	
-0.388489	
-0.38739	
-0.38855	
-0.388062	
-0.387146	
-0.386047	
-0.386475	
-0.387268	
-0.387085	
-0.386414	
-0.384949	
-0.386475	
-0.385925	
-0.386963	
-0.386597	
-0.385071	
-0.385071	
-0.385071	
-0.385315	
-0.385437	
-0.384766	
-0.383362	
-0.385132	
-0.384338	
-0.385071	
-0.384827	
-0.38446	
-0.384705	
-0.384521	
-0.385864	
-0.386169	
-0.385925	
-0.385315	
-0.386963	
-0.386963	
-0.388123	
-0.388306	
-0.386841	
-0.388306	
-0.387573	
-0.389404	
-0.38916	
-0.388245	
-0.38855	
-0.388855	
-0.388611	
-0.389404	
-0.390259	
-0.388245	
-0.38916	
-0.388489	
-0.388733	
-0.38855	
-0.38916	
-0.388672	
-0.388916	
-0.388794	
-0.389099	
-0.389893	
-0.388855	
-0.388855	
-0.388367	
-0.388733	
-0.388977	
-0.389709	
-0.388733	
-0.388123	
-0.388855	
-0.38855	
-0.390076	
-0.388855	
-0.389709	
-0.388428	
-0.387817	
-0.388428	
-0.388428	
-0.387268	
-0.387329	
-0.38739	
-0.387085	
-0.387329	
-0.386108	
-0.385742	
-0.385193	
-0.384521	
-0.385803	
-0.386292	
-0.386108	
-0.385803	
-0.386475	
-0.386047	
-0.386353	
-0.386292	
-0.385803	
-0.385742	
-0.386353	
-0.387146	
-0.386902	
-0.386719	
-0.385803	
-0.386841	
-0.386963	
-0.38678	
-0.387329	
-0.385864	
-0.387207	
-0.385986	
-0.387146	
-0.387634	
-0.387695	
-0.38623	
-0.386902	
-0.386841	
-0.387207	
-0.388184	
-0.386292	
-0.387207	
-0.386841	
-0.387756	
-0.387329	
-0.387756	
-0.386963	
-0.387329	
-0.387268	
-0.387573	
-0.388916	
-0.388123	
-0.388123	
-0.387939	
-0.388672	
-0.38855	
-0.388855	
-0.388184	
-0.388123	
-0.388977	
-0.388794	
-0.389282	
-0.388916	
-0.38916	
-0.389221	
-0.388428	
-0.389954	
-0.390869	
-0.389893	
-0.389954	
-0.390076	
-0.389954	
-0.389771	
-0.390747	
-0.389648	
-0.389893	
-0.388123	
-0.389587	
-0.389832	
-0.388794	
-0.387817	
-0.388855	
-0.388855	
-0.389099	
-0.389893	
-0.388123	
-0.388	
-0.387146	
-0.387634	
-0.387085	
-0.386108	
-0.384827	
-0.385986	
-0.385437	
-0.385986	
-0.386597	
-0.385803	
-0.386047	
-0.385803	
-0.38678	
-0.387268	
-0.386353	
-0.385742	
-0.387451	
-0.387085	
-0.387634	
-0.388184	
-0.387024	
-0.388367	
-0.388245	
-0.388611	
-0.389038	
-0.389282	
-0.389771	
-0.389771	
-0.389282	
-0.390808	
-0.392273	
-0.392517	
-0.391602	
-0.391968	
-0.391846	
-0.392212	
-0.392029	
-0.391235	
-0.391052	
-0.391052	
-0.391479	
-0.391296	
-0.391907	
-0.390808	
-0.390686	
-0.390686	
-0.391724	
-0.391968	
-0.391113	
-0.391113	
-0.391113	
-0.391541	
-0.391602	
-0.392212	
-0.391174	
-0.391724	
-0.391846	
-0.391663	
-0.392578	
-0.39209	
-0.391907	
-0.392273	
-0.392395	
-0.39209	
-0.392395	
-0.392456	
-0.391663	
-0.391602	
-0.389893	
-0.391174	
-0.391052	
-0.390625	
-0.390869	
-0.390381	
-0.390869	
-0.390869	
-0.390869	
-0.390869	
-0.391479	
-0.390991	
-0.391235	
-0.391235	
-0.389954	
-0.391357	
-0.391296	
-0.391602	
-0.392151	
-0.392029	
-0.391968	
-0.392395	
-0.391724	
-0.392517	
-0.392761	
-0.392456	
-0.3927	
-0.393005	
-0.393433	
-0.393188	
-0.393799	
-0.392822	
-0.393005	
-0.391968	
-0.39209	
-0.392334	
-0.391785	
-0.391357	
-0.391785	
-0.391357	
-0.390991	
-0.391846	
-0.391052	
-0.391357	
-0.391785	
-0.390137	
-0.392517	
-0.390686	
-0.391296	
-0.391296	
-0.391113	
-0.391052	
-0.391602	
-0.391968	
-0.391541	
-0.391785	
-0.391113	
-0.392395	
-0.391479	
-0.391846	
-0.392029	
-0.391907	
-0.391968	
-0.392029	
-0.392273	
-0.392456	
-0.392151	
-0.391724	
-0.392212	
-0.392151	
-0.391602	
-0.391479	
-0.391357	
-0.391785	
-0.391174	
-0.390442	
-0.391052	
-0.390747	
-0.388794	
-0.389587	
-0.390076	
-0.388489	
-0.389465	
-0.388428	
-0.388611	
-0.389099	
-0.389648	
-0.388672	
-0.388855	
-0.389282	
-0.38916	
-0.389832	
-0.388367	
-0.389038	
-0.389343	
-0.389343	
-0.388916	
-0.39032	
-0.389832	
-0.390015	
-0.390686	
-0.389282	
-0.391052	
-0.389954	
-0.390442	
-0.390381	
-0.39093	
-0.390381	
-0.391052	
-0.391907	
-0.391418	
-0.391968	
-0.391052	
-0.392639	
-0.391846	
-0.392578	
-0.392822	
-0.393127	
-0.393005	
-0.393555	
-0.393372	
-0.393311	
-0.393738	
-0.393311	
-0.394287	
-0.393555	
-0.394043	
-0.394104	
-0.394043	
-0.393616	
-0.394409	
-0.394409	
-0.393372	
-0.393127	
-0.391724	
-0.392578	
-0.391541	
-0.390076	
-0.391357	
-0.390625	
-0.390198	
-0.390564	
-0.390137	
-0.389832	
-0.389465	
-0.388977	
-0.388428	
-0.390259	
-0.388855	
-0.389404	
-0.388794	
-0.389099	
-0.389465	
-0.389893	
-0.389465	
-0.388916	
-0.389832	
-0.388916	
-0.389709	
-0.388977	
-0.389954	
-0.389282	
-0.389648	
-0.389038	
-0.389771	
-0.389221	
-0.389465	
-0.390076	
-0.389343	
-0.390137	
-0.38916	
-0.389648	
-0.389832	
-0.390381	
-0.389709	
-0.389893	
-0.390076	
-0.390137	
-0.390503	
-0.390686	
-0.391296	
-0.391174	
-0.390503	
-0.391541	
-0.3927	
-0.392273	
-0.3927	
-0.392456	
-0.392517	
-0.392761	
-0.393372	
-0.391663	
-0.392151	
-0.391968	
-0.392334	
-0.392761	
-0.392639	
-0.393494	
-0.392029	
-0.392517	
-0.391357	
-0.392273	
-0.390991	
-0.391663	
-0.391357	
-0.391052	
-0.39032	
-0.390808	
-0.391602	
-0.391174	
-0.392151	
-0.390747	
-0.389709	
-0.39093	
-0.391968	
-0.390503	
-0.390076	
-0.390747	
-0.39093	
-0.390564	
-0.391418	
-0.39032	
-0.390869	
-0.390381	
-0.390747	
-0.390381	
-0.390686	
-0.389709	
-0.389771	
-0.390564	
-0.389526	
-0.390503	
-0.389282	
-0.389893	
-0.38916	
-0.389832	
-0.388611	
-0.389038	
-0.388428	
-0.388611	
-0.388855	
-0.388428	
-0.388855	
-0.388306	
-0.388977	
-0.388062	
-0.388	
-0.38739	
-0.388367	
-0.387756	
-0.387756	
-0.387207	
-0.388	
-0.30.389954	
-0.391174	
-0.391113	
-0.391907	
-0.390686	
-0.391724	
-0.391052	
-0.391724	
-0.391602	
-0.391846	
-0.390137	
-0.390564	
-0.389709	
-0.392273	
-0.391541	
-0.391357	
-0.391357	
-0.391602	
-0.390808	
-0.391602	
-0.391418	
-0.391907	
-0.390137	
-0.391174	
-0.390137	
-0.392456	
-0.391663	
-0.391418	
-0.391296	
-0.391418	
-0.39093	
-0.391357	
-0.391724	
-0.392334	
-0.390442	
-0.39209	
-0.390808	
-0.392578	
-0.392334	
-0.391724	
-0.391479	
-0.391663	
-0.391541	
-0.391846	
-0.392395	
-0.391663	
-0.390381	
-0.391174	
-0.389954	
-0.392456	
-0.392334	
-0.391663	
-0.390747	
-0.390137	
-0.390869	
-0.390991	
-0.392029	
-0.391296	
-0.389465	
-0.39032	
-0.388977	
-0.391235	
-0.391418	
-0.390442	
-0.389587	
-0.389954	
-0.390564	
-0.388977	
-0.388855	
-0.388245	
-0.388062	
-0.388306	
-0.387756	
-0.389221	
-0.390747	
-0.389099	
-0.387634	
-0.389404	
-0.390503	
-0.389893	
-0.390259	
-0.389709	
-0.389099	
-0.389709	
-0.388672	
-0.390076	
-0.391479	
-0.389832	
-0.389771	
-0.389954	
-0.391357	
-0.390198	
-0.391174	
-0.390137	
-0.389771	
-0.390259	
-0.390442	
-0.390747	
-0.390686	
-0.390686	
-0.39032	
-0.390442	
-0.391663	
-0.390747	
-0.391541	
-0.390381	
-0.389893	
-0.390259	
-0.39093	
-0.390442	
-0.390442	
-0.390625	
-0.390442	
-0.389709	
-0.391296	
-0.390991	
-0.39093	
-0.390015	
-0.390625	
-0.389526	
-0.389465	
-0.39032	
-0.389832	
-0.38916	
-0.3893