E:\DOCUMENTS AND SETTINGS\JPOTAS\MEUS DOCUMENTOS\UFRJ\RSCI-BM 12 WK SERIES\070731-RSCI-BM-12\RSCI-BM-12-LEMG\070731-RSCI-BM-12-LEMG-0000.ACQ
0.025000 msec/sample
1 channel
Analog input
Volts
CH1	
2000	
-0.39679	
-0.395752	
-0.395203	
-0.395935	
-0.397644	
-0.395935	
-0.395813	
-0.395935	
-0.395081	
-0.395142	
-0.395386	
-0.393921	
-0.39563	
-0.394958	
-0.394775	
-0.394714	
-0.394348	
-0.393982	
-0.394775	
-0.395081	
-0.393982	
-0.394653	
-0.393494	
-0.392212	
-0.393738	
-0.392883	
-0.39325	
-0.393494	
-0.393005	
-0.392761	
-0.392395	
-0.392395	
-0.393005	
-0.394348	
-0.393799	
-0.393494	
-0.394775	
-0.393738	
-0.393738	
-0.394165	
-0.394226	
-0.394592	
-0.394897	
-0.395203	
-0.395264	
-0.395142	
-0.39502	
-0.395996	
-0.3974	
-0.395569	
-0.395874	
-0.395996	
-0.39624	
-0.39563	
-0.395447	
-0.394592	
-0.395813	
-0.396057	
-0.39563	
-0.395447	
-0.395508	
-0.394897	
-0.396057	
-0.396851	
-0.395691	
-0.396606	
-0.395874	
-0.396118	
-0.395508	
-0.395508	
-0.395691	
-0.395752	
-0.395935	
-0.395081	
-0.395447	
-0.395203	
-0.394714	
-0.39624	
-0.396118	
-0.395752	
-0.396118	
-0.39502	
-0.3927	
-0.39502	
-0.394409	
-0.395569	
-0.39447	
-0.394531	
-0.394836	
-0.394348	
-0.395081	
-0.394409	
-0.395752	
-0.394775	
-0.394836	
-0.394165	
-0.394226	
-0.39325	
-0.393982	
-0.394043	
-0.393982	
-0.395325	
-0.394653	
-0.394348	
-0.394714	
-0.394836	
-0.395386	
-0.39624	
-0.394897	
-0.396057	
-0.395569	
-0.394836	
-0.395203	
-0.395142	
-0.39563	
-0.395447	
-0.396362	
-0.395264	
-0.395874	
-0.395569	
-0.395508	
-0.395752	
-0.39624	
-0.395935	
-0.396423	
-0.396057	
-0.395508	
-0.395752	
-0.395447	
-0.39624	
-0.395386	
-0.396118	
-0.39563	
-0.395691	
-0.39624	
-0.395447	
-0.396545	
-0.39679	
-0.396912	
-0.396301	
-0.395935	
-0.395142	
-0.396423	
-0.396912	
-0.397217	
-0.395935	
-0.3974	
-0.397644	
-0.397705	
-0.397461	
-0.397034	
-0.398438	
-0.398315	
-0.398804	
-0.397949	
-0.397888	
-0.397278	
-0.397156	
-0.39801	
-0.397644	
-0.398315	
-0.39801	
-0.397583	
-0.397766	
-0.397339	
-0.396729	
-0.398132	
-0.397766	
-0.39679	
-0.39679	
-0.39679	
-0.395752	
-0.395203	
-0.395752	
-0.394958	
-0.395935	
-0.394958	
-0.394653	
-0.394348	
-0.39447	
-0.395508	
-0.39624	
-0.396484	
-0.395508	
-0.396057	
-0.395996	
-0.395996	
-0.396545	
-0.396484	
-0.395935	
-0.397888	
-0.397278	
-0.397034	
-0.396851	
-0.396851	
-0.398865	
-0.398865	
-0.391968	
-0.387024	
-0.386414	
-0.385559	
-0.385681	
-0.386414	
-0.393799	
-0.398376	
-0.399597	
-0.399109	
-0.398621	
-0.398804	
-0.398315	
-0.399841	
-0.399475	
-0.398926	
-0.398987	
-0.398499	
-0.397766	
-0.398743	
-0.398987	
-0.398499	
-0.398926	
-0.398987	
-0.398926	
-0.398804	
-0.398743	
-0.399475	
-0.400452	
-0.399597	
-0.399597	
-0.399414	
-0.399658	
-0.39917	
-0.399658	
-0.399414	
-0.398865	
-0.400757	
-0.400391	
-0.399536	
-0.399475	
-0.399292	
-0.40094	
-0.400696	
-0.399658	
-0.399475	
-0.399475	
-0.398621	
-0.398987	
-0.399353	
-0.399353	
-0.399414	
-0.401184	
-0.401367	
-0.402039	
-0.403137	
-0.403625	
-0.406799	
-0.407593	
-0.409363	
-0.411743	
-0.413513	
-0.415649	
-0.418823	
-0.42157	
-0.424316	
-0.429626	
-0.433411	
-0.438049	
-0.442932	
-0.448303	
-0.455872	
-0.460876	
-0.464905	
-0.469482	
-0.473022	
-0.476257	
-0.479553	
-0.481079	
-0.481018	
-0.48291	
-0.482178	
-0.481934	
-0.480713	
-0.480347	
-0.480591	
-0.480469	
-0.479126	
-0.478943	
-0.478088	
-0.476196	
-0.476746	
-0.475403	
-0.474426	
-0.474426	
-0.474365	
-0.475098	
-0.476868	
-0.478516	
-0.481873	
-0.486816	
-0.489197	
-0.493713	
-0.497986	
-0.50061	
-0.505188	
-0.507507	
-0.509827	
-0.511902	
-0.513367	
-0.513855	
-0.513245	
-0.512451	
-0.510376	
-0.510681	
-0.505798	
-0.502625	
-0.498779	
-0.494324	
-0.489319	
-0.483887	
-0.478088	
-0.47113	
-0.466492	
-0.45929	
-0.452515	
-0.446899	
-0.44043	
-0.435669	
-0.429626	
-0.422974	
-0.417358	
-0.412048	
-0.40564	
-0.401123	
-0.395264	
-0.389221	
-0.383057	
-0.377441	
-0.369751	
-0.363037	
-0.356689	
-0.349365	
-0.343628	
-0.335266	
-0.327454	
-0.31958	
-0.312256	
-0.305176	
-0.298279	
-0.292175	
-0.285645	
-0.280884	
-0.275269	
-0.271057	
-0.267334	
-0.264526	
-0.262817	
-0.260986	
-0.257996	
-0.25708	
-0.255676	
-0.2547	
-0.254578	
-0.254578	
-0.253906	
-0.255615	
-0.255981	
-0.257568	
-0.259888	
-0.263428	
-0.267273	
-0.271484	
-0.274597	
-0.279907	
-0.282898	
-0.28894	
-0.294617	
-0.298584	
-0.304077	
-0.309448	
-0.312561	
-0.31604	
-0.319397	
-0.322571	
-0.325195	
-0.326416	
-0.328552	
-0.328918	
-0.330811	
-0.331909	
-0.332947	
-0.333008	
-0.334717	
-0.335083	
-0.335999	
-0.337463	
-0.338989	
-0.340149	
-0.34259	
-0.343811	
-0.344666	
-0.346741	
-0.347839	
-0.350708	
-0.351563	
-0.352844	
-0.355164	
-0.355408	
-0.357361	
-0.358887	
-0.359558	
-0.36084	
-0.361206	
-0.362488	
-0.362793	
-0.364014	
-0.365112	
-0.365662	
-0.366272	
-0.367432	
-0.367981	
-0.368469	
-0.368591	
-0.369446	
-0.368713	
-0.370056	
-0.370056	
-0.370605	
-0.371399	
-0.371582	
-0.371887	
-0.372192	
-0.372009	
-0.373413	
-0.373962	
-0.373169	
-0.373657	
-0.374634	
-0.373779	
-0.375061	
-0.37439	
-0.373291	
-0.373779	
-0.374756	
-0.37439	
-0.375122	
-0.374756	
-0.375854	
-0.376282	
-0.375854	
-0.376831	
-0.376404	
-0.375977	
-0.377441	
-0.375549	
-0.376404	
-0.375488	
-0.376404	
-0.376465	
-0.377014	
-0.376831	
-0.377747	
-0.37793	
-0.377197	
-0.377747	
-0.377869	
-0.37854	
-0.378601	
-0.377075	
-0.379028	
-0.37738	
-0.37793	
-0.378052	
-0.377686	
-0.378723	
-0.378906	
-0.379089	
-0.378296	
-0.378662	
-0.378479	
-0.378723	
-0.378357	
-0.378723	
-0.378052	
-0.377502	
-0.378052	
-0.377991	
-0.378174	
-0.378235	
-0.378662	
-0.378296	
-0.378784	
-0.377991	
-0.380127	
-0.378418	
-0.379639	
-0.378906	
-0.378479	
-0.379883	
-0.379517	
-0.379944	
-0.380615	
-0.380615	
-0.381897	
-0.381226	
-0.381287	
-0.381653	
-0.379761	
-0.382629	
-0.382568	
-0.382568	
-0.382385	
-0.383545	
-0.384216	
-0.384583	
-0.384583	
-0.38501	
-0.383545	
-0.384155	
-0.384033	
-0.383667	
-0.383057	
-0.383667	
-0.38324	
-0.382996	
-0.382568	
-0.382996	
-0.383179	
-0.383118	
-0.383362	
-0.384033	
-0.383057	
-0.382446	
-0.38324	
-0.381531	
-0.381653	
-0.381714	
-0.381714	
-0.381836	
-0.382507	
-0.382324	
-0.382935	
-0.382751	
-0.383789	
-0.38385	
-0.383423	
-0.383362	
-0.383972	
-0.383484	
-0.383789	
-0.383606	
-0.383423	
-0.383484	
-0.384338	
-0.383911	
-0.384094	
-0.384216	
-0.38446	
-0.38501	
-0.38446	
-0.384583	
-0.384399	
-0.384766	
-0.385132	
-0.384827	
-0.384888	
-0.383728	
-0.385254	
-0.38446	
-0.385376	
-0.385193	
-0.386169	
-0.386719	
-0.385925	
-0.38562	
-0.386108	
-0.386292	
-0.385925	
-0.386414	
-0.386658	
-0.385925	
-0.386963	
-0.386658	
-0.386597	
-0.38678	
-0.387329	
-0.387939	
-0.387451	
-0.387329	
-0.387573	
-0.387634	
-0.386719	
-0.387024	
-0.387329	
-0.386597	
-0.387329	
-0.387512	
-0.387695	
-0.387878	
-0.388245	
-0.388977	
-0.388367	
-0.388	
-0.388	
-0.387939	
-0.386963	
-0.387817	
-0.387878	
-0.387085	
-0.388306	
-0.388489	
-0.388489	
-0.388367	
-0.38916	
-0.389465	
-0.389648	
-0.389404	
-0.389404	
-0.390503	
-0.390442	
-0.390442	
-0.389893	
-0.388855	
-0.389954	
-0.390381	
-0.390747	
-0.390564	
-0.391296	
-0.391052	
-0.390503	
-0.39032	
-0.390381	
-0.391235	
-0.391052	
-0.390808	
-0.390442	
-0.389893	
-0.389587	
-0.39093	
-0.391418	
-0.390991	
-0.391907	
-0.391968	
-0.390869	
-0.391113	
-0.391113	
-0.391968	
-0.391968	
-0.391724	
-0.391174	
-0.391418	
-0.391479	
-0.392334	
-0.392639	
-0.393433	
-0.394104	
-0.394287	
-0.394043	
-0.394653	
-0.39386	
-0.395081	
-0.394653	
-0.394775	
-0.394836	
-0.39447	
-0.394958	
-0.395081	
-0.395142	
-0.394836	
-0.394775	
-0.394897	
-0.394043	
-0.39447	
-0.394592	
-0.39386	
-0.394165	
-0.39386	
-0.393433	
-0.392822	
-0.391602	
-0.393494	
-0.393188	
-0.393188	
-0.394348	
-0.392944	
-0.393555	
-0.393127	
-0.393311	
-0.392639	
-0.3927	
-0.392517	
-0.392029	
-0.392395	
-0.390991	
-0.391968	
-0.391663	
-0.392151	
-0.391846	
-0.391785	
-0.392639	
-0.39209	
-0.392151	
-0.392639	
-0.393921	
-0.393005	
-0.393372	
-0.393188	
-0.392761	
-0.393616	
-0.393799	
-0.394226	
-0.394287	
-0.394409	
-0.395203	
-0.394775	
-0.394775	
-0.394714	
-0.395447	
-0.394592	
-0.394714	
-0.394958	
-0.394714	
-0.394043	
-0.395142	
-0.395203	
-0.395752	
-0.395691	
-0.39563	
-0.39563	
-0.395874	
-0.394531	
-0.395874	
-0.39447	
-0.394836	
-0.394775	
-0.395203	
-0.393188	
-0.395264	
-0.395325	
-0.395996	
-0.396545	
-0.395203	
-0.396729	
-0.395996	
-0.394714	
-0.396851	
-0.39563	
-0.395081	
-0.395508	
-0.394958	
-0.393799	
-0.394592	
-0.395142	
-0.395813	
-0.395996	
-0.395203	
-0.395325	
-0.395081	
-0.39386	
-0.394653	
-0.394897	
-0.394348	
-0.394287	
-0.394348	
-0.393616	
-0.394104	
-0.39447	
-0.394836	
-0.395142	
-0.394226	
-0.394775	
-0.395081	
-0.393677	
-0.395386	
-0.395996	
-0.394043	
-0.394653	
-0.394775	
-0.394409	
-0.394409	
-0.395264	
-0.395996	
-0.397095	
-0.395996	
-0.395447	
-0.396851	
-0.395752	
-0.396118	
-0.39624	
-0.395325	
-0.394348	
-0.395447	
-0.394958	
-0.394836	
-0.396118	
-0.396423	
-0.396912	
-0.396667	
-0.396423	
-0.396851	
-0.396606	
-0.39624	
-0.397156	
-0.396484	
-0.394653	
-0.396118	
-0.395569	
-0.396301	
-0.396301	
-0.396667	
-0.39679	
-0.397339	
-0.397522	
-0.397217	
-0.398682	
-0.396667	
-0.398987	
-0.397888	
-0.397461	
-0.398132	
-0.397583	
-0.398376	
-0.397461	
-0.398315	
-0.39856	
-0.399719	
-0.398682	
-0.398376	
-0.399658	
-0.398071	
-0.39856	
-0.397888	
-0.397888	
-0.397278	
-0.397339	
-0.397278	
-0.397278	
-0.397278	
-0.3974	
-0.397339	
-0.397644	
-0.396667	
-0.396545	
-0.396545	
-0.395264	
-0.395447	
-0.394531	
-0.393066	
-0.394836	
-0.394531	
-0.395691	
-0.394653	
-0.395935	
-0.396423	
-0.397827	
-0.396729	
-0.397278	
-0.398438	
-0.397034	
-0.398315	
-0.397644	
-0.397278	
-0.397522	
-0.398254	
-0.398071	
-0.397766	
-0.398987	
-0.399475	
-0.399841	
-0.39978	
-0.399536	
-0.400879	
-0.398987	
-0.399475	
-0.399536	
-0.398865	
-0.39856	
-0.398987	
-0.39801	
-0.398804	
-0.399109	
-0.398926	
-0.399353	
-0.39978	
-0.399231	
-0.399353	
-0.399109	
-0.398743	
-0.400146	
-0.398926	
-0.398254	
-0.399048	
-0.398621	
-0.399292	
-0.398621	
-0.399841	
-0.399841	
-0.400574	
-0.400696	
-0.40033	
-0.401245	
-0.399963	
-0.399231	
-0.399597	
-0.399536	
-0.39978	
-0.399353	
-0.399292	
-0.399048	
-0.399231	
-0.399353	
-0.399353	
-0.399841	
-0.399475	
-0.400269	
-0.398254	
-0.398071	
-0.399292	
-0.398376	
-0.398804	
-0.399292	
-0.398315	
-0.399231	
-0.397705	
-0.39917	
-0.399353	
-0.399719	
-0.399841	
-0.400146	
-0.399475	
-0.399597	
-0.398987	
-0.399841	
-0.399048	
-0.400208	
-0.399536	
-0.399353	
-0.39856	
-0.399963	
-0.400208	
-0.400146	
-0.400574	
-0.400024	
-0.399841	
-0.39856	
-0.398804	
-0.399597	
-0.398682	
-0.399048	
-0.398621	
-0.398132	
-0.398132	
-0.39801	
-0.39801	
-0.397705	
-0.397888	
-0.398438	
-0.398438	
-0.398193	
-0.398071	
-0.3974	
-0.397644	
-0.397217	
-0.398132	
-0.398071	
-0.398071	
-0.397034	
-0.398071	
-0.398315	
-0.398193	
-0.398926	
-0.398926	
-0.399292	
-0.397827	
-0.398438	
-0.398804	
-0.399109	
-0.398315	
-0.398682	
-0.397827	
-0.397827	
-0.397888	
-0.397705	
-0.397644	
-0.397766	
-0.398193	
-0.397339	
-0.397339	
-0.396606	
-0.395752	
-0.395081	
-0.394775	
-0.395264	
-0.39563	
-0.395142	
-0.39386	
-0.394836	
-0.394775	
-0.394592	
-0.39563	
-0.396179	
-0.396179	
-0.395569	
-0.395752	
-0.39502	
-0.396179	
-0.396179	
-0.396179	
-0.395508	
-0.396057	
-0.396545	
-0.396484	
-0.397095	
-0.397217	
-0.398376	
-0.397339	
-0.397827	
-0.397522	
-0.397583	
-0.397034	
-0.396545	
-0.397461	
-0.397888	
-0.398071	
-0.396973	
-0.398071	
-0.398926	
-0.398865	
-0.398987	
-0.399719	
-0.399963	
-0.399414	
-0.399048	
-0.397888	
-0.399231	
-0.398682	
-0.398132	
-0.398071	
-0.397095	
-0.397644	
-0.397278	
-0.3974	
-0.397339	
-0.397766	
-0.396729	
-0.396667	
-0.396545	
-0.396301	
-0.395935	
-0.395752	
-0.39624	
-0.395142	
-0.395752	
-0.394226	
-0.396118	
-0.395691	
-0.395935	
-0.39563	
-0.396667	
-0.396484	
-0.395691	
-0.396484	
-0.394714	
-0.396606	
-0.395996	
-0.395325	
-0.396057	
-0.395569	
-0.395752	
-0.396057	
-0.396301	
-0.396057	
-0.396851	
-0.396362	
-0.396179	
-0.396301	
-0.395813	
-0.395752	
-0.395935	
-0.396301	
-0.395203	
-0.396484	
-0.395752	
-0.396606	
-0.396606	
-0.396973	
-0.397278	
-0.398743	
-0.398071	
-0.397278	
-0.397644	
-0.395874	
-0.397034	
-0.397644	
-0.397827	
-0.397949	
-0.397461	
-0.397583	
-0.398315	
-0.398438	
-0.398071	
-0.398682	
-0.398438	
-0.397583	
-0.397644	
-0.397156	
-0.396729	
-0.397766	
-0.396912	
-0.395813	
-0.396057	
-0.395447	
-0.396484	
-0.39679	
-0.396667	
-0.397156	
-0.39856	
-0.39624	
-0.396179	
-0.396606	
-0.394836	
-0.395325	
-0.39624	
-0.395508	
-0.395447	
-0.395874	
-0.396118	
-0.395813	
-0.395935	
-0.395691	
-0.396912	
-0.397522	
-0.395874	
-0.396301	
-0.395996	
-0.394348	
-0.396729	
-0.395752	
-0.394714	
-0.395386	
-0.394958	
-0.395569	
-0.39563	
-0.394958	
-0.395508	
-0.396729	
-0.394714	
-0.394531	
-0.39502	
-0.392578	
-0.393738	
-0.393677	
-0.394043	
-0.393433	
-0.393433	
-0.393433	
-0.393616	
-0.393433	
-0.393494	
-0.394653	
-0.395508	
-0.393799	
-0.394165	
-0.393372	
-0.392578	
-0.394836	
-0.39386	
-0.393555	
-0.393982	
-0.393616	
-0.394226	
-0.394714	
-0.394287	
-0.394897	
-0.396484	
-0.395569	
-0.395996	
-0.39679	
-0.395447	
-0.395752	
-0.397461	
-0.395996	
-0.396484	
-0.396179	
-0.395264	
-0.395813	
-0.395447	
-0.39563	
-0.395996	
-0.396973	
-0.395264	
-0.394714	
-0.394104	
-0.394165	
-0.394897	
-0.39386	
-0.393555	
-0.393799	
-0.392944	
-0.392273	
-0.392822	
-0.392029	
-0.392578	
-0.392822	
-0.39325	
-0.392578	
-0.392456	
-0.391785	
-0.390747	
-0.393372	
-0.391846	
-0.392517	
-0.392151	
-0.392517	
-0.392761	
-0.392517	
-0.392517	
-0.393494	
-0.393982	
-0.392517	
-0.392761	
-0.391235	
-0.391602	
-0.391968	
-0.391907	
-0.391663	
-0.392029	
-0.391602	
-0.390869	
-0.391724	
-0.391968	
-0.39209	
-0.392212	
-0.393127	
-0.392456	
-0.391663	
-0.391296	
-0.389648	
-0.392334	
-0.391174	
-0.39209	
-0.39209	
-0.392517	
-0.392395	
-0.391785	
-0.392944	
-0.393982	
-0.394714	
-0.3927	
-0.393127	
-0.391541	
-0.392334	
-0.392334	
-0.392517	
-0.392822	
-0.392639	
-0.392334	
-0.391846	
-0.392334	
-0.392212	
-0.392883	
-0.392883	
-0.393494	
-0.392456	
-0.392578	
-0.392029	
-0.391418	
-0.393188	
-0.391479	
-0.392029	
-0.391907	
-0.391724	
-0.391785	
-0.391541	
-0.392273	
-0.393066	
-0.393555	
-0.392395	
-0.392273	
-0.391602	
-0.392029	
-0.392578	
-0.393066	
-0.392883	
-0.392883	
-0.393372	
-0.393005	
-0.393127	
-0.393066	
-0.393555	
-0.393555	
-0.394592	
-0.393494	
-0.393494	
-0.3927	
-0.392517	
-0.393311	
-0.392639	
-0.393127	
-0.393066	
-0.393005	
-0.391785	
-0.392761	
-0.392944	
-0.394287	
-0.394104	
-0.393616	
-0.393555	
-0.392822	
-0.392822	
-0.391907	
-0.392761	
-0.39325	
-0.393494	
-0.39325	
-0.393188	
-0.39386	
-0.39386	
-0.39447	
-0.394775	
-0.395813	
-0.394531	
-0.394714	
-0.393799	
-0.393799	
-0.395203	
-0.39502	
-0.395813	
-0.395813	
-0.395874	
-0.395142	
-0.395752	
-0.396301	
-0.396667	
-0.39624	
-0.395813	
-0.395691	
-0.394653	
-0.394287	
-0.393494	
-0.394897	
-0.394653	
-0.394531	
-0.39502	
-0.394226	
-0.393372	
-0.394409	
-0.394409	
-0.394165	
-0.394897	
-0.393799	
-0.393127	
-0.392456	
-0.392456	
-0.392273	
-0.392761	
-0.393066	
-0.392517	
-0.392273	
-0.392151	
-0.392151	
-0.391907	
-0.392822	
-0.392517	
-0.392212	
-0.392212	
-0.39093	
-0.391479	
-0.391235	
-0.39209	
-0.393066	
-0.392822	
-0.393005	
-0.392822	
-0.392273	
-0.393494	
-0.393799	
-0.393982	
-0.394958	
-0.393982	
-0.39447	
-0.393066	
-0.393738	
-0.393311	
-0.393921	
-0.394287	
-0.394409	
-0.394653	
-0.393738	
-0.39386	
-0.394348	
-0.395508	
-0.394958	
-0.395325	
-0.395081	
-0.393799	
-0.394531	
-0.392944	
-0.39447	
-0.395325	
-0.394653	
-0.394226	
-0.393555	
-0.393066	
-0.394043	
-0.395142	
-0.394836	
-0.395142	
-0.394592	
-0.394409	
-0.394287	
-0.393921	
-0.393372	
-0.393433	
-0.39447	
-0.394226	
-0.393555	
-0.392944	
-0.392883	
-0.394287	
-0.394531	
-0.393921	
-0.394836	
-0.393494	
-0.392944	
-0.393188	
-0.391541	
-0.392395	
-0.393677	
-0.392578	
-0.392334	
-0.392395	
-0.392761	
-0.393188	
-0.393555	
-0.392944	
-0.393494	
-0.393738	
-0.391785	
-0.393311	
-0.392883	
-0.392883	
-0.392334	
-0.393555	
-0.39325	
-0.393372	
-0.393127	
-0.392517	
-0.394714	
-0.393738	
-0.394043	
-0.394714	
-0.39502	
-0.393799	
-0.393738	
-0.392761	
-0.392029	
-0.394958	
-0.394226	
-0.394165	
-0.394043	
-0.394165	
-0.394836	
-0.394836	
-0.394775	
-0.394775	
-0.394531	
-0.392761	
-0.394226	
-0.393127	
-0.393066	
-0.393616	
-0.395386	
-0.394043	
-0.394104	
-0.394226	
-0.393555	
-0.395325	
-0.394897	
-0.395203	
-0.396118	
-0.396179	
-0.395752	
-0.395264	
-0.394592	
-0.395081	
-0.396179	
-0.395813	
-0.395813	
-0.39624	
-0.395996	
-0.395752	
-0.395935	
-0.395874	
-0.39679	
-0.396545	
-0.395203	
-0.395447	
-0.395081	
-0.393921	
-0.394409	
-0.396484	
-0.395264	
-0.394836	
-0.395325	
-0.394531	
-0.395203	
-0.394653	
-0.394226	
-0.394409	
-0.393799	
-0.392822	
-0.392639	
-0.391907	
-0.391846	
-0.392944	
-0.393127	
-0.392517	
-0.39325	
-0.393311	
-0.392883	
-0.394287	
-0.394348	
-0.394409	
-0.395447	
-0.394775	
-0.394775	
-0.394836	
-0.393799	
-0.39447	
-0.395996	
-0.395508	
-0.395264	
-0.395996	
-0.39679	
-0.397034	
-0.396423	
-0.396667	
-0.396973	
-0.396912	
-0.397217	
-0.395691	
-0.395691	
-0.395569	
-0.396729	
-0.396851	
-0.395874	
-0.39624	
-0.396423	
-0.396118	
-0.397095	
-0.396118	
-0.396912	
-0.397156	
-0.396423	
-0.396973	
-0.396179	
-0.395691	
-0.395203	
-0.396545	
-0.396362	
-0.39679	
-0.397217	
-0.397156	
-0.397217	
-0.397217	
-0.3974	
-0.397522	
-0.397888	
-0.396484	
-0.396912	
-0.396545	
-0.395752	
-0.396851	
-0.396301	
-0.396423	
-0.396545	
-0.396606	
-0.395935	
-0.396606	
-0.396057	
-0.395874	
-0.396545	
-0.396301	
-0.39563	
-0.395569	
-0.395935	
-0.395508	
-0.395996	
-0.395996	
-0.395935	
-0.396301	
-0.39679	
-0.395264	
-0.397522	
-0.396973	
-0.396851	
-0.397766	
-0.396606	
-0.396912	
-0.39624	
-0.395447	
-0.396912	
-0.395752	
-0.396729	
-0.396912	
-0.397034	
-0.396667	
-0.396179	
-0.396851	
-0.396057	
-0.396606	
-0.396057	
-0.39563	
-0.395691	
-0.395386	
-0.395447	
-0.395264	
-0.395142	
-0.394897	
-0.394958	
-0.394897	
-0.394165	
-0.395325	
-0.394714	
-0.394592	
-0.395142	
-0.394592	
-0.395386	
-0.394775	
-0.393982	
-0.394348	
-0.394958	
-0.394958	
-0.395081	
-0.395264	
-0.394531	
-0.394165	
-0.395569	
-0.394897	
-0.395203	
-0.395325	
-0.394714	
-0.394958	
-0.394958	
-0.394714	
-0.394958	
-0.394287	
-0.394531	
-0.39447	
-0.394165	
-0.393372	
-0.393799	
-0.39386	
-0.393677	
-0.393982	
-0.393066	
-0.392029	
-0.392273	
-0.391785	
-0.390625	
-0.391541	
-0.391602	
-0.391479	
-0.391357	
-0.39093	
-0.390198	
-0.391785	
-0.391907	
-0.392639	
-0.392761	
-0.391846	
-0.3927	
-0.392517	
-0.392273	
-0.39209	
-0.392761	
-0.392883	
-0.393188	
-0.393433	
-0.393005	
-0.393066	
-0.394531	
-0.394287	
-0.394592	
-0.394043	
-0.39386	
-0.394104	
-0.393799	
-0.393433	
-0.394531	
-0.394714	
-0.394958	
-0.395081	
-0.394531	
-0.394409	
-0.39563	
-0.395325	
-0.395996	
-0.396301	
-0.395142	
-0.394592	
-0.394653	
-0.393372	
-0.393982	
-0.393799	
-0.393982	
-0.393738	
-0.393311	
-0.392822	
-0.392029	
-0.393555	
-0.393311	
-0.393738	
-0.392944	
-0.392761	
-0.392578	
-0.392395	
-0.391663	
-0.392334	
-0.392273	
-0.392151	
-0.392029	
-0.391907	
-0.391846	
-0.391785	
-0.392578	
-0.392456	
-0.392761	
-0.392334	
-0.392212	
-0.392212	
-0.390808	
-0.39209	
-0.3927	
-0.392212	
-0.392029	
-0.39209	
-0.392029	
-0.391479	
-0.392517	
-0.3927	
-0.392883	
-0.392395	
-0.391907	
-0.391724	
-0.392334	
-0.391846	
-0.392761	
-0.392639	
-0.392639	
-0.392944	
-0.393127	
-0.39325	
-0.392151	
-0.39386	
-0.393433	
-0.393921	
-0.393372	
-0.393494	
-0.393921	
-0.393005	
-0.393066	
-0.394287	
-0.394409	
-0.394287	
-0.394104	
-0.394165	
-0.393372	
-0.393921	
-0.394592	
-0.394165	
-0.394165	
-0.393372	
-0.392822	
-0.392395	
-0.391235	
-0.392639	
-0.393005	
-0.392517	
-0.392334	
-0.392456	
-0.392029	
-0.391724	
-0.392761	
-0.392761	
-0.393311	
-0.392883	
-0.391602	
-0.390869	
-0.391235	
-0.390747	
-0.391907	
-0.392273	
-0.391479	
-0.391663	
-0.391602	
-0.391296	
-0.39093	
-0.392212	
-0.39209	
-0.393311	
-0.391846	
-0.39209	
-0.391235	
-0.389954	
-0.391602	
-0.391846	
-0.39209	
-0.391052	
-0.391052	
-0.390991	
-0.390625	
-0.390869	
-0.39093	
-0.391663	
-0.390076	
-0.389648	
-0.390015	
-0.389893	
-0.388367	
-0.389404	
-0.389526	
-0.389099	
-0.389221	
-0.389282	
-0.389343	
-0.388733	
-0.389648	
-0.390442	
-0.390869	
-0.389832	
-0.390015	
-0.389709	
-0.389221	
-0.389893	
-0.390198	
-0.390381	
-0.388855	
-0.390137	
-0.390564	
-0.391357	
-0.39093	
-0.39209	
-0.393555	
-0.393433	
-0.392822	
-0.392578	
-0.391174	
-0.390747	
-0.391968	
-0.391663	
-0.391846	
-0.390564	
-0.390747	
-0.391296	
-0.390503	
-0.39032	
-0.391052	
-0.391052	
-0.390015	
-0.389954	
-0.389648	
-0.390015	
-0.388977	
-0.38916	
-0.388855	
-0.387695	
-0.387451	
-0.387756	
-0.388062	
-0.387024	
-0.388245	
-0.389526	
-0.389526	
-0.388733	
-0.388245	
-0.387939	
-0.388367	
-0.388428	
-0.388611	
-0.388611	
-0.387573	
-0.388367	
-0.388611	
-0.388245	
-0.387146	
-0.388733	
-0.388672	
-0.388367	
-0.387573	
-0.387024	
-0.386658	
-0.386963	
-0.388123	
-0.388184	
-0.388184	
-0.386597	
-0.388	
-0.387451	
-0.387207	
-0.387878	
-0.388184	
-0.389099	
-0.38739	
-0.387634	
-0.387939	
-0.388184	
-0.387817	
-0.387695	
-0.387756	
-0.388611	
-0.388733	
-0.388794	
-0.388062	
-0.387939	
-0.388428	
-0.389343	
-0.389587	
-0.388123	
-0.388062	
-0.387878	
-0.387451	
-0.388367	
-0.388367	
-0.388855	
-0.387634	
-0.388184	
-0.388123	
-0.387939	
-0.388062	
-0.388672	
-0.390442	
-0.388367	
-0.388123	
-0.387878	
-0.386902	
-0.388123	
-0.387756	
-0.387329	
-0.388062	
-0.387268	
-0.388245	
-0.388062	
-0.38739	
-0.387939	
-0.389282	
-0.389771	
-0.388123	
-0.388	
-0.387878	
-0.387146	
-0.38855	
-0.389099	
-0.389587	
-0.38916	
-0.388611	
-0.389282	
-0.38916	
-0.388	
-0.389343	
-0.391174	
-0.38916	
-0.388672	
-0.388672	
-0.388306	
-0.390015	
-0.388855	
-0.388977	
-0.389099	
-0.388367	
-0.389099	
-0.388367	
-0.388489	
-0.388855	
-0.389526	
-0.390503	
-0.388062	
-0.388611	
-0.388428	
-0.387634	
-0.389404	
-0.389038	
-0.389587	
-0.39032	
-0.388977	
-0.389954	
-0.39032	
-0.390015	
-0.39093	
-0.391541	
-0.391052	
-0.391479	
-0.391174	
-0.390991	
-0.390015	
-0.391663	
-0.391724	
-0.391785	
-0.391846	
-0.39093	
-0.391113	
	
