E:\DOCUMENTS AND SETTINGS\JPOTAS\MEUS DOCUMENTOS\UFRJ\RSCI-BM 12 WK SERIES\070720-RSCI-BM-04\RSCI-BM-04-LEMG\070720-RSCI-BM-LEMG-0000.ACQ
0.025000 msec/sample
1 channel
Analog input
Volts
CH1	
2000	
-0.394958	
-0.39502	
-0.393921	
-0.392639	
-0.394714	
-0.394958	
-0.395752	
-0.394104	
-0.394897	
-0.394714	
-0.395386	
-0.396545	
-0.394836	
-0.394348	
-0.392578	
-0.395508	
-0.394897	
-0.394714	
-0.394897	
-0.394897	
-0.394714	
-0.394104	
-0.395447	
-0.395203	
-0.394775	
-0.394897	
-0.39325	
-0.39447	
-0.394775	
-0.394592	
-0.393616	
-0.395142	
-0.395081	
-0.394348	
-0.395874	
-0.394165	
-0.394409	
-0.393188	
-0.394714	
-0.394653	
-0.394226	
-0.394409	
-0.393677	
-0.393127	
-0.393066	
-0.394043	
-0.394958	
-0.394043	
-0.393677	
-0.392029	
-0.394043	
-0.393921	
-0.393921	
-0.393311	
-0.394653	
-0.394226	
-0.393982	
-0.395996	
-0.394043	
-0.394287	
-0.394287	
-0.393005	
-0.39502	
-0.395142	
-0.395325	
-0.395203	
-0.394714	
-0.394287	
-0.394775	
-0.396301	
-0.394653	
-0.394592	
-0.393616	
-0.392944	
-0.392761	
-0.3927	
-0.391968	
-0.392212	
-0.393005	
-0.392517	
-0.39325	
-0.394043	
-0.393433	
-0.392212	
-0.391174	
-0.392212	
-0.392395	
-0.392883	
-0.391785	
-0.391479	
-0.391357	
-0.391479	
-0.392578	
-0.392395	
-0.391907	
-0.391357	
-0.390869	
-0.391418	
-0.391235	
-0.390869	
-0.391602	
-0.391235	
-0.390686	
-0.391418	
-0.392334	
-0.391479	
-0.391479	
-0.391052	
-0.390686	
-0.392212	
-0.392883	
-0.392456	
-0.393188	
-0.392456	
-0.392883	
-0.393799	
-0.394592	
-0.393494	
-0.393372	
-0.39325	
-0.393677	
-0.393982	
-0.394165	
-0.393677	
-0.393616	
-0.393188	
-0.393799	
-0.394958	
-0.39386	
-0.393066	
-0.393677	
-0.392761	
-0.393372	
-0.393494	
-0.392639	
-0.393738	
-0.393005	
-0.393311	
-0.393982	
-0.394043	
-0.393188	
-0.393494	
-0.393005	
-0.392273	
-0.393372	
-0.39386	
-0.392944	
-0.393005	
-0.392456	
-0.393127	
-0.393616	
-0.394714	
-0.392456	
-0.391724	
-0.391907	
-0.391479	
-0.392944	
-0.391418	
-0.391479	
-0.391663	
-0.391907	
-0.391602	
-0.392029	
-0.391052	
-0.391174	
-0.391235	
-0.389282	
-0.391968	
-0.392151	
-0.390503	
-0.391968	
-0.391357	
-0.392395	
-0.392395	
-0.393005	
-0.391785	
-0.392761	
-0.392212	
-0.392151	
-0.3927	
-0.392273	
-0.3927	
-0.39209	
-0.3927	
-0.392944	
-0.393677	
-0.39325	
-0.392639	
-0.392822	
-0.393188	
-0.394226	
-0.393555	
-0.392944	
-0.3927	
-0.391724	
-0.393433	
-0.393921	
-0.362732	
-0.36554	
-0.374573	
-0.376587	
-0.378113	
-0.379333	
-0.419617	
-0.40448	
-0.398193	
-0.395386	
-0.39447	
-0.39563	
-0.394226	
-0.394165	
-0.393555	
-0.393921	
-0.394531	
-0.394226	
-0.394104	
-0.393616	
-0.394104	
-0.394775	
-0.395203	
-0.395813	
-0.394775	
-0.393616	
-0.392395	
-0.395508	
-0.394043	
-0.395264	
-0.394714	
-0.394531	
-0.394226	
-0.394775	
-0.395996	
-0.39502	
-0.39447	
-0.394409	
-0.394287	
-0.394714	
-0.39447	
-0.394165	
-0.393616	
-0.394104	
-0.393738	
-0.39447	
-0.395081	
-0.394043	
-0.393127	
-0.391052	
-0.393555	
-0.392151	
-0.393066	
-0.392639	
-0.393066	
-0.393738	
-0.394836	
-0.397522	
-0.398987	
-0.401733	
-0.406128	
-0.409668	
-0.414185	
-0.417358	
-0.420471	
-0.422668	
-0.426514	
-0.43103	
-0.436279	
-0.441162	
-0.445496	
-0.448486	
-0.451233	
-0.454102	
-0.455017	
-0.454468	
-0.453735	
-0.454041	
-0.452576	
-0.452759	
-0.452026	
-0.448669	
-0.446472	
-0.444214	
-0.44397	
-0.442322	
-0.441406	
-0.438049	
-0.436157	
-0.433716	
-0.432983	
-0.431824	
-0.429077	
-0.425354	
-0.422546	
-0.421326	
-0.420288	
-0.4198	
-0.419128	
-0.417908	
-0.419739	
-0.420593	
-0.423157	
-0.424988	
-0.426758	
-0.43042	
-0.4328	
-0.437622	
-0.441406	
-0.445679	
-0.447937	
-0.451111	
-0.452637	
-0.454224	
-0.456299	
-0.456116	
-0.454773	
-0.45282	
-0.451172	
-0.448853	
-0.446655	
-0.443176	
-0.439087	
-0.43634	
-0.432678	
-0.431519	
-0.428101	
-0.425171	
-0.423462	
-0.420593	
-0.420593	
-0.4198	
-0.420837	
-0.419006	
-0.419128	
-0.418457	
-0.419189	
-0.420654	
-0.419922	
-0.417664	
-0.416016	
-0.415771	
-0.413269	
-0.410645	
-0.407288	
-0.402649	
-0.39856	
-0.393555	
-0.390808	
-0.38501	
-0.379211	
-0.373596	
-0.366577	
-0.361572	
-0.35376	
-0.346741	
-0.337463	
-0.329224	
-0.321045	
-0.312744	
-0.305481	
-0.295959	
-0.287048	
-0.278259	
-0.268982	
-0.259949	
-0.252441	
-0.244263	
-0.235962	
-0.230042	
-0.22467	
-0.221619	
-0.219177	
-0.218201	
-0.216858	
-0.217346	
-0.220276	
-0.224121	
-0.228516	
-0.231445	
-0.236572	
-0.241028	
-0.248108	
-0.253235	
-0.259033	
-0.265442	
-0.27063	
-0.277527	
-0.284912	
-0.289795	
-0.294434	
-0.301514	
-0.307068	
-0.312805	
-0.317322	
-0.321716	
-0.324463	
-0.328552	
-0.333069	
-0.336487	
-0.338989	
-0.341797	
-0.344482	
-0.346863	
-0.348877	
-0.351074	
-0.352234	
-0.353577	
-0.355835	
-0.357605	
-0.359924	
-0.360535	
-0.361023	
-0.361511	
-0.362976	
-0.364624	
-0.36554	
-0.365356	
-0.36554	
-0.367188	
-0.368042	
-0.369507	
-0.369385	
-0.369263	
-0.370483	
-0.371399	
-0.372437	
-0.373047	
-0.372437	
-0.372009	
-0.373779	
-0.374207	
-0.375305	
-0.374878	
-0.375061	
-0.375366	
-0.375671	
-0.376526	
-0.37677	
-0.375671	
-0.375061	
-0.375488	
-0.375854	
-0.376343	
-0.375366	
-0.374634	
-0.374939	
-0.374817	
-0.375305	
-0.375183	
-0.374512	
-0.373596	
-0.373291	
-0.375061	
-0.375183	
-0.37439	
-0.373291	
-0.373901	
-0.374207	
-0.375	
-0.375549	
-0.373657	
-0.373596	
-0.373413	
-0.374634	
-0.374268	
-0.373779	
-0.372925	
-0.373352	
-0.372131	
-0.373413	
-0.373779	
-0.374207	
-0.372986	
-0.372253	
-0.372803	
-0.374023	
-0.373718	
-0.372498	
-0.372681	
-0.372131	
-0.371948	
-0.371399	
-0.372375	
-0.370789	
-0.370178	
-0.370667	
-0.370972	
-0.372009	
-0.372009	
-0.372131	
-0.372009	
-0.372803	
-0.373474	
-0.375977	
-0.374146	
-0.374634	
-0.375793	
-0.376282	
-0.377319	
-0.376526	
-0.37738	
-0.376892	
-0.378845	
-0.378967	
-0.380981	
-0.379333	
-0.379456	
-0.379761	
-0.380615	
-0.381104	
-0.380432	
-0.380615	
-0.3797	
-0.382202	
-0.382019	
-0.383484	
-0.381287	
-0.381897	
-0.382568	
-0.383667	
-0.383667	
-0.383362	
-0.384155	
-0.38385	
-0.383179	
-0.383911	
-0.385376	
-0.38324	
-0.384705	
-0.38501	
-0.385437	
-0.384888	
-0.385559	
-0.385742	
-0.386414	
-0.386108	
-0.38623	
-0.387085	
-0.385498	
-0.386414	
-0.38623	
-0.387024	
-0.386963	
-0.386475	
-0.386902	
-0.387146	
-0.386902	
-0.386902	
-0.387817	
-0.387085	
-0.38739	
-0.388	
-0.387634	
-0.386719	
-0.386719	
-0.387207	
-0.388123	
-0.388	
-0.388062	
-0.388428	
-0.388	
-0.388428	
-0.389099	
-0.387085	
-0.388733	
-0.388611	
-0.38855	
-0.388977	
-0.389282	
-0.389343	
-0.389648	
-0.391235	
-0.390442	
-0.391052	
-0.390259	
-0.390869	
-0.390869	
-0.390442	
-0.390442	
-0.390991	
-0.391174	
-0.391602	
-0.393005	
-0.392517	
-0.3927	
-0.392456	
-0.393188	
-0.392883	
-0.39325	
-0.393188	
-0.392822	
-0.392944	
-0.392273	
-0.392029	
-0.391907	
-0.39209	
-0.391357	
-0.390259	
-0.390137	
-0.389954	
-0.390503	
-0.39032	
-0.390442	
-0.391113	
-0.390991	
-0.391113	
-0.390869	
-0.390869	
-0.390442	
-0.390747	
-0.391174	
-0.390564	
-0.390625	
-0.391296	
-0.390869	
-0.390869	
-0.391846	
-0.391663	
-0.391235	
-0.391052	
-0.391602	
-0.391541	
-0.391479	
-0.391418	
-0.391907	
-0.391663	
-0.392029	
-0.392761	
-0.392151	
-0.391479	
-0.391418	
-0.392151	
-0.392517	
-0.392395	
-0.392212	
-0.39209	
-0.391724	
-0.392517	
-0.393677	
-0.393799	
-0.393738	
-0.393188	
-0.393616	
-0.394104	
-0.394836	
-0.394531	
-0.394348	
-0.394287	
-0.394836	
-0.396912	
-0.395935	
-0.395081	
-0.395203	
-0.39502	
-0.396118	
-0.395874	
-0.395386	
-0.395569	
-0.395691	
-0.395813	
-0.396057	
-0.395569	
-0.394958	
-0.395081	
-0.392944	
-0.394836	
-0.395142	
-0.395203	
-0.395325	
-0.394409	
-0.394226	
-0.395996	
-0.39563	
-0.394775	
-0.394714	
-0.392822	
-0.394653	
-0.394714	
-0.396179	
-0.395691	
-0.394836	
-0.394592	
-0.395935	
-0.396729	
-0.394958	
-0.394775	
-0.392883	
-0.395447	
-0.394958	
-0.394653	
-0.395081	
-0.395569	
-0.395325	
-0.395569	
-0.397034	
-0.395325	
-0.395203	
-0.395691	
-0.395447	
-0.395569	
-0.39563	
-0.395325	
-0.394775	
-0.394958	
-0.395325	
-0.396484	
-0.395569	
-0.394897	
-0.395203	
-0.393066	
-0.394653	
-0.394714	
-0.396057	
-0.394836	
-0.394897	
-0.394348	
-0.394897	
-0.395813	
-0.394775	
-0.395508	
-0.394836	
-0.395752	
-0.395325	
-0.39563	
-0.395691	
-0.395569	
-0.395874	
-0.396301	
-0.396729	
-0.396118	
-0.396667	
-0.39502	
-0.394348	
-0.396423	
-0.395569	
-0.396484	
-0.396545	
-0.396423	
-0.395508	
-0.396606	
-0.396545	
-0.395081	
-0.394226	
-0.393921	
-0.394226	
-0.393982	
-0.395203	
-0.394348	
-0.394043	
-0.394958	
-0.395447	
-0.395325	
-0.394775	
-0.39502	
-0.393311	
-0.393188	
-0.39325	
-0.393921	
-0.393738	
-0.393188	
-0.393555	
-0.393921	
-0.393738	
-0.393494	
-0.393494	
-0.393005	
-0.392151	
-0.392761	
-0.393494	
-0.393799	
-0.392822	
-0.3927	
-0.393066	
-0.393433	
-0.394348	
-0.393372	
-0.393066	
-0.393188	
-0.393494	
-0.394653	
-0.395691	
-0.39502	
-0.395142	
-0.395691	
-0.395142	
-0.396729	
-0.39563	
-0.39447	
-0.394836	
-0.394409	
-0.394958	
-0.395752	
-0.396179	
-0.395935	
-0.395996	
-0.395935	
-0.396362	
-0.396484	
-0.39624	
-0.395508	
-0.394775	
-0.39502	
-0.395935	
-0.395935	
-0.39563	
-0.395691	
-0.396545	
-0.396057	
-0.395813	
-0.396484	
-0.395142	
-0.395081	
-0.394897	
-0.395386	
-0.395874	
-0.396057	
-0.395569	
-0.395325	
-0.395447	
-0.395813	
-0.395691	
-0.393616	
-0.393555	
-0.393982	
-0.393372	
-0.393616	
-0.394653	
-0.394531	
-0.394165	
-0.39386	
-0.394043	
-0.394043	
-0.39386	
-0.394104	
-0.393311	
-0.392517	
-0.394348	
-0.394226	
-0.395081	
-0.394775	
-0.394409	
-0.393738	
-0.393982	
-0.396118	
-0.393616	
-0.393677	
-0.394409	
-0.394958	
-0.395386	
-0.395508	
-0.395569	
-0.395569	
-0.39624	
-0.395142	
-0.395813	
-0.395447	
-0.394714	
-0.395447	
-0.395325	
-0.395874	
-0.395935	
-0.396729	
-0.396057	
-0.396545	
-0.396729	
-0.39624	
-0.395935	
-0.395386	
-0.396179	
-0.394714	
-0.396301	
-0.396179	
-0.396484	
-0.39679	
-0.396301	
-0.396973	
-0.395508	
-0.397705	
-0.395386	
-0.396362	
-0.396057	
-0.396301	
-0.396606	
-0.396912	
-0.397705	
-0.3974	
-0.398071	
-0.397278	
-0.398743	
-0.397705	
-0.395691	
-0.397278	
-0.396423	
-0.397766	
-0.397766	
-0.397766	
-0.397339	
-0.397766	
-0.398804	
-0.397034	
-0.398438	
-0.39679	
-0.396545	
-0.396606	
-0.396423	
-0.39624	
-0.396729	
-0.397095	
-0.396118	
-0.397034	
-0.396057	
-0.397156	
-0.395447	
-0.395691	
-0.394958	
-0.395813	
-0.395691	
-0.395752	
-0.395447	
-0.395142	
-0.395813	
-0.395386	
-0.395081	
-0.395752	
-0.393433	
-0.395813	
-0.395691	
-0.396912	
-0.397095	
-0.397766	
-0.398865	
-0.398804	
-0.400146	
-0.398926	
-0.399719	
-0.398132	
-0.398438	
-0.397827	
-0.399414	
-0.398987	
-0.399048	
-0.399658	
-0.399475	
-0.400024	
-0.399475	
-0.398926	
-0.398743	
-0.398315	
-0.399048	
-0.39917	
-0.399292	
-0.399292	
-0.39917	
-0.400452	
-0.399841	
-0.400452	
-0.398804	
-0.399231	
-0.397339	
-0.399414	
-0.399292	
-0.399963	
-0.399597	
-0.399719	
-0.399658	
-0.400208	
-0.400269	
-0.399353	
-0.39978	
-0.39856	
-0.399292	
-0.398987	
-0.399231	
-0.399109	
-0.399353	
-0.399475	
-0.399963	
-0.399414	
-0.398987	
-0.398804	
-0.398987	
-0.397583	
-0.397827	
-0.397522	
-0.398315	
-0.398071	
-0.397888	
-0.398315	
-0.398499	
-0.398804	
-0.39801	
-0.397949	
-0.396973	
-0.398499	
-0.397461	
-0.398071	
-0.398987	
-0.398926	
-0.398621	
-0.399475	
-0.399353	
-0.399231	
-0.399963	
-0.397827	
-0.397827	
-0.39856	
-0.398499	
-0.398865	
-0.399109	
-0.399231	
-0.399414	
-0.399597	
-0.399658	
-0.399841	
-0.398926	
-0.398682	
-0.398438	
-0.397888	
-0.39917	
-0.399048	
-0.399231	
-0.399414	
-0.400391	
-0.39978	
-0.398621	
-0.399353	
-0.39856	
-0.398438	
-0.398926	
-0.398743	
-0.39917	
-0.398621	
-0.399109	
-0.399536	
-0.399963	
-0.399719	
-0.399292	
-0.398865	
-0.398132	
-0.399658	
-0.397766	
-0.399292	
-0.399963	
-0.39978	
-0.399658	
-0.400696	
-0.40033	
-0.399902	
-0.400757	
-0.40033	
-0.399658	
-0.398682	
-0.399353	
-0.399353	
-0.398987	
-0.399414	
-0.39978	
-0.399658	
-0.399658	
-0.399536	
-0.397705	
-0.397278	
-0.398132	
-0.398193	
-0.39856	
-0.398682	
-0.398743	
-0.398438	
-0.398926	
-0.399109	
-0.398132	
-0.398621	
-0.398682	
-0.398499	
-0.398315	
-0.399719	
-0.399841	
-0.400146	
-0.400513	
-0.40155	
-0.40094	
-0.401123	
-0.401245	
-0.400085	
-0.399292	
-0.40033	
-0.400269	
-0.400818	
-0.401306	
-0.401611	
-0.401306	
-0.401917	
-0.401978	
-0.401123	
-0.400696	
-0.402222	
-0.401184	
-0.400879	
-0.402161	
-0.402039	
-0.4021	
-0.403076	
-0.403259	
-0.402466	
-0.402893	
-0.402649	
-0.401855	
-0.401489	
-0.401733	
-0.400635	
-0.401611	
-0.401123	
-0.400574	
-0.400513	
-0.401184	
-0.400452	
-0.400024	
-0.399231	
-0.39978	
-0.399048	
-0.399414	
-0.399902	
-0.399719	
-0.399658	
-0.39978	
-0.400574	
-0.39978	
-0.400024	
-0.399414	
-0.399048	
-0.398987	
-0.398071	
-0.398743	
-0.400391	
-0.400085	
-0.400269	
-0.400879	
-0.401611	
-0.400879	
-0.401123	
-0.400879	
-0.400146	
-0.400391	
-0.400818	
-0.401184	
-0.401062	
-0.400818	
-0.400757	
-0.40094	
-0.400818	
-0.40094	
-0.400208	
-0.400024	
-0.400452	
-0.400391	
-0.399963	
-0.401306	
-0.40155	
-0.402588	
-0.403259	
-0.4021	
-0.402344	
-0.402405	
-0.40271	
-0.401978	
-0.401672	
-0.402283	
-0.402283	
-0.402649	
-0.402527	
-0.402771	
-0.402344	
-0.401978	
-0.402039	
-0.402954	
-0.401001	
-0.400757	
-0.401062	
-0.401001	
-0.401489	
-0.401428	
-0.401245	
-0.401001	
-0.402039	
-0.401489	
-0.400696	
-0.401123	
-0.40033	
-0.400513	
-0.399719	
-0.400269	
-0.400757	
-0.400635	
-0.401245	
-0.400574	
-0.401306	
-0.399597	
-0.401367	
-0.399109	
-0.400146	
-0.399475	
-0.399231	
-0.400024	
-0.400024	
-0.400574	
-0.399963	
-0.400757	
-0.399658	
-0.40033	
-0.399963	
-0.398621	
-0.399414	
-0.39856	
-0.398987	
-0.399536	
-0.399597	
-0.399109	
-0.399414	
-0.399414	
-0.397949	
-0.399597	
-0.397156	
-0.398743	
-0.398193	
-0.397034	
-0.398438	
-0.398743	
-0.398926	
-0.398315	
-0.400146	
-0.397644	
-0.398376	
-0.398499	
-0.397766	
-0.397888	
-0.397095	
-0.398926	
-0.398743	
-0.39978	
-0.399475	
-0.399658	
-0.399536	
-0.399536	
-0.400208	
-0.398071	
-0.399719	
-0.399414	
-0.398743	
-0.39978	
-0.400574	
-0.400391	
-0.400757	
-0.401978	
-0.400208	
-0.400879	
-0.40094	
-0.40033	
-0.399963	
-0.399048	
-0.399719	
-0.399231	
-0.398987	
-0.398132	
-0.398193	
-0.397461	
-0.397156	
-0.397888	
-0.395264	
-0.397095	
-0.396667	
-0.39563	
-0.396362	
-0.397217	
-0.396973	
-0.396423	
-0.39801	
-0.395691	
-0.396118	
-0.397034	
-0.396118	
-0.395874	
-0.395874	
-0.395935	
-0.396179	
-0.396606	
-0.396606	
-0.396545	
-0.395203	
-0.395691	
-0.396179	
-0.395508	
-0.396118	
-0.395752	
-0.394104	
-0.395508	
-0.395874	
-0.39679	
-0.39563	
-0.396423	
-0.395203	
-0.395935	
-0.39679	
-0.396057	
-0.395935	
-0.39563	
-0.396179	
-0.396667	
-0.396667	
-0.396118	
-0.397766	
-0.396851	
-0.396118	
-0.396545	
-0.397888	
-0.397827	
-0.397949	
-0.396179	
-0.397522	
-0.398438	
-0.399414	
-0.398499	
-0.397827	
-0.397766	
-0.397644	
-0.396667	
-0.396912	
-0.397461	
-0.396973	
-0.396851	
-0.396423	
-0.396423	
-0.3974	
-0.398621	
-0.396484	
-0.39563	
-0.396118	
-0.397339	
-0.39679	
-0.39624	
-0.395447	
-0.396851	
-0.396423	
-0.396606	
-0.397156	
-0.396912	
-0.39624	
-0.395935	
-0.396973	
-0.396362	
-0.396362	
-0.396057	
-0.396362	
-0.396362	
-0.396301	
-0.396851	
-0.396851	
-0.395813	
-0.395752	
-0.395996	
-0.396729	
-0.396301	
-0.395996	
-0.394653	
-0.396545	
-0.396545	
-0.397034	
-0.397644	
-0.395813	
-0.396179	
-0.395569	
-0.397217	
-0.395752	
-0.395325	
-0.395203	
-0.395508	
-0.395325	
-0.396057	
-0.396729	
-0.395508	
-0.394836	
-0.394836	
-0.393616	
-0.395264	
-0.395081	
-0.395447	
-0.393799	
-0.396057	
-0.395508	
-0.395508	
-0.396667	
-0.395691	
-0.395447	
-0.394958	
-0.397217	
-0.396057	
-0.39563	
-0.395142	
-0.396118	
-0.39563	
-0.396484	
-0.397522	
-0.397217	
-0.396606	
-0.395996	
-0.394653	
-0.396118	
-0.396057	
-0.395203	
-0.393127	
-0.395203	
-0.394348	
-0.394409	
-0.395142	
-0.39386	
-0.393799	
-0.392883	
-0.394714	
-0.394287	
-0.394409	
-0.393005	
-0.393372	
-0.393066	
-0.393066	
-0.394592	
-0.394043	
-0.392761	
-0.392883	
-0.392578	
-0.392822	
-0.393188	
-0.392639	
-0.391357	
-0.392517	
-0.392212	
-0.392334	
-0.393738	
-0.392517	
-0.391846	
-0.391479	
-0.392517	
-0.392395	
-0.391846	
-0.392151	
-0.391846	
-0.393188	
-0.393555	
-0.394592	
-0.394165	
-0.393982	
-0.394104	
-0.393738	
-0.394775	
-0.394714	
-0.394226	
-0.394043	
-0.394897	
-0.394409	
-0.394775	
-0.395996	
-0.394897	
-0.394226	
-0.393799	
-0.394348	
-0.394775	
-0.394592	
-0.393982	
-0.393005	
-0.39447	
-0.394714	
-0.394836	
-0.395447	
-0.394531	
-0.394226	
-0.393494	
-0.395447	
-0.394958	
-0.394775	
-0.393616	
-0.394348	
-0.394165	
-0.394775	
-0.39563	
-0.394409	
-0.39386	
-0.39386	
-0.3927	
-0.393127	
-0.392456	
-0.391602	
-0.392883	
-0.392334	
-0.391846	
-0.393738	
-0.393799	
-0.392151	
-0.391418	
-0.392029	
-0.392822	
-0.392822	
-0.391846	
-0.391968	
-0.392212	
-0.392334	
-0.392456	
-0.394165	
-0.3927	
-0.392334	
-0.392212	
-0.391357	
-0.393433	
-0.3927	
-0.3927	
-0.392151	
-0.393494	
-0.39386	
-0.394165	
-0.394226	
-0.392944	
-0.393372	
-0.392456	
-0.394348	
-0.393127	
-0.393127	
-0.393738	
-0.393982	
-0.393616	
-0.394165	
-0.39563	
-0.394531	
-0.394226	
-0.394104	
-0.393372	
-0.394592	
-0.394287	
-0.394409	
-0.393372	
-0.394409	
-0.394104	
-0.394836	
-0.395203	
-0.394287	
-0.393555	
-0.392517	
-0.394531	
-0.393982	
-0.394043	
-0.394287	
-0.394348	
-0.39447	
-0.394958	
-0.395996	
-0.395203	
-0.394653	
-0.39447	
-0.39447	
-0.395691	
-0.394409	
-0.395203	
-0.39447	
-0.394897	
-0.395203	
-0.395752	
-0.39624	
-0.395203	
-0.395203	
-0.394531	
-0.395203	
-0.394104	
-0.393311	
-0.394287	
-0.394043	
-0.394226	
-0.394165	
-0.393982	
-0.393982	
-0.39325	
-0.3927	
-0.391602	
-0.393738	
-0.393311	
-0.393311	
-0.392456	
-0.393127	
-0.392944	
-0.393372	
-0.394226	
-0.392517	
-0.392212	
-0.392517	
-0.392944	
-0.392334	
-0.391968	
-0.393188	
-0.393799	
-0.394226	
-0.394653	
-0.395386	
-0.395386	
-0.395569	
-0.394775	
-0.394287	
-0.39624	
-0.395203	
-0.396118	
-0.395325	
-0.395813	
-0.396057	
-0.397278	
-0.397705	
-0.396057	
-0.39624	
-0.395508	
-0.396606	
-0.396362	
-0.395325	
-0.395874	
-0.396179	
-0.39624	
-0.396484	
-0.396362	
-0.39679	
-0.395813	
-0.395691	
-0.395264	
-0.395935	
-0.395813	
-0.396423	
-0.395874	
-0.395996	
-0.396057	
-0.397156	
-0.397278	
-0.39624	
-0.395874	
-0.395996	
-0.395691	
-0.395874	
-0.39563	
-0.395569	
-0.39563	
-0.395935	
-0.396423	
-0.396057	
-0.395996	
-0.395325	
-0.395447	
-0.39502	
-0.39502	
-0.394287	
-0.393982	
-0.393738	
-0.394287	
-0.394653	
-0.394653	
-0.395386	
-0.394104	
-0.393433	
-0.394592	
-0.394287	
-0.394897	
-0.394775	
-0.39447	
-0.395325	
-0.395142	
-0.395447	
-0.395813	
-0.396362	
-0.395325	
-0.395264	
-0.395569	
-0.39502	
-0.395569	
-0.394592	
-0.393921	
-0.395264	
-0.395813	
-0.395935	
-0.395813	
-0.396057	
-0.394104	
-0.394409	
-0.395386	
-0.395447	
-0.395386	
-0.394958	
-0.395447	
-0.395874	
-0.396301	
-0.396301	
-0.396606	
-0.395386	
-0.395508	
-0.396606	
-0.395813	
-0.39502	
-0.394531	
-0.395081	
-0.395447	
-0.395813	
-0.396118	
-0.395996	
-0.395447	
-0.395813	
-0.395203	
-0.396118	
-0.396362	
-0.396057	
-0.395142	
-0.396606	
-0.395996	
-0.395874	
-0.397217	
-0.397461	
-0.395203	
-0.396362	
-0.397217	
-0.395508	
-0.395935	
-0.395447	
-0.395691	
-0.396179	
-0.396667	
-0.396179	
-0.395508	
-0.395447	
-0.395264	
-0.394836	
-0.394775	
-0.395386	
-0.395569	
-0.3927	
-0.394836	
-0.394836	
-0.394836	
-0.395935	
-0.395386	
-0.394348	
-0.394897	
-0.396973	
-0.395142	
-0.39563	
-0.395264	
-0.396179	
-0.396851	
-0.3974	
-0.397705	
-0.397888	
-0.397034	
-0.39679	
-0.396057	
-0.396912	
-0.397461	
-0.397522	
-0.395996	
-0.397888	
-0.398315	
-0.398071	
-0.398376	
-0.39856	
-0.397888	
-0.398376	
-0.399292	
-0.397461	
-0.398682	
-0.398254	
-0.397888	
-0.398865	
-0.399841	
-0.399475	
-0.399597	
-0.399963	
-0.398499	
-0.399048	
-0.399719	
-0.398621	
-0.398987	
-0.397644	
-0.398132	
-0.39801	
-0.397827	
-0.397705	
-0.396973	
-0.395935	
-0.396729	
-0.396362	
-0.395325	
-0.396301	
-0.396423	
-0.395447	
-0.39679	
-0.397461	
-0.396362	
-0.3974	
-0.397522	
-0.396912	
-0.396851	
-0.397583	
-0.396606	
-0.397095	
-0.396362	
-0.396912	
-0.397583	
-0.397827	
-0.397644	
-0.39801	
-0.396851	
-0.397583	
-0.397522	
-0.396667	
-0.398254	
-0.398315	
-0.396118	
-0.397583	
-0.399353	
-0.398682	
-0.398621	
-0.39801	
-0.397766	
-0.398438	
-0.398926	
-0.398621	
-0.398132	
-0.39801	
-0.399475	
-0.39978	
-0.398621	
-0.39856	
-0.400208	
-0.398438	
-0.39917	
-0.399597	
-0.399719	
-0.40033	
-0.39978	
-0.398682	
-0.400208	
-0.401001	
-0.399902	
-0.400085	
-0.400208	
-0.399536	
-0.399475	
-0.399658	
-0.399658	
-0.39978	
-0.398743	
-0.398743	
-0.398743	
-0.398315	
-0.398926	
-0.399292	
-0.398193	
-0.398499	
-0.399292	
-0.398804	
-0.397888	
-0.39801	
-0.397949	
-0.39856	
-0.398132	
-0.39801	
-0.398499	
-0.397949	
-0.398132	
-0.397888	
-0.396973	
-0.397827	
-0.397827	
-0.39679	
-0.396912	
-0.398682	
-0.397278	
-0.397583	
-0.399109	
-0.397888	
-0.397522	
-0.398376	
-0.397156	
-0.397034	
-0.397217	
-0.397095	
-0.397278	
-0.397644	
-0.397095	
-0.396912	
-0.396606	
-0.396973	
-0.396729	
-0.396301	
-0.396545	
-0.396545	
-0.395996	
-0.395508	
-0.397095	
-0.396729	
-0.396118	
-0.396851	
-0.39624	
-0.396179	
-0.396301	
-0.396118	
-0.396362	
-0.396667	
-0.395874	
-0.397339	
-0.397278	
-0.397644	
-0.398438	
-0.397522	
-0.397949	
-0.398071	
-0.3974	
-0.397888	
-0.397949	
-0.398132	
-0.397583	
-0.399719	
-0.398926	
-0.398621	
-0.399414	
-0.399048	
-0.398804	
-0.398376	
-0.399109	
-0.398376	
-0.398193	
-0.397278	
-0.396484	
-0.396851	
-0.39624	
-0.395813	
-0.396362	
-0.395752	
-0.395142	
-0.394592	
-0.396301	
-0.394714	
-0.394897	
-0.394226	
-0.39502	
-0.394958	
-0.394775	
-0.394409	
-0.394714	
-0.394775	
-0.39447	
-0.394531	
-0.394653	
-0.395203	
-0.394653	
-0.394409	
-0.394653	
-0.394226	
-0.39447	
-0.396118	
-0.395081	
-0.394958	
-0.394226	
-0.395813	
-0.394836	
-0.394714	
-0.394104	
-0.394592	
-0.394165	
-0.393555	
-0.393799	
-0.394958	
-0.394958	
-0.394653	
-0.393799	
-0.394531	
-0.39502	
-0.39563	
-0.394897	
-0.395203	
-0.395996	
-0.395813	
-0.397034	
-0.396179	
-0.396057	
-0.395996	
-0.396851	
-0.39624	
-0.397217	
-0.397156	
-0.396973	
-0.396851	
-0.396423	
-0.397217	
-0.398071	
-0.396912	
-0.396851	
-0.396423	
-0.396729	
-0.39624	
-0.395691	
-0.394409	
-0.395935	
-0.395569	
-0.394531	
-0.395996	
-0.395752	
	
