E:\DOCUMENTS AND SETTINGS\JPOTAS\MEUS DOCUMENTOS\UFRJ\RSCI-BM 12 WK SERIES\070723-RSCI-BM-06\RSCI-BM-06-LEMG\070723-RSCI-BM-LEMG-0002.ACQ
0.025000 msec/sample
1 channel
Analog input
Volts
CH1	
2000	
-0.401978	
-0.401978	
-0.402344	
-0.401428	
-0.402527	
-0.401917	
-0.402283	
-0.400391	
-0.401611	
-0.401123	
-0.401428	
-0.401428	
-0.401672	
-0.400513	
-0.40094	
-0.40094	
-0.40094	
-0.400513	
-0.400757	
-0.400391	
-0.398926	
-0.400452	
-0.400391	
-0.400085	
-0.399353	
-0.400391	
-0.39917	
-0.399841	
-0.399597	
-0.398865	
-0.397156	
-0.397461	
-0.39679	
-0.3974	
-0.396484	
-0.396179	
-0.396423	
-0.39679	
-0.395935	
-0.396179	
-0.395691	
-0.394897	
-0.394714	
-0.394836	
-0.395264	
-0.395935	
-0.39563	
-0.395996	
-0.394958	
-0.395386	
-0.396851	
-0.396545	
-0.395996	
-0.396667	
-0.396362	
-0.39624	
-0.397461	
-0.396729	
-0.39679	
-0.39679	
-0.397644	
-0.39679	
-0.39801	
-0.397461	
-0.396362	
-0.396118	
-0.396545	
-0.396057	
-0.397095	
-0.397095	
-0.398132	
-0.3974	
-0.398438	
-0.397583	
-0.39856	
-0.398438	
-0.397522	
-0.397034	
-0.396545	
-0.398193	
-0.397888	
-0.398254	
-0.398499	
-0.397827	
-0.398804	
-0.398926	
-0.399048	
-0.398376	
-0.399048	
-0.397461	
-0.397766	
-0.39917	
-0.398499	
-0.398438	
-0.398804	
-0.398865	
-0.398865	
-0.399048	
-0.398987	
-0.396973	
-0.397827	
-0.3974	
-0.397766	
-0.398987	
-0.398315	
-0.398315	
-0.398071	
-0.399414	
-0.398865	
-0.399353	
-0.399414	
-0.399475	
-0.39856	
-0.397827	
-0.39917	
-0.399597	
-0.399414	
-0.40033	
-0.399719	
-0.401184	
-0.401428	
-0.402283	
-0.401001	
-0.400452	
-0.400391	
-0.401062	
-0.402039	
-0.401306	
-0.401978	
-0.40155	
-0.402039	
-0.402527	
-0.40332	
-0.402222	
-0.401672	
-0.401978	
-0.401123	
-0.401367	
-0.402771	
-0.401855	
-0.401062	
-0.400085	
-0.401062	
-0.399597	
-0.39978	
-0.399536	
-0.398682	
-0.396729	
-0.397705	
-0.398376	
-0.397766	
-0.397583	
-0.397644	
-0.396606	
-0.397583	
-0.397278	
-0.397888	
-0.3974	
-0.396729	
-0.396851	
-0.39624	
-0.397339	
-0.396667	
-0.396484	
-0.395996	
-0.396179	
-0.395752	
-0.396851	
-0.396118	
-0.39447	
-0.395386	
-0.39447	
-0.394287	
-0.396545	
-0.395752	
-0.395874	
-0.395508	
-0.395996	
-0.395447	
-0.395325	
-0.395447	
-0.394897	
-0.394226	
-0.395264	
-0.395996	
-0.396423	
-0.396301	
-0.396423	
-0.396362	
-0.397156	
-0.397461	
-0.3974	
-0.396851	
-0.396729	
-0.396545	
-0.397217	
-0.39801	
-0.391785	
-0.391479	
-0.391785	
-0.392944	
-0.393494	
-0.392883	
-0.398132	
-0.397522	
-0.396301	
-0.395447	
-0.39624	
-0.396973	
-0.395325	
-0.395325	
-0.395264	
-0.39563	
-0.39563	
-0.395569	
-0.395081	
-0.394531	
-0.393311	
-0.394165	
-0.39325	
-0.393555	
-0.394226	
-0.394226	
-0.39386	
-0.395325	
-0.395874	
-0.394165	
-0.395203	
-0.394592	
-0.393921	
-0.394226	
-0.394958	
-0.394531	
-0.39502	
-0.394592	
-0.394958	
-0.395325	
-0.395386	
-0.394897	
-0.394531	
-0.393433	
-0.395081	
-0.395325	
-0.396179	
-0.396362	
-0.397461	
-0.39801	
-0.401123	
-0.403625	
-0.40448	
-0.407104	
-0.410278	
-0.413696	
-0.418762	
-0.423645	
-0.428284	
-0.433228	
-0.437256	
-0.441467	
-0.447021	
-0.450928	
-0.45636	
-0.46228	
-0.467102	
-0.476807	
-0.486755	
-0.498535	
-0.510315	
-0.520996	
-0.530762	
-0.539429	
-0.546692	
-0.552063	
-0.557007	
-0.561401	
-0.565796	
-0.569153	
-0.57019	
-0.570557	
-0.570801	
-0.568542	
-0.568176	
-0.565369	
-0.562317	
-0.559937	
-0.556824	
-0.55542	
-0.553894	
-0.552673	
-0.551392	
-0.55072	
-0.54895	
-0.54834	
-0.546814	
-0.544006	
-0.542542	
-0.541443	
-0.539246	
-0.539001	
-0.537354	
-0.536072	
-0.534912	
-0.533691	
-0.531189	
-0.531494	
-0.529114	
-0.525879	
-0.523621	
-0.520691	
-0.518066	
-0.514709	
-0.510132	
-0.504944	
-0.500549	
-0.495239	
-0.491577	
-0.487793	
-0.482178	
-0.477661	
-0.473694	
-0.467834	
-0.466187	
-0.463745	
-0.460266	
-0.457458	
-0.455444	
-0.451782	
-0.450256	
-0.446289	
-0.442322	
-0.439453	
-0.435547	
-0.433594	
-0.431885	
-0.42865	
-0.426941	
-0.424927	
-0.42334	
-0.421875	
-0.420044	
-0.417908	
-0.416016	
-0.413391	
-0.410706	
-0.408997	
-0.405518	
-0.403442	
-0.399353	
-0.39502	
-0.391235	
-0.388184	
-0.382629	
-0.376831	
-0.37085	
-0.365234	
-0.357849	
-0.351563	
-0.344177	
-0.337219	
-0.328491	
-0.319763	
-0.310486	
-0.301636	
-0.29248	
-0.283203	
-0.273804	
-0.264709	
-0.259216	
-0.253357	
-0.248596	
-0.245056	
-0.242493	
-0.241455	
-0.241516	
-0.242065	
-0.242676	
-0.243958	
-0.244995	
-0.248108	
-0.251221	
-0.253113	
-0.257324	
-0.260254	
-0.263916	
-0.269531	
-0.273682	
-0.276672	
-0.281189	
-0.284851	
-0.290222	
-0.294678	
-0.299072	
-0.304504	
-0.309143	
-0.313293	
-0.318359	
-0.322021	
-0.324097	
-0.327454	
-0.327576	
-0.331421	
-0.333374	
-0.33551	
-0.336182	
-0.337585	
-0.338806	
-0.341736	
-0.34259	
-0.342285	
-0.343628	
-0.343872	
-0.346008	
-0.346619	
-0.348694	
-0.348633	
-0.349915	
-0.350464	
-0.352783	
-0.353455	
-0.354492	
-0.356934	
-0.357727	
-0.359375	
-0.360291	
-0.36261	
-0.363098	
-0.362854	
-0.364441	
-0.36731	
-0.367432	
-0.367737	
-0.369324	
-0.369324	
-0.370178	
-0.370605	
-0.372559	
-0.371643	
-0.371887	
-0.372742	
-0.373657	
-0.37384	
-0.37439	
-0.373718	
-0.372925	
-0.373779	
-0.372803	
-0.373962	
-0.373352	
-0.373535	
-0.373108	
-0.374023	
-0.37323	
-0.372375	
-0.372375	
-0.369507	
-0.370728	
-0.3703	
-0.370728	
-0.370544	
-0.369995	
-0.369751	
-0.368713	
-0.370728	
-0.370056	
-0.369263	
-0.367249	
-0.368774	
-0.369019	
-0.368713	
-0.369812	
-0.368835	
-0.368591	
-0.368591	
-0.370422	
-0.369446	
-0.370422	
-0.369934	
-0.369751	
-0.371216	
-0.370911	
-0.372437	
-0.372437	
-0.372375	
-0.372498	
-0.373474	
-0.374512	
-0.374268	
-0.374207	
-0.372742	
-0.374878	
-0.37439	
-0.376038	
-0.376099	
-0.376465	
-0.375916	
-0.377686	
-0.378357	
-0.377991	
-0.377808	
-0.376404	
-0.378845	
-0.378174	
-0.380554	
-0.380127	
-0.379761	
-0.379456	
-0.381226	
-0.381226	
-0.380127	
-0.380737	
-0.379944	
-0.381287	
-0.38031	
-0.38147	
-0.381836	
-0.38269	
-0.381592	
-0.382446	
-0.381653	
-0.38147	
-0.380981	
-0.38147	
-0.382019	
-0.381836	
-0.382507	
-0.382813	
-0.383179	
-0.383606	
-0.384827	
-0.384766	
-0.384705	
-0.384155	
-0.384399	
-0.385864	
-0.385803	
-0.386292	
-0.387207	
-0.386597	
-0.388245	
-0.389282	
-0.388611	
-0.388794	
-0.388428	
-0.388428	
-0.39032	
-0.389587	
-0.389893	
-0.390503	
-0.390015	
-0.390808	
-0.392212	
-0.390991	
-0.392151	
-0.391968	
-0.39032	
-0.392212	
-0.391968	
-0.391479	
-0.391602	
-0.391174	
-0.391296	
-0.392944	
-0.393188	
-0.391418	
-0.392273	
-0.391418	
-0.391785	
-0.3927	
-0.391785	
-0.392212	
-0.391479	
-0.392029	
-0.392761	
-0.392578	
-0.39209	
-0.392212	
-0.390564	
-0.390747	
-0.391296	
-0.389832	
-0.390015	
-0.390564	
-0.390625	
-0.391479	
-0.392212	
-0.391479	
-0.391479	
-0.391541	
-0.388977	
-0.391663	
-0.390808	
-0.391113	
-0.391113	
-0.390015	
-0.391479	
-0.393066	
-0.392822	
-0.391785	
-0.392029	
-0.390625	
-0.391724	
-0.391968	
-0.391235	
-0.391907	
-0.391418	
-0.392395	
-0.39386	
-0.393921	
-0.393127	
-0.393433	
-0.391968	
-0.393677	
-0.394775	
-0.394043	
-0.39386	
-0.393799	
-0.394775	
-0.395691	
-0.396057	
-0.395081	
-0.395752	
-0.39502	
-0.39624	
-0.397705	
-0.3974	
-0.396301	
-0.397278	
-0.39801	
-0.398315	
-0.399414	
-0.398804	
-0.398254	
-0.397522	
-0.398621	
-0.399109	
-0.397705	
-0.397888	
-0.399048	
-0.398193	
-0.398499	
-0.399231	
-0.397705	
-0.397461	
-0.396362	
-0.397583	
-0.398193	
-0.396606	
-0.397522	
-0.397339	
-0.397705	
-0.39856	
-0.399353	
-0.397888	
-0.398743	
-0.398682	
-0.400024	
-0.399963	
-0.398621	
-0.400024	
-0.399475	
-0.399597	
-0.400635	
-0.401306	
-0.400574	
-0.400513	
-0.401184	
-0.401184	
-0.401001	
-0.400085	
-0.400574	
-0.400635	
-0.400085	
-0.401062	
-0.401733	
-0.401123	
-0.40094	
-0.400452	
-0.400513	
-0.400696	
-0.401733	
-0.401245	
-0.400635	
-0.400146	
-0.40094	
-0.40155	
-0.400696	
-0.400269	
-0.399414	
-0.400024	
-0.400818	
-0.399841	
-0.399841	
-0.39978	
-0.39917	
-0.399109	
-0.400391	
-0.399292	
-0.398621	
-0.398132	
-0.397888	
-0.397644	
-0.397217	
-0.396606	
-0.397278	
-0.3974	
-0.396362	
-0.39801	
-0.397217	
-0.397034	
-0.396667	
-0.396301	
-0.396301	
-0.397705	
-0.397644	
-0.397217	
-0.397278	
-0.397095	
-0.39801	
-0.399353	
-0.398743	
-0.397827	
-0.397156	
-0.398071	
-0.398682	
-0.398743	
-0.398865	
-0.398804	
-0.398315	
-0.3974	
-0.39978	
-0.398254	
-0.397949	
-0.397827	
-0.398315	
-0.398743	
-0.399292	
-0.398926	
-0.398743	
-0.399048	
-0.399048	
-0.400696	
-0.399414	
-0.399658	
-0.399536	
-0.400208	
-0.398315	
-0.399902	
-0.399109	
-0.399536	
-0.399658	
-0.399841	
-0.400879	
-0.400146	
-0.400696	
-0.40033	
-0.40094	
-0.400146	
-0.401062	
-0.400757	
-0.400696	
-0.400757	
-0.400208	
-0.399353	
-0.400818	
-0.400269	
-0.399841	
-0.398743	
-0.399231	
-0.399841	
-0.400085	
-0.40094	
-0.401184	
-0.400513	
-0.400085	
-0.402039	
-0.400146	
-0.400269	
-0.400391	
-0.400757	
-0.400635	
-0.401428	
-0.401855	
-0.401489	
-0.402222	
-0.402405	
-0.403931	
-0.402832	
-0.40271	
-0.402771	
-0.404053	
-0.402771	
-0.40387	
-0.403442	
-0.403381	
-0.403809	
-0.404053	
-0.403564	
-0.404175	
-0.405151	
-0.40448	
-0.404419	
-0.404053	
-0.404297	
-0.403931	
-0.404724	
-0.404297	
-0.403625	
-0.403381	
-0.404114	
-0.402893	
-0.401917	
-0.400146	
-0.400757	
-0.401306	
-0.400696	
-0.399292	
-0.400269	
-0.400208	
-0.399841	
-0.399719	
-0.40033	
-0.399719	
-0.399536	
-0.398987	
-0.398315	
-0.398926	
-0.39856	
-0.399536	
-0.399292	
-0.398865	
-0.398743	
-0.399353	
-0.399475	
-0.398315	
-0.398193	
-0.39801	
-0.397827	
-0.397888	
-0.397156	
-0.398193	
-0.397583	
-0.397766	
-0.397766	
-0.398376	
-0.397461	
-0.396973	
-0.397522	
-0.397888	
-0.397888	
-0.397888	
-0.398804	
-0.398315	
-0.398743	
-0.399719	
-0.40033	
-0.399292	
-0.398804	
-0.399109	
-0.398376	
-0.399353	
-0.399658	
-0.398865	
-0.399719	
-0.400269	
-0.400024	
-0.399353	
-0.400146	
-0.399536	
-0.399963	
-0.400452	
-0.399353	
-0.399475	
-0.399048	
-0.39978	
-0.399109	
-0.399048	
-0.398376	
-0.399353	
-0.397217	
-0.39679	
-0.396362	
-0.397583	
-0.397461	
-0.397644	
-0.39624	
-0.397583	
-0.397522	
-0.397705	
-0.397095	
-0.39679	
-0.396729	
-0.397034	
-0.39801	
-0.397705	
-0.397644	
-0.397583	
-0.398193	
-0.397644	
-0.398804	
-0.397827	
-0.397888	
-0.397156	
-0.396912	
-0.396545	
-0.397827	
-0.397522	
-0.39801	
-0.397095	
-0.397705	
-0.398682	
-0.399048	
-0.399536	
-0.399536	
-0.398926	
-0.399109	
-0.400574	
-0.399292	
-0.399231	
-0.398804	
-0.399719	
-0.399597	
-0.399475	
-0.399963	
-0.399109	
-0.39856	
-0.39917	
-0.399536	
-0.399414	
-0.399658	
-0.399353	
-0.399536	
-0.400391	
-0.40033	
-0.400391	
-0.400269	
-0.399841	
-0.399658	
-0.399475	
-0.400818	
-0.400208	
-0.399963	
-0.399536	
-0.400513	
-0.399536	
-0.399597	
-0.400391	
-0.39917	
-0.398804	
-0.398682	
-0.399231	
-0.399048	
-0.398621	
-0.398438	
-0.398254	
-0.398193	
-0.398193	
-0.398193	
-0.397034	
-0.395935	
-0.396667	
-0.395447	
-0.397034	
-0.396179	
-0.396545	
-0.395325	
-0.397766	
-0.397034	
-0.396362	
-0.397034	
-0.396423	
-0.396606	
-0.396545	
-0.397095	
-0.396423	
-0.396973	
-0.396912	
-0.397522	
-0.397339	
-0.397461	
-0.397827	
-0.397705	
-0.395935	
-0.39679	
-0.39563	
-0.397522	
-0.396423	
-0.395935	
-0.395325	
-0.396362	
-0.395447	
-0.394775	
-0.394897	
-0.393799	
-0.394714	
-0.394714	
-0.394531	
-0.394226	
-0.394104	
-0.394348	
-0.394592	
-0.394043	
-0.393616	
-0.394287	
-0.393677	
-0.392944	
-0.394287	
-0.393555	
-0.395142	
-0.394836	
-0.394348	
-0.393799	
-0.395264	
-0.395203	
-0.39447	
-0.395081	
-0.39502	
-0.395325	
-0.395264	
-0.395081	
-0.395752	
-0.395691	
-0.395569	
-0.396667	
-0.395752	
-0.396484	
-0.397095	
-0.397156	
-0.39624	
-0.397888	
-0.397644	
-0.39917	
-0.398987	
-0.399231	
-0.399414	
-0.399719	
-0.400635	
-0.400574	
-0.399719	
-0.400024	
-0.400269	
-0.400024	
-0.400696	
-0.401123	
-0.401245	
-0.401062	
-0.40094	
-0.400879	
-0.40094	
-0.401306	
-0.401062	
-0.400146	
-0.400452	
-0.399597	
-0.399902	
-0.399597	
-0.39978	
-0.399719	
-0.399353	
-0.399719	
-0.399353	
-0.399353	
-0.399536	
-0.399231	
-0.398315	
-0.400024	
-0.399658	
-0.398926	
-0.399597	
-0.399109	
-0.398804	
-0.399658	
-0.399109	
-0.399231	
-0.397949	
-0.398132	
-0.397583	
-0.398682	
-0.39801	
-0.397827	
-0.397705	
-0.39801	
-0.398132	
-0.398254	
-0.397827	
-0.397644	
-0.3974	
-0.397461	
-0.39856	
-0.39856	
-0.397644	
-0.397827	
-0.398193	
-0.397888	
-0.397766	
-0.398438	
-0.397705	
-0.398071	
-0.39801	
-0.396423	
-0.398499	
-0.398132	
-0.398499	
-0.39856	
-0.398438	
-0.397949	
-0.3974	
-0.396912	
-0.397278	
-0.396301	
-0.396118	
-0.397888	
-0.398132	
-0.397522	
-0.397583	
-0.396851	
-0.396851	
-0.397217	
-0.397705	
-0.395935	
-0.395203	
-0.395264	
-0.395203	
-0.395386	
-0.395081	
-0.394958	
-0.394775	
-0.394531	
-0.394287	
-0.394592	
-0.393616	
-0.394409	
-0.393066	
-0.392273	
-0.393921	
-0.394409	
-0.394104	
-0.394409	
-0.394653	
-0.394531	
-0.395874	
-0.396301	
-0.395386	
-0.395935	
-0.396057	
-0.397339	
-0.398071	
-0.397705	
-0.397339	
-0.398621	
-0.398132	
-0.398621	
-0.398804	
-0.39801	
-0.398315	
-0.397766	
-0.397644	
-0.399109	
-0.399231	
-0.399292	
-0.399719	
-0.399475	
-0.399597	
-0.400269	
-0.40094	
-0.399841	
-0.399536	
-0.399597	
-0.400208	
-0.40094	
-0.400208	
-0.400269	
-0.400452	
-0.400635	
-0.401062	
-0.401184	
-0.399475	
-0.401001	
-0.400696	
-0.399475	
-0.401306	
-0.401794	
-0.400818	
-0.400879	
-0.400879	
-0.40033	
-0.400208	
-0.401062	
-0.399536	
-0.398926	
-0.398315	
-0.39917	
-0.399719	
-0.399048	
-0.399048	
-0.398987	
-0.398315	
-0.398987	
-0.398499	
-0.397827	
-0.39917	
-0.399109	
-0.397705	
-0.399231	
-0.39978	
-0.399475	
-0.399109	
-0.400024	
-0.399963	
-0.400269	
-0.401672	
-0.400574	
-0.400269	
-0.400513	
-0.401306	
-0.401367	
-0.401062	
-0.401123	
-0.401123	
-0.400574	
-0.401733	
-0.401184	
-0.400635	
-0.400879	
-0.401428	
-0.400024	
-0.400757	
-0.402161	
-0.400879	
-0.400818	
-0.401245	
-0.401062	
-0.401245	
-0.402893	
-0.401245	
-0.400208	
-0.400391	
-0.401306	
-0.40094	
-0.401245	
-0.400879	
-0.400879	
-0.400391	
-0.400696	
-0.400696	
-0.399658	
-0.399414	
-0.398865	
-0.397156	
-0.398865	
-0.399963	
-0.399048	
-0.399231	
-0.399109	
-0.399231	
-0.399902	
-0.400513	
-0.398499	
-0.398376	
-0.398193	
-0.398865	
-0.399048	
-0.398865	
-0.398438	
-0.398499	
-0.398743	
-0.399109	
-0.39856	
-0.397888	
-0.398376	
-0.397888	
-0.395691	
-0.39801	
-0.399231	
-0.398254	
-0.398438	
-0.398254	
-0.399414	
-0.400085	
-0.400208	
-0.3974	
-0.398682	
-0.398865	
-0.39917	
-0.398865	
-0.399414	
-0.399414	
-0.399658	
-0.399841	
-0.400696	
-0.400696	
-0.400574	
-0.401428	
-0.401245	
-0.400146	
-0.401611	
-0.402466	
-0.402161	
-0.402405	
-0.402039	
-0.40271	
-0.402771	
-0.403198	
-0.401672	
-0.401611	
-0.401367	
-0.402405	
-0.402283	
-0.401917	
-0.401672	
-0.401733	
-0.401489	
-0.401855	
-0.401306	
-0.40033	
-0.400757	
-0.399841	
-0.399902	
-0.401978	
-0.402893	
-0.402954	
-0.402832	
-0.402283	
-0.403809	
-0.404175	
-0.404541	
-0.403137	
-0.403687	
-0.403809	
-0.403503	
-0.403687	
-0.404663	
-0.403687	
-0.403381	
-0.404175	
-0.404602	
-0.404602	
-0.404053	
-0.402893	
-0.402588	
-0.402527	
-0.403992	
-0.404053	
-0.403687	
-0.403381	
-0.40387	
-0.404114	
-0.40448	
-0.40509	
-0.403137	
-0.402588	
-0.402161	
-0.401978	
-0.402954	
-0.403015	
-0.402161	
-0.401917	
-0.401672	
-0.402039	
-0.402466	
-0.402222	
-0.400085	
-0.399902	
-0.398743	
-0.40033	
-0.40033	
-0.39917	
-0.39917	
-0.398926	
-0.398743	
-0.398743	
-0.398743	
-0.397583	
-0.397339	
-0.397278	
-0.397095	
-0.397888	
-0.398621	
-0.396667	
-0.3974	
-0.3974	
-0.39856	
-0.397644	
-0.399048	
-0.397522	
-0.397949	
-0.397461	
-0.398071	
-0.399292	
-0.399292	
-0.398926	
-0.398621	
-0.397522	
-0.399719	
-0.399597	
-0.398315	
-0.397461	
-0.398499	
-0.397949	
-0.398438	
-0.399353	
-0.398499	
-0.398499	
-0.398499	
-0.39978	
-0.399536	
-0.400635	
-0.399109	
-0.399048	
-0.398987	
-0.399536	
-0.399658	
-0.400024	
-0.399658	
-0.399902	
-0.399231	
-0.401245	
-0.40033	
-0.399719	
-0.398682	
-0.400452	
-0.39917	
-0.399902	
-0.400146	
-0.400208	
-0.400635	
-0.400513	
-0.401367	
-0.401001	
-0.401611	
-0.400269	
-0.399231	
-0.398376	
-0.400208	
-0.400024	
-0.399719	
-0.399231	
-0.399719	
-0.398987	
-0.401184	
-0.401245	
-0.39978	
-0.400024	
-0.400391	
-0.399292	
-0.40033	
-0.400452	
-0.400391	
-0.400574	
-0.40094	
-0.401733	
-0.402039	
-0.403564	
-0.402527	
-0.40094	
-0.401794	
-0.40271	
-0.402771	
-0.403625	
-0.402954	
-0.402954	
-0.403198	
-0.405457	
-0.403931	
-0.403809	
-0.403564	
-0.403748	
-0.402466	
-0.403076	
-0.403381	
-0.40387	
-0.403381	
-0.403198	
-0.40271	
-0.403809	
-0.403992	
-0.402039	
-0.399536	
-0.400879	
-0.400696	
-0.400574	
-0.401184	
-0.399719	
-0.399353	
-0.39917	
-0.400452	
-0.399353	
-0.399353	
-0.398926	
-0.398193	
-0.397278	
-0.398376	
-0.398499	
-0.39856	
-0.398743	
-0.397888	
-0.397644	
-0.398865	
-0.399353	
-0.397644	
-0.396057	
-0.396973	
-0.396729	
-0.39679	
-0.397339	
-0.396912	
-0.39679	
-0.396606	
-0.396973	
-0.397217	
-0.398071	
-0.39679	
-0.39624	
-0.396057	
-0.396423	
-0.396545	
-0.397644	
-0.397644	
-0.397156	
-0.397888	
-0.399231	
-0.398499	
-0.398499	
-0.397522	
-0.39801	
-0.397705	
-0.398682	
-0.398743	
-0.398499	
-0.398132	
-0.398865	
-0.398987	
-0.399048	
-0.399841	
-0.398499	
-0.396667	
-0.397217	
-0.398987	
-0.39856	
-0.39917	
-0.398315	
-0.397888	
-0.398071	
-0.398926	
-0.398682	
-0.397278	
-0.396301	
-0.396667	
-0.39563	
-0.395874	
-0.396484	
-0.397583	
-0.39624	
-0.396545	
-0.396301	
-0.39624	
-0.396729	
-0.395752	
-0.394165	
-0.395081	
-0.39624	
-0.395935	
-0.396729	
-0.396179	
-0.396667	
-0.39624	
-0.396667	
-0.396729	
-0.396851	
-0.395447	
-0.396301	
-0.395996	
-0.39563	
-0.397217	
-0.397461	
-0.396851	
-0.397339	
-0.397583	
-0.397522	
-0.397888	
-0.397705	
-0.396973	
-0.397217	
-0.396729	
-0.398132	
-0.398132	
-0.398438	
-0.397827	
-0.39801	
-0.398254	
-0.398926	
-0.398621	
-0.397461	
-0.397034	
-0.398376	
-0.398254	
-0.398926	
-0.398315	
-0.398438	
-0.398682	
-0.399109	
-0.39917	
-0.399231	
-0.398865	
-0.398376	
-0.39801	
-0.397583	
-0.398743	
-0.398376	
-0.398926	
-0.397949	
-0.397949	
-0.398865	
-0.398926	
-0.398438	
-0.397278	
-0.397339	
-0.39679	
-0.397278	
-0.397522	
-0.397522	
-0.396851	
-0.396667	
-0.397034	
-0.396301	
-0.397644	
-0.39563	
-0.394348	
-0.39447	
-0.394836	
-0.394958	
-0.394531	
-0.394775	
-0.394531	
-0.394897	
-0.395691	
-0.395874	
-0.395447	
-0.394348	
-0.394836	
-0.394531	
-0.39447	
-0.394897	
-0.395691	
-0.395569	
-0.395569	
-0.395813	
-0.395813	
-0.396973	
-0.396729	
-0.395081	
-0.395203	
-0.395203	
-0.394348	
-0.394287	
-0.394836	
-0.393372	
-0.393738	
-0.393677	
-0.394104	
-0.394043	
-0.392822	
-0.392273	
-0.392029	
-0.392029	
-0.392456	
-0.392761	
-0.393433	
-0.392639	
-0.392761	
-0.392822	
-0.393005	
-0.392822	
-0.391663	
-0.391113	
-0.392273	
-0.391541	
-0.392883	
-0.393066	
-0.393005	
-0.393005	
-0.393616	
-0.393799	
-0.393555	
-0.393921	
-0.393005	
-0.393677	
-0.394043	
-0.393921	
-0.39447	
-0.395447	
-0.394348	
-0.394714	
-0.395569	
-0.395386	
-0.395874	
-0.39624	
-0.395691	
-0.396545	
-0.396912	
-0.397522	
-0.397888	
-0.397949	
-0.397522	
-0.398315	
-0.398621	
-0.399536	
-0.398926	
-0.397034	
-0.39856	
-0.398987	
-0.398315	
-0.399475	
-0.39978	
-0.399414	
-0.399353	
-0.399841	
-0.398987	
-0.39856	
-0.399353	
-0.397827	
-0.3974	
-0.397339	
-0.397766	
-0.39801	
-0.399048	
-0.397339	
-0.398254	
-0.398315	
-0.398376	
-0.398254	
-0.397095	
-0.396362	
-0.397705	
-0.396973	
-0.397156	
-0.397461	
-0.39801	
-0.397705	
-0.397156	
-0.3974	
-0.39679	
-0.396301	
-0.395508	
-0.395508	
-0.396423	
-0.396362	
-0.396973	
-0.396484	
-0.396667	
-0.395935	
-0.396851	
-0.39679	
-0.39563	
-0.395813	
-0.395569	
-0.396423	
-0.395447	
-0.39624	
-0.395874	
-0.396606	
-0.395996	
-0.396362	
-0.396606	
-0.39679	
-0.396118	
-0.393982	
-0.394836	
-0.395203	
-0.395386	
-0.395874	
-0.396057	
-0.396301	
-0.395691	
-0.39679	
-0.396423	
-0.39563	
-0.395264	
-0.394958	
-0.395447	
-0.394958	
-0.39563	
-0.395447	
-0.395874	
-0.394409	
-0.394226	
-0.394409	
-0.394165	
-0.393677	
-0.392395	
-0.393005	
-0.392517	
-0.392334	
-0.393372	
-0.392273	
-0.393555	
-0.392334	
-0.392334	
-0.393127	
-0.392334	
-0.39209	
-0.391846	
-0.391479	
-0.39209	
-0.392212	
-0.391968	
-0.392578	
-0.393005	
-0.393005	
-0.394165	
-0.394348	
-0.394592	
-0.394653	
-0.39447	
-0.395325	
-0.395508	
-0.395874	
-0.395935	
-0.396179	
-0.39624	
-0.397522	
-0.397522	
-0.39563	
-0.397583	
-0.396973	
-0.395874	
-0.396545	
-0.397034	
-0.397217	
-0.397705	
-0.398071	
-0.397522	
-0.398132	
-0.398132	
-0.397461	
-0.397278	
-0.396851	
-0.397339	
-0.396729	
-0.398071	
-0.398621	
-0.398682	
-0.398987	
-0.398865	
-0.399719	
-0.398926	
-0.399536	
-0.39856	
-0.398376	
-0.398621	
-0.398438	
-0.398865	
-0.397827	
-0.397888	
-0.397156	
-0.398621	
-0.397217	
-0.396545	
-0.396729	
-0.395325	
-0.395203	
-0.395508	
-0.396057	
-0.396851	
-0.3974	
-0.397339	
-0.396851	
-0.397339	
-0.396667	
-0.397034	
-0.395691	
-0.396484	
-0.396606	
-0.397095	
-0.397156	
-0.397339	
-0.397888	
-0.398376	
-0.398865	
-0.398682	
-0.397766	
-0.398743	
-0.397949	
-0.397766	
-0.398132	
-0.398804	
-0.398376	
-0.398926	
-0.400024	
-0.399109	
-0.398926	
-0.399414	
-0.398865	
-0.397461	
-0.397461	
-0.398193	
-0.397888	
-0.398682	
-0.398987	
-0.398682	
-0.398621	
-0.399597	
-0.39978	
-0.398926	
-0.398926	
-0.398132	
-0.398132	
-0.399048	
-0.398499	
-0.397888	
-0.397644	
-0.397949	
-0.397583	
-0.397461	
-0.397583	
-0.395996	
-0.395569	
-0.395874	
-0.395142	
-0.395691	
-0.396729	
-0.39679	
-0.397034	
-0.397827	
-0.397461	
-0.396729	
-0.396973	
-0.397339	
-0.396118	
-0.395996	
-0.396301	
-0.396118	
-0.396179	
-0.39563	
-0.39563	
-0.395996	
-0.396057	
-0.396179	
-0.395508	
-0.394653	
-0.395569	
-0.395325	
-0.394531	
-0.395874	
-0.396484	
-0.396484	
-0.397156	
-0.397156	
-0.396667	
-0.396851	
-0.396912	
-0.396362	
-0.395996	
-0.396057	
-0.397156	
-0.39801	
-0.397583	
-0.398071	
-0.399231	
-0.39856	
-0.399231	
-0.400391	
-0.398987	
-0.398804	
-0.399414	
-0.398987	
-0.399902	
-0.399841	
-0.399963	
-0.399841	
-0.399963	
-0.399353	
-0.400513	
-0.400085	
-0.398132	
-0.399048	
-0.398865	
-0.398926	
-0.398987	
-0.398926	
-0.399109	
-0.39917	
-0.399658	
-0.398865	
-0.398865	
-0.39917	
-0.399841	
-0.398804	
-0.399292	
-0.400452	
-0.400696	
-0.401184	
-0.40094	
-0.402466	
-0.400452	
-0.402161	
-0.401428	
-0.400391	
-0.400757	
-0.400085	
-0.400574	
	
