E:\DOCUMENTS AND SETTINGS\JPOTAS\MEUS DOCUMENTOS\UFRJ\RSCI-BM 12 WK SERIES\070730-RSCI-BM-09\RSCI-BM-09-LEMG\070730-RSCI-BM-09-LEMG-0002.ACQ
0.025000 msec/sample
1 channel
Analog input
Volts
CH1	
2000	
-0.407349	
-0.408508	
-0.407776	
-0.407593	
-0.406494	
-0.406006	
-0.40741	
-0.407959	
-0.408142	
-0.40802	
-0.405151	
-0.405334	
-0.406555	
-0.407288	
-0.406921	
-0.406067	
-0.406494	
-0.406799	
-0.407227	
-0.40741	
-0.406982	
-0.408203	
-0.407837	
-0.407654	
-0.407959	
-0.408386	
-0.408875	
-0.407593	
-0.407593	
-0.407532	
-0.408142	
-0.408569	
-0.407959	
-0.407654	
-0.407288	
-0.407227	
-0.407166	
-0.406738	
-0.408447	
-0.40741	
-0.407288	
-0.406311	
-0.407593	
-0.407776	
-0.40863	
-0.407776	
-0.407959	
-0.406372	
-0.406616	
-0.407104	
-0.406921	
-0.406372	
-0.406494	
-0.405762	
-0.405457	
-0.406311	
-0.406982	
-0.406311	
-0.406982	
-0.406067	
-0.405579	
-0.406738	
-0.407715	
-0.40741	
-0.407104	
-0.406738	
-0.405945	
-0.406616	
-0.407654	
-0.407104	
-0.406616	
-0.405884	
-0.406006	
-0.406311	
-0.406006	
-0.40686	
-0.405823	
-0.406006	
-0.40448	
-0.40564	
-0.406494	
-0.406677	
-0.405884	
-0.405029	
-0.403992	
-0.404297	
-0.404724	
-0.405396	
-0.404541	
-0.404297	
-0.403748	
-0.404114	
-0.404846	
-0.404846	
-0.403992	
-0.404419	
-0.40271	
-0.403076	
-0.403503	
-0.405457	
-0.404053	
-0.404175	
-0.40448	
-0.404724	
-0.405334	
-0.405762	
-0.406189	
-0.406494	
-0.406006	
-0.405762	
-0.406372	
-0.406128	
-0.405457	
-0.405334	
-0.404907	
-0.403931	
-0.404785	
-0.405212	
-0.404846	
-0.404724	
-0.404236	
-0.404541	
-0.405518	
-0.405396	
-0.405396	
-0.405762	
-0.405701	
-0.404053	
-0.405945	
-0.406128	
-0.406677	
-0.406006	
-0.406311	
-0.405029	
-0.405701	
-0.405884	
-0.406677	
-0.405945	
-0.405701	
-0.404907	
-0.405884	
-0.406311	
-0.405762	
-0.405823	
-0.406372	
-0.404968	
-0.404663	
-0.405273	
-0.40625	
-0.404541	
-0.404602	
-0.404175	
-0.403992	
-0.404053	
-0.404358	
-0.404053	
-0.403809	
-0.40332	
-0.403503	
-0.403564	
-0.40332	
-0.403625	
-0.40387	
-0.403503	
-0.4021	
-0.404236	
-0.404968	
-0.404785	
-0.404053	
-0.403564	
-0.403076	
-0.403503	
-0.40332	
-0.404297	
-0.403564	
-0.403137	
-0.402222	
-0.403809	
-0.404541	
-0.404175	
-0.403259	
-0.402954	
-0.401306	
-0.401489	
-0.402161	
-0.403381	
-0.402161	
-0.402161	
-0.401855	
-0.402283	
-0.403076	
-0.40332	
-0.403015	
-0.403198	
-0.402649	
-0.403137	
-0.403259	
-0.399414	
-0.383057	
-0.38092	
-0.380798	
-0.380615	
-0.382019	
-0.389954	
-0.403625	
-0.406494	
-0.405457	
-0.404541	
-0.404602	
-0.406616	
-0.40509	
-0.404907	
-0.40448	
-0.404785	
-0.405151	
-0.40564	
-0.406494	
-0.406128	
-0.405212	
-0.403564	
-0.404114	
-0.404236	
-0.403931	
-0.403503	
-0.40387	
-0.402161	
-0.402893	
-0.403625	
-0.403992	
-0.403809	
-0.403503	
-0.402466	
-0.402466	
-0.403564	
-0.40387	
-0.40387	
-0.403503	
-0.402588	
-0.403564	
-0.40387	
-0.404175	
-0.404175	
-0.403625	
-0.403442	
-0.404053	
-0.404785	
-0.406372	
-0.405212	
-0.405457	
-0.405518	
-0.405762	
-0.40625	
-0.407776	
-0.407959	
-0.406494	
-0.406738	
-0.40686	
-0.40625	
-0.408569	
-0.407471	
-0.407715	
-0.408386	
-0.409058	
-0.410706	
-0.413696	
-0.415771	
-0.417786	
-0.419983	
-0.423218	
-0.426697	
-0.432007	
-0.434326	
-0.437622	
-0.442688	
-0.446838	
-0.450806	
-0.453979	
-0.455933	
-0.457703	
-0.460144	
-0.46167	
-0.461914	
-0.463257	
-0.463074	
-0.462952	
-0.461609	
-0.461731	
-0.460938	
-0.460205	
-0.459778	
-0.456726	
-0.455994	
-0.4552	
-0.454163	
-0.45459	
-0.453186	
-0.452881	
-0.452332	
-0.453003	
-0.453064	
-0.454346	
-0.455078	
-0.4552	
-0.455994	
-0.456543	
-0.457642	
-0.459167	
-0.459717	
-0.461304	
-0.461914	
-0.464783	
-0.466187	
-0.467224	
-0.468994	
-0.467224	
-0.467346	
-0.467896	
-0.467773	
-0.468628	
-0.468262	
-0.468506	
-0.467651	
-0.468018	
-0.468323	
-0.468384	
-0.468262	
-0.465393	
-0.464172	
-0.46344	
-0.462463	
-0.461609	
-0.460144	
-0.458435	
-0.455505	
-0.456055	
-0.454468	
-0.453735	
-0.453674	
-0.450806	
-0.44989	
-0.448792	
-0.448486	
-0.44812	
-0.447266	
-0.447144	
-0.445129	
-0.44519	
-0.44458	
-0.444336	
-0.443604	
-0.442383	
-0.441345	
-0.440002	
-0.439209	
-0.438477	
-0.437439	
-0.43634	
-0.433716	
-0.434631	
-0.433594	
-0.432922	
-0.431519	
-0.427551	
-0.425476	
-0.421997	
-0.417725	
-0.414612	
-0.407837	
-0.401733	
-0.394592	
-0.387207	
-0.37915	
-0.370789	
-0.361877	
-0.352722	
-0.343018	
-0.333557	
-0.323547	
-0.317444	
-0.3078	
-0.299683	
-0.291992	
-0.284424	
-0.27832	
-0.272278	
-0.266296	
-0.261475	
-0.256653	
-0.252808	
-0.251099	
-0.251953	
-0.25116	
-0.252625	
-0.254211	
-0.256775	
-0.259888	
-0.263672	
-0.267212	
-0.269958	
-0.273682	
-0.276855	
-0.281189	
-0.286072	
-0.290894	
-0.295532	
-0.298828	
-0.30426	
-0.309326	
-0.313904	
-0.317261	
-0.320923	
-0.323975	
-0.327759	
-0.332336	
-0.335266	
-0.338501	
-0.339783	
-0.344604	
-0.347229	
-0.350159	
-0.351807	
-0.35376	
-0.354919	
-0.35614	
-0.361084	
-0.360779	
-0.362061	
-0.363403	
-0.364929	
-0.365784	
-0.367065	
-0.369507	
-0.368225	
-0.368347	
-0.369507	
-0.369629	
-0.371277	
-0.371155	
-0.371948	
-0.37146	
-0.372986	
-0.373901	
-0.374695	
-0.376221	
-0.376648	
-0.376404	
-0.378052	
-0.380371	
-0.380676	
-0.381104	
-0.381104	
-0.38147	
-0.382202	
-0.382507	
-0.382507	
-0.381104	
-0.38031	
-0.3797	
-0.378601	
-0.378906	
-0.377991	
-0.377258	
-0.375854	
-0.376526	
-0.376526	
-0.375549	
-0.376465	
-0.37384	
-0.37207	
-0.371887	
-0.371399	
-0.370239	
-0.368835	
-0.367981	
-0.366333	
-0.366028	
-0.36615	
-0.365601	
-0.366028	
-0.36438	
-0.363098	
-0.362854	
-0.364563	
-0.36261	
-0.36261	
-0.362366	
-0.362671	
-0.362488	
-0.363892	
-0.363342	
-0.363098	
-0.363403	
-0.36322	
-0.362488	
-0.365234	
-0.364502	
-0.365112	
-0.364807	
-0.365662	
-0.367004	
-0.368469	
-0.369202	
-0.370361	
-0.370422	
-0.36969	
-0.370422	
-0.373962	
-0.373169	
-0.373352	
-0.373047	
-0.374207	
-0.375183	
-0.376709	
-0.377625	
-0.377502	
-0.377563	
-0.378235	
-0.379639	
-0.380615	
-0.38031	
-0.380066	
-0.380188	
-0.381104	
-0.381348	
-0.382019	
-0.382019	
-0.381775	
-0.380676	
-0.381226	
-0.382019	
-0.382141	
-0.382874	
-0.382507	
-0.382141	
-0.383667	
-0.384094	
-0.384705	
-0.384277	
-0.38446	
-0.383606	
-0.383545	
-0.385559	
-0.384949	
-0.385071	
-0.384094	
-0.385437	
-0.385376	
-0.386047	
-0.385986	
-0.385071	
-0.385132	
-0.384949	
-0.385803	
-0.387146	
-0.386353	
-0.386047	
-0.38739	
-0.387817	
-0.388245	
-0.389099	
-0.389282	
-0.388428	
-0.387451	
-0.388916	
-0.388855	
-0.389099	
-0.388428	
-0.388916	
-0.388611	
-0.389648	
-0.390015	
-0.390381	
-0.390869	
-0.390198	
-0.389465	
-0.390564	
-0.391235	
-0.390747	
-0.390564	
-0.390625	
-0.389526	
-0.390808	
-0.392334	
-0.391357	
-0.391846	
-0.390991	
-0.391296	
-0.391113	
-0.391357	
-0.391113	
-0.390442	
-0.391296	
-0.390137	
-0.391785	
-0.392334	
-0.391174	
-0.392273	
-0.390747	
-0.392212	
-0.392151	
-0.392822	
-0.391602	
-0.390869	
-0.391052	
-0.391785	
-0.392029	
-0.391479	
-0.390991	
-0.390564	
-0.388733	
-0.389709	
-0.389282	
-0.390015	
-0.38916	
-0.390015	
-0.389954	
-0.390686	
-0.392151	
-0.391357	
-0.391479	
-0.391724	
-0.391357	
-0.392151	
-0.391907	
-0.392212	
-0.391724	
-0.392212	
-0.39093	
-0.392456	
-0.392639	
-0.392517	
-0.392273	
-0.391418	
-0.392334	
-0.392639	
-0.39325	
-0.392944	
-0.39209	
-0.393005	
-0.392517	
-0.393311	
-0.393127	
-0.3927	
-0.392151	
-0.390442	
-0.392212	
-0.391174	
-0.392395	
-0.391724	
-0.391907	
-0.391785	
-0.392578	
-0.393616	
-0.392578	
-0.393433	
-0.3927	
-0.392334	
-0.39325	
-0.393494	
-0.393494	
-0.393677	
-0.394226	
-0.393616	
-0.394836	
-0.394958	
-0.394958	
-0.395752	
-0.393555	
-0.394714	
-0.395142	
-0.395874	
-0.394897	
-0.394287	
-0.39447	
-0.394592	
-0.395264	
-0.39502	
-0.394409	
-0.394775	
-0.392639	
-0.395142	
-0.394287	
-0.39502	
-0.394409	
-0.39502	
-0.395142	
-0.395447	
-0.396423	
-0.396057	
-0.396667	
-0.395996	
-0.396057	
-0.396973	
-0.395874	
-0.39624	
-0.396484	
-0.395935	
-0.395996	
-0.396484	
-0.397095	
-0.396362	
-0.397461	
-0.396667	
-0.396179	
-0.397278	
-0.395996	
-0.39679	
-0.396362	
-0.396606	
-0.396423	
-0.397217	
-0.397827	
-0.396667	
-0.397583	
-0.396423	
-0.395264	
-0.396545	
-0.397095	
-0.39624	
-0.395447	
-0.395203	
-0.395752	
-0.396118	
-0.396484	
-0.396057	
-0.396851	
-0.395691	
-0.395813	
-0.397217	
-0.396545	
-0.396545	
-0.396912	
-0.396484	
-0.396301	
-0.397034	
-0.397644	
-0.396301	
-0.396973	
-0.395569	
-0.395386	
-0.396667	
-0.396851	
-0.396545	
-0.395996	
-0.395813	
-0.396057	
-0.396179	
-0.396301	
-0.396057	
-0.395813	
-0.394104	
-0.394714	
-0.395691	
-0.395264	
-0.39447	
-0.394775	
-0.394104	
-0.394653	
-0.394897	
-0.395264	
-0.394409	
-0.394409	
-0.393127	
-0.394287	
-0.394104	
-0.394714	
-0.394592	
-0.394592	
-0.394531	
-0.395447	
-0.395752	
-0.395752	
-0.39679	
-0.395996	
-0.396118	
-0.396851	
-0.397827	
-0.396667	
-0.396118	
-0.395569	
-0.394653	
-0.395508	
-0.396484	
-0.395752	
-0.395935	
-0.394775	
-0.39502	
-0.396118	
-0.396118	
-0.395935	
-0.396362	
-0.395813	
-0.395874	
-0.396667	
-0.398438	
-0.396729	
-0.397339	
-0.396362	
-0.396912	
-0.396729	
-0.397705	
-0.397156	
-0.396912	
-0.395935	
-0.397095	
-0.397583	
-0.398132	
-0.397644	
-0.396973	
-0.396301	
-0.396423	
-0.39679	
-0.397522	
-0.396362	
-0.396179	
-0.395081	
-0.39624	
-0.396667	
-0.396545	
-0.396545	
-0.39502	
-0.394043	
-0.394836	
-0.395752	
-0.395508	
-0.39502	
-0.394775	
-0.393738	
-0.395325	
-0.395691	
-0.395691	
-0.396118	
-0.395386	
-0.394287	
-0.394714	
-0.395752	
-0.395996	
-0.395325	
-0.395264	
-0.393555	
-0.395691	
-0.395386	
-0.395142	
-0.394958	
-0.395447	
-0.393311	
-0.393494	
-0.39502	
-0.394897	
-0.394226	
-0.393738	
-0.392395	
-0.394165	
-0.394226	
-0.393982	
-0.393555	
-0.39386	
-0.392883	
-0.393372	
-0.394714	
-0.395386	
-0.394836	
-0.394897	
-0.393738	
-0.39447	
-0.395386	
-0.394897	
-0.394165	
-0.394043	
-0.392212	
-0.394287	
-0.394714	
-0.395142	
-0.394165	
-0.394226	
-0.393799	
-0.394653	
-0.395874	
-0.395325	
-0.394897	
-0.394775	
-0.394287	
-0.394775	
-0.395874	
-0.396362	
-0.394958	
-0.394775	
-0.393494	
-0.394714	
-0.395935	
-0.395386	
-0.394287	
-0.394104	
-0.392822	
-0.394409	
-0.395203	
-0.395325	
-0.394531	
-0.394531	
-0.394287	
-0.395264	
-0.396729	
-0.395691	
-0.394958	
-0.394226	
-0.394592	
-0.394348	
-0.394958	
-0.395203	
-0.394287	
-0.39447	
-0.393616	
-0.395142	
-0.396362	
-0.39563	
-0.395081	
-0.394592	
-0.394104	
-0.395081	
-0.395142	
-0.396179	
-0.394958	
-0.394775	
-0.393738	
-0.395447	
-0.397095	
-0.39563	
-0.395386	
-0.394897	
-0.394958	
-0.395142	
-0.395447	
-0.39502	
-0.39502	
-0.394653	
-0.393494	
-0.395081	
-0.396973	
-0.396118	
-0.39563	
-0.395813	
-0.395325	
-0.397339	
-0.398499	
-0.39801	
-0.398071	
-0.397339	
-0.396851	
-0.3974	
-0.398621	
-0.397095	
-0.395752	
-0.395691	
-0.394714	
-0.395508	
-0.395935	
-0.395386	
-0.395386	
-0.395081	
-0.392761	
-0.395203	
-0.395691	
-0.395752	
-0.394348	
-0.394348	
-0.392639	
-0.393555	
-0.394409	
-0.393494	
-0.393311	
-0.392761	
-0.391846	
-0.39325	
-0.394409	
-0.393616	
-0.393066	
-0.393066	
-0.392395	
-0.393677	
-0.394104	
-0.393433	
-0.393311	
-0.392761	
-0.390991	
-0.393066	
-0.393555	
-0.393921	
-0.392578	
-0.392456	
-0.391663	
-0.392822	
-0.394043	
-0.392883	
-0.391968	
-0.391846	
-0.391052	
-0.3927	
-0.393372	
-0.39325	
-0.392029	
-0.392456	
-0.392334	
-0.392822	
-0.393738	
-0.393677	
-0.392944	
-0.393433	
-0.391968	
-0.394104	
-0.394226	
-0.395935	
-0.394531	
-0.394958	
-0.392456	
-0.394409	
-0.395386	
-0.394287	
-0.394165	
-0.393738	
-0.391663	
-0.393311	
-0.393982	
-0.393677	
-0.392212	
-0.392029	
-0.391479	
-0.392639	
-0.392944	
-0.392334	
-0.392578	
-0.392334	
-0.390564	
-0.393188	
-0.393433	
-0.393372	
-0.391968	
-0.392395	
-0.391174	
-0.391724	
-0.393921	
-0.392761	
-0.392578	
-0.392212	
-0.391479	
-0.392761	
-0.393616	
-0.393066	
-0.392822	
-0.392944	
-0.391479	
-0.392578	
-0.394165	
-0.393616	
-0.393677	
-0.393799	
-0.391785	
-0.394226	
-0.394104	
-0.39447	
-0.393372	
-0.393127	
-0.391968	
-0.392639	
-0.394043	
-0.393066	
-0.393372	
-0.39325	
-0.392395	
-0.393494	
-0.39447	
-0.394104	
-0.393494	
-0.393555	
-0.392395	
-0.392883	
-0.394531	
-0.393921	
-0.393982	
-0.394348	
-0.392029	
-0.394409	
-0.394775	
-0.394836	
-0.39502	
-0.395142	
-0.393494	
-0.394592	
-0.396545	
-0.39563	
-0.395569	
-0.395569	
-0.394958	
-0.395447	
-0.396423	
-0.39624	
-0.396057	
-0.396057	
-0.394287	
-0.395203	
-0.395874	
-0.395691	
-0.395325	
-0.394958	
-0.3927	
-0.39502	
-0.39447	
-0.395691	
-0.39447	
-0.393799	
-0.392883	
-0.394043	
-0.394714	
-0.394287	
-0.394592	
-0.394287	
-0.392578	
-0.39447	
-0.394775	
-0.39563	
-0.394653	
-0.393982	
-0.392944	
-0.393616	
-0.394043	
-0.393433	
-0.392944	
-0.392883	
-0.39209	
-0.393188	
-0.393188	
-0.395142	
-0.393738	
-0.392639	
-0.391968	
-0.392883	
-0.393433	
-0.393799	
-0.392944	
-0.3927	
-0.392639	
-0.39325	
-0.39325	
-0.394104	
-0.394226	
-0.393799	
-0.393005	
-0.393433	
-0.394226	
-0.394714	
-0.393616	
-0.394226	
-0.393188	
-0.394592	
-0.394958	
-0.395935	
-0.395874	
-0.395386	
-0.394592	
-0.394897	
-0.395874	
-0.395935	
-0.394958	
-0.394897	
-0.394104	
-0.395325	
-0.395264	
-0.39624	
-0.396423	
-0.39563	
-0.394897	
-0.394348	
-0.395447	
-0.39624	
-0.395996	
-0.395691	
-0.393982	
-0.395813	
-0.395874	
-0.396545	
-0.396423	
-0.395874	
-0.395996	
-0.395752	
-0.397095	
-0.397583	
-0.397034	
-0.396667	
-0.39502	
-0.396667	
-0.396545	
-0.397156	
-0.395935	
-0.395325	
-0.394958	
-0.39386	
-0.39447	
-0.395569	
-0.394836	
-0.395264	
-0.394287	
-0.395325	
-0.395081	
-0.39624	
-0.395447	
-0.395752	
-0.395142	
-0.394348	
-0.394653	
-0.396179	
-0.394958	
-0.394775	
-0.393921	
-0.394958	
-0.395081	
-0.395813	
-0.394592	
-0.395142	
-0.394104	
-0.394226	
-0.394531	
-0.395569	
-0.395325	
-0.394897	
-0.394531	
-0.39447	
-0.395325	
-0.396179	
-0.395447	
-0.395142	
-0.394714	
-0.393921	
-0.395081	
-0.395569	
-0.394897	
-0.394592	
-0.394348	
-0.394531	
-0.395081	
-0.39624	
-0.394714	
-0.395874	
-0.394348	
-0.394592	
-0.39447	
-0.395752	
-0.394653	
-0.394714	
-0.394043	
-0.393311	
-0.394592	
-0.395386	
-0.394714	
-0.394531	
-0.394043	
-0.393677	
-0.39386	
-0.394836	
-0.39386	
-0.393433	
-0.393555	
-0.392395	
-0.39386	
-0.394409	
-0.394592	
-0.394348	
-0.393921	
-0.393616	
-0.393921	
-0.394531	
-0.393677	
-0.392944	
-0.393005	
-0.392151	
-0.392639	
-0.392883	
-0.3927	
-0.392273	
-0.390747	
-0.389832	
-0.39032	
-0.391296	
-0.390747	
-0.390991	
-0.391174	
-0.391174	
-0.392334	
-0.393066	
-0.392883	
-0.392456	
-0.391907	
-0.392273	
-0.391663	
-0.392639	
-0.393555	
-0.3927	
-0.392761	
-0.392761	
-0.39325	
-0.394287	
-0.394409	
-0.394897	
-0.393555	
-0.392883	
-0.393799	
-0.395264	
-0.394592	
-0.393738	
-0.39386	
-0.393982	
-0.394226	
-0.394409	
-0.394287	
-0.39447	
-0.393799	
-0.392883	
-0.393311	
-0.394104	
-0.394958	
-0.394409	
-0.394287	
-0.394226	
-0.394653	
-0.394714	
-0.395142	
-0.395142	
-0.394775	
-0.394165	
-0.394287	
-0.394348	
-0.395447	
-0.394714	
-0.394592	
-0.394409	
-0.395325	
-0.394287	
-0.394165	
-0.394287	
-0.394043	
-0.393433	
-0.392578	
-0.393372	
-0.39447	
-0.393982	
-0.393005	
-0.391663	
-0.392944	
-0.393066	
-0.392944	
-0.392456	
-0.392761	
-0.392517	
-0.391724	
-0.393005	
-0.39386	
-0.393188	
-0.393616	
-0.391907	
-0.393799	
-0.393677	
-0.394287	
-0.39386	
-0.394348	
-0.392822	
-0.393127	
-0.393433	
-0.394165	
-0.393433	
-0.393066	
-0.392273	
-0.393738	
-0.393433	
-0.393738	
-0.393188	
-0.393799	
-0.392883	
-0.392883	
-0.393188	
-0.393616	
-0.392883	
-0.3927	
-0.391724	
-0.392334	
-0.392639	
-0.392944	
-0.393066	
-0.392761	
-0.391113	
-0.391357	
-0.391296	
-0.392456	
-0.391296	
-0.391479	
-0.390625	
-0.391724	
-0.391479	
-0.3927	
-0.392578	
-0.392517	
-0.390991	
-0.391235	
-0.391968	
-0.391418	
-0.391174	
-0.390991	
-0.390503	
-0.391235	
-0.391174	
-0.391602	
-0.391785	
-0.391479	
-0.390259	
-0.390137	
-0.390137	
-0.391357	
-0.390198	
-0.389771	
-0.389282	
-0.389771	
-0.389343	
-0.389587	
-0.389954	
-0.38916	
-0.388428	
-0.387878	
-0.387573	
-0.38855	
-0.388	
-0.387695	
-0.387329	
-0.386536	
-0.388	
-0.388306	
-0.388489	
-0.388306	
-0.388184	
-0.387451	
-0.388062	
-0.388672	
-0.388794	
-0.389526	
-0.389343	
-0.389221	
-0.389709	
-0.389771	
-0.390381	
-0.389404	
-0.388794	
-0.387634	
-0.388672	
-0.388672	
-0.388123	
-0.388245	
-0.387634	
-0.387939	
-0.388611	
-0.388916	
-0.389404	
-0.389465	
-0.389099	
-0.388794	
-0.388367	
-0.389771	
-0.389221	
-0.388977	
-0.388428	
-0.389099	
-0.389099	
-0.389038	
-0.390259	
-0.389038	
-0.389587	
-0.388184	
-0.38739	
-0.389282	
-0.388916	
-0.38855	
-0.387756	
-0.387512	
-0.387695	
-0.387939	
-0.388977	
-0.388	
-0.388184	
-0.38678	
-0.386353	
-0.387817	
-0.38739	
-0.38623	
-0.385925	
-0.385681	
-0.385986	
-0.386108	
-0.387146	
-0.38562	
-0.386658	
-0.385376	
-0.385376	
-0.38678	
-0.386292	
-0.38623	
-0.385559	
-0.384277	
-0.384827	
-0.386292	
-0.386902	
-0.386414	
-0.386108	
-0.385376	
-0.38446	
-0.385315	
-0.385742	
-0.385437	
-0.384827	
-0.384094	
-0.383301	
-0.384521	
-0.384827	
-0.384277	
-0.38385	
-0.38324	
-0.38324	
-0.383972	
-0.382935	
-0.383911	
-0.384094	
-0.382813	
-0.383301	
-0.384644	
-0.384399	
-0.385193	
-0.384583	
-0.384338	
-0.382935	
-0.384583	
-0.383179	
-0.383728	
-0.383484	
-0.383118	
-0.383301	
-0.383606	
-0.383545	
-0.384338	
-0.383911	
-0.384155	
-0.382874	
-0.383667	
-0.383362	
-0.384277	
-0.384033	
-0.383057	
-0.383972	
-0.383972	
-0.38385	
-0.384644	
-0.383423	
-0.383423	
-0.382507	
-0.382874	
-0.382751	
-0.382629	
-0.382874	
-0.381653	
-0.382324	
-0.383057	
-0.38324	
-0.383606	
-0.383301	
-0.384033	
-0.382629	
-0.382813	
-0.382874	
-0.382813	
-0.382751	
-0.382324	
-0.38269	
-0.382507	
-0.382874	
-0.383728	
-0.38324	
-0.383606	
-0.382385	
-0.382446	
-0.383057	
-0.383057	
-0.38269	
-0.382385	
-0.38324	
-0.382935	
-0.383179	
-0.384094	
-0.384094	
-0.383545	
-0.38269	
-0.383057	
-0.382935	
-0.383911	
-0.382874	
-0.382568	
-0.382324	
-0.382813	
-0.382751	
-0.383484	
-0.383545	
-0.383606	
-0.382629	
-0.383179	
-0.384033	
-0.38385	
-0.383972	
-0.384338	
-0.384583	
-0.384827	
-0.385559	
-0.386108	
-0.386108	
-0.384583	
-0.384338	
-0.383789	
-0.384277	
-0.382568	
-0.382935	
-0.382813	
-0.382874	
-0.382568	
-0.382568	
-0.38324	
-0.383057	
-0.382141	
-0.381958	
-0.381287	
-0.381042	
-0.38147	
-0.380737	
-0.380188	
-0.380554	
-0.379822	
-0.38031	
-0.381287	
-0.380371	
-0.380371	
-0.380676	
-0.380371	
-0.379761	
-0.380127	
-0.38031	
-0.379883	
-0.380249	
-0.379211	
-0.380005	
-0.380859	
-0.379639	
-0.379517	
-0.380005	
-0.379578	
-0.380066	
-0.379517	
-0.379517	
-0.379211	
-0.379089	
-0.37854	
-0.379028	
-0.3797	
-0.379272	
-0.379639	
-0.379272	
-0.378479	
-0.380005	
-0.379761	
-0.379639	
-0.379578	
-0.379822	
-0.379211	
-0.380066	
-0.380432	
-0.380249	
-0.381287	
-0.380798	
-0.380005	
-0.381653	
-0.380981	
-0.380249	
-0.380615	
-0.38092	
-0.380432	
-0.380737	
-0.380127	
-0.3797	
-0.380493	
-0.3797	
-0.378113	
-0.37854	
-0.379089	
-0.378479	
-0.378906	
-0.377869	
-0.378601	
-0.378967	
-0.379028	
-0.379028	
-0.379761	
-0.378967	
-0.377686	
-0.379822	
-0.37793	
-0.379395	
-0.378906	
-0.378723	
-0.378662	
-0.378784	
-0.379028	
-0.379211	
-0.37915	
-0.379211	
-0.377991	
-0.379944	
-0.379517	
-0.379578	
-0.379395	
-0.379272	
-0.380005	
-0.380249	
-0.380554	
-0.380493	
-0.380676	
-0.380188	
-0.379517	
-0.379883	
-0.378845	
-0.380371	
-0.379578	
-0.378601	
-0.379517	
-0.379395	
-0.380249	
-0.3797	
-0.380249	
-0.379883	
-0.379822	
-0.379761	
-0.379395	
-0.380493	
-0.379578	
-0.379944	
-0.379761	
-0.380371	
-0.380737	
-0.380676	
-0.381104	
-0.381165	
-0.380371	
-0.381226	
-0.381226	
-0.381836	
-0.381287	
-0.381897	
-0.381836	
-0.380432	
-0.382385	
-0.382507	
-0.382324	
-0.382324	
-0.382202	
-0.382141	
-0.382568	
-0.382446	
-0.38092	
-0.381836	
-0.381897	
-0.380493	
-0.381714	
-0.381409	
-0.381226	
-0.381714	
-0.379517	
-0.380188	
-0.379944	
-0.380432	
-0.379272	
-0.380432	
-0.380981	
-0.380371	
-0.38208	
-0.381287	
-0.381042	
-0.381897	
-0.381165	
-0.381653	
-0.381226	
-0.379883	
-0.380005	
-0.3797	
-0.379395	
-0.379517	
-0.379761	
-0.379639	
-0.379272	
-0.380005	
-0.378601	
-0.380005	
-0.379822	
-0.378723	
-0.3797	
-0.379028	
-0.379517	
-0.379578	
-0.38031	
-0.380432	
-0.379456	
-0.38031	
-0.379578	
-0.381226	
-0.38092	
-0.380005	
-0.380798	
-0.380066	
-0.380737	
-0.381042	
-0.381226	
-0.38147	
-0.381714	
-0.381775	
-0.381287	
-0.383423	
-0.383301	
-0.381592	
-0.382507	
-0.381653	
-0.382385	
-0.381836	
-0.382446	
-0.381836	
-0.382141	
-0.38269	
-0.382324	
-0.383484	
-0.383179	
-0.382446	
-0.383179	
-0.381836	
-0.38324	
-0.38324	
-0.383057	
-0.38269	
-0.382324	
-0.382996	
-0.383545	
-0.384155	
-0.383667	
-0.383728	
-0.384644	
-0.382874	
-0.383484	
-0.384216	
-0.383972	
-0.383667	
-0.383484	
-0.383606	
-0.38269	
-0.383118	
-0.383057	
-0.38324	
-0.382751	
-0.381348	
-0.38147	
-0.382263	
-0.382446	
-0.382813	
-0.382751	
-0.38324	
-0.383484	
-0.383301	
-0.383301	
-0.383362	
-0.382935	
-0.38269	
-0.382019	
-0.382324	
-0.382629	
-0.383179	
-0.383545	
-0.382629	
-0.382263	
-0.38269	
-0.382935	
-0.382751	
-0.38269	
-0.382629	
-0.382324	
-0.383362	
-0.382629	
-0.384094	
-0.383667	
-0.383606	
-0.383301	
-0.383484	
-0.384094	
-0.383789	
-0.382935	
-0.382813	
-0.382568	
-0.382935	
-0.382202	
-0.383423	
-0.382935	
-0.383057	
-0.38324	
-0.384155	
-0.384155	
-0.383972	
-0.383118	
-0.383057	
-0.382629	
-0.383301	
-0.382935	
-0.383789	
-0.382751	
-0.38269	
-0.382996	
-0.383667	
-0.384216	
-0.383362	
-0.382568	
-0.382568	
-0.381592	
-0.382874	
-0.382507	
-0.383728	
-0.382751	
-0.382568	
-0.382324	
-0.383362	
-0.38385	
-0.383484	
-0.382446	
-0.383545	
-0.382263	
-0.382263	
-0.382141	
-0.382568	
-0.381531	
-0.381409	
-0.381104	
-0.381409	
-0.380859	
-0.380737	
-0.379639	
-0.379089	
-0.378723	
-0.379028	
-0.38031	
-0.380493	
-0.380981	
-0.381775	
-0.381653	
-0.382629	
-0.382385	
-0.382324	
-0.381958	
-0.381897	
-0.381409	
-0.381958	
-0.382446	
-0.382813	
-0.383118	
-0.382813	
-0.382996	
-0.384216	
-0.384033	
-0.383972	
-0.383911	
-0.383362	
-0.383484	
-0.383667	
-0.384338	
-0.384521	
-0.384033	
-0.384033	
-0.383667	
-0.384705	
-0.384521	
-0.384521	
-0.38446	
-0.382935	
-0.383972	
-0.384216	
-0.38501	
-0.38501	
-0.384521	
-0.384583	
-0.384277	
-0.384766	
-0.385803	
-0.385864	
-0.385559	
-0.385193	
-0.385986	
-0.385376	
-0.38562	
-0.386169	
-0.384827	
	
