C:\DOCUMENTS AND SETTINGS\JASON\DESKTOP\UFRJ\UFRJ EPHYS\RSCI-BM 12 WK SERIES\070806-RSCI-BM-16\RSCI-BM-16-LEMG\070806-RSCI-BM-16-LEMG-0003.ACQ
0.025000 msec/sample
1 channel
Analog input
Volts
CH1	
2000	
-0.386536	
-0.384583	
-0.385925	
-0.38562	
-0.385864	
-0.386108	
-0.386902	
-0.386169	
-0.386475	
-0.385132	
-0.386414	
-0.38623	
-0.386597	
-0.386169	
-0.386169	
-0.386414	
-0.387573	
-0.386597	
-0.386353	
-0.385559	
-0.386353	
-0.38678	
-0.386841	
-0.385925	
-0.384766	
-0.384644	
-0.38623	
-0.386536	
-0.385132	
-0.38623	
-0.384766	
-0.385437	
-0.385071	
-0.385193	
-0.385071	
-0.384644	
-0.38501	
-0.385254	
-0.38501	
-0.385132	
-0.384216	
-0.384827	
-0.384827	
-0.384155	
-0.384155	
-0.383179	
-0.383972	
-0.384766	
-0.384644	
-0.383789	
-0.384216	
-0.383179	
-0.384644	
-0.383728	
-0.38385	
-0.384216	
-0.384033	
-0.384399	
-0.38501	
-0.384521	
-0.384583	
-0.384277	
-0.384766	
-0.384521	
-0.385193	
-0.384644	
-0.38446	
-0.38501	
-0.386475	
-0.38562	
-0.386414	
-0.38501	
-0.38623	
-0.38739	
-0.386963	
-0.386719	
-0.386414	
-0.387268	
-0.387268	
-0.387939	
-0.387451	
-0.387817	
-0.386902	
-0.387573	
-0.387329	
-0.387634	
-0.387634	
-0.386963	
-0.388	
-0.388245	
-0.387451	
-0.387695	
-0.38623	
-0.387512	
-0.387512	
-0.386536	
-0.386536	
-0.385803	
-0.386597	
-0.387146	
-0.386597	
-0.385864	
-0.38501	
-0.38501	
-0.385437	
-0.38501	
-0.384216	
-0.383301	
-0.382813	
-0.384033	
-0.38446	
-0.383728	
-0.384033	
-0.382446	
-0.383057	
-0.382751	
-0.382751	
-0.382568	
-0.382996	
-0.383545	
-0.384155	
-0.383606	
-0.383301	
-0.382813	
-0.383545	
-0.384216	
-0.384094	
-0.38385	
-0.382935	
-0.383057	
-0.384766	
-0.384399	
-0.384705	
-0.383911	
-0.383484	
-0.385315	
-0.384644	
-0.384949	
-0.384644	
-0.384766	
-0.385498	
-0.385742	
-0.385803	
-0.386108	
-0.385193	
-0.385315	
-0.384644	
-0.385681	
-0.385376	
-0.385193	
-0.385498	
-0.386414	
-0.385986	
-0.386169	
-0.385071	
-0.385559	
-0.385925	
-0.386414	
-0.385803	
-0.385376	
-0.385559	
-0.38678	
-0.386536	
-0.385864	
-0.385315	
-0.385681	
-0.385925	
-0.385925	
-0.385803	
-0.385193	
-0.384705	
-0.385498	
-0.385437	
-0.385315	
-0.385498	
-0.385315	
-0.385376	
-0.385376	
-0.386292	
-0.385132	
-0.384766	
-0.384338	
-0.385986	
-0.385986	
-0.386047	
-0.385376	
-0.384705	
-0.385803	
-0.385742	
-0.385071	
-0.384827	
-0.384766	
-0.386047	
-0.386169	
-0.385498	
-0.384949	
-0.383911	
-0.364624	
-0.363403	
-0.365906	
-0.366211	
-0.365601	
-0.366943	
-0.392151	
-0.388977	
-0.38739	
-0.384338	
-0.385132	
-0.385498	
-0.384888	
-0.384888	
-0.384277	
-0.385071	
-0.385193	
-0.385925	
-0.385254	
-0.384705	
-0.38385	
-0.385559	
-0.386169	
-0.385071	
-0.384888	
-0.384583	
-0.385681	
-0.38623	
-0.386169	
-0.386719	
-0.385498	
-0.386902	
-0.387512	
-0.387085	
-0.387207	
-0.386475	
-0.387939	
-0.388123	
-0.388489	
-0.388733	
-0.38739	
-0.386841	
-0.387329	
-0.387817	
-0.386719	
-0.386108	
-0.385986	
-0.38678	
-0.386963	
-0.386597	
-0.386536	
-0.38678	
-0.388428	
-0.389893	
-0.391296	
-0.393738	
-0.395996	
-0.398865	
-0.403442	
-0.405884	
-0.40918	
-0.411194	
-0.415894	
-0.420654	
-0.424133	
-0.429443	
-0.43396	
-0.440491	
-0.446045	
-0.449524	
-0.45282	
-0.453918	
-0.457214	
-0.458252	
-0.457764	
-0.457886	
-0.457947	
-0.45874	
-0.459412	
-0.458496	
-0.458252	
-0.45636	
-0.456543	
-0.456299	
-0.455017	
-0.453735	
-0.451538	
-0.451599	
-0.450928	
-0.450623	
-0.449768	
-0.448975	
-0.448486	
-0.448975	
-0.450012	
-0.449707	
-0.44989	
-0.450378	
-0.451782	
-0.45282	
-0.453064	
-0.453125	
-0.455017	
-0.457336	
-0.459351	
-0.460144	
-0.461121	
-0.461975	
-0.463989	
-0.464844	
-0.464661	
-0.465515	
-0.465088	
-0.46698	
-0.469299	
-0.469055	
-0.469299	
-0.467102	
-0.468933	
-0.469238	
-0.468079	
-0.467468	
-0.465698	
-0.465515	
-0.466492	
-0.464783	
-0.464111	
-0.462708	
-0.462891	
-0.463318	
-0.462952	
-0.462585	
-0.460571	
-0.458496	
-0.456604	
-0.455566	
-0.452942	
-0.449402	
-0.446289	
-0.443237	
-0.440002	
-0.435913	
-0.43103	
-0.426025	
-0.422302	
-0.41803	
-0.411499	
-0.405945	
-0.398499	
-0.394409	
-0.388672	
-0.381409	
-0.373657	
-0.36554	
-0.357849	
-0.349792	
-0.3396	
-0.329834	
-0.319519	
-0.309875	
-0.299988	
-0.290344	
-0.28009	
-0.269165	
-0.260315	
-0.253052	
-0.247314	
-0.242065	
-0.23822	
-0.235229	
-0.234375	
-0.234985	
-0.234192	
-0.233887	
-0.233154	
-0.236023	
-0.238586	
-0.240479	
-0.24292	
-0.246216	
-0.249817	
-0.253601	
-0.257751	
-0.260315	
-0.26416	
-0.269165	
-0.273438	
-0.277527	
-0.281555	
-0.286133	
-0.290039	
-0.294861	
-0.298889	
-0.301636	
-0.304932	
-0.308899	
-0.311707	
-0.31427	
-0.31604	
-0.319275	
-0.321838	
-0.324951	
-0.326721	
-0.328369	
-0.329529	
-0.333618	
-0.333557	
-0.335022	
-0.334717	
-0.33783	
-0.340088	
-0.340332	
-0.340576	
-0.341858	
-0.343323	
-0.34552	
-0.344849	
-0.345398	
-0.344788	
-0.347107	
-0.348999	
-0.34845	
-0.348938	
-0.348206	
-0.35022	
-0.351624	
-0.351624	
-0.351685	
-0.35199	
-0.352966	
-0.354431	
-0.354309	
-0.35437	
-0.353638	
-0.355591	
-0.356689	
-0.356506	
-0.356567	
-0.356873	
-0.35791	
-0.359192	
-0.359314	
-0.359253	
-0.358398	
-0.359924	
-0.360474	
-0.359863	
-0.360229	
-0.360413	
-0.360962	
-0.361755	
-0.361389	
-0.361145	
-0.359924	
-0.360962	
-0.361938	
-0.361694	
-0.361328	
-0.360718	
-0.361877	
-0.362549	
-0.361877	
-0.361267	
-0.360474	
-0.361755	
-0.362976	
-0.361816	
-0.361755	
-0.360291	
-0.361816	
-0.36261	
-0.361816	
-0.362061	
-0.360779	
-0.361328	
-0.362976	
-0.36084	
-0.361145	
-0.358887	
-0.360657	
-0.362427	
-0.361877	
-0.361389	
-0.36084	
-0.361328	
-0.362183	
-0.36145	
-0.361511	
-0.360535	
-0.361755	
-0.363159	
-0.362244	
-0.363037	
-0.361145	
-0.362854	
-0.363708	
-0.363159	
-0.363525	
-0.362671	
-0.364441	
-0.365173	
-0.364197	
-0.364502	
-0.364014	
-0.365662	
-0.36615	
-0.366333	
-0.365723	
-0.365662	
-0.366882	
-0.36676	
-0.367126	
-0.366943	
-0.367371	
-0.368469	
-0.368042	
-0.367981	
-0.366394	
-0.367737	
-0.368286	
-0.368652	
-0.368103	
-0.367615	
-0.367981	
-0.369141	
-0.369568	
-0.368774	
-0.36853	
-0.369141	
-0.370544	
-0.370361	
-0.370178	
-0.369263	
-0.369751	
-0.370361	
-0.37146	
-0.370789	
-0.371338	
-0.371643	
-0.372498	
-0.37207	
-0.372437	
-0.371338	
-0.371521	
-0.37207	
-0.373291	
-0.372314	
-0.372314	
-0.372925	
-0.373596	
-0.373657	
-0.373047	
-0.372803	
-0.372437	
-0.372925	
-0.374084	
-0.372986	
-0.373047	
-0.371887	
-0.373901	
-0.373779	
-0.372864	
-0.373047	
-0.373169	
-0.372864	
-0.372742	
-0.372925	
-0.372192	
-0.372131	
-0.373047	
-0.373108	
-0.37262	
-0.373047	
-0.372803	
-0.372925	
-0.371765	
-0.37323	
-0.373169	
-0.373108	
-0.37384	
-0.374146	
-0.373962	
-0.373718	
-0.374756	
-0.375061	
-0.374084	
-0.375488	
-0.374512	
-0.376343	
-0.377869	
-0.377686	
-0.37793	
-0.377747	
-0.378418	
-0.379272	
-0.378662	
-0.379333	
-0.378784	
-0.379395	
-0.381042	
-0.380127	
-0.380676	
-0.380493	
-0.380981	
-0.381165	
-0.380798	
-0.381104	
-0.381531	
-0.380981	
-0.382141	
-0.381409	
-0.381531	
-0.381348	
-0.38147	
-0.382141	
-0.381592	
-0.381836	
-0.381287	
-0.381653	
-0.382507	
-0.381592	
-0.381836	
-0.381653	
-0.381897	
-0.38208	
-0.380676	
-0.381531	
-0.381104	
-0.38092	
-0.38208	
-0.380127	
-0.379517	
-0.379578	
-0.379944	
-0.379944	
-0.378418	
-0.3797	
-0.379517	
-0.379822	
-0.380554	
-0.379822	
-0.379883	
-0.379517	
-0.380249	
-0.379822	
-0.379456	
-0.380676	
-0.380188	
-0.38092	
-0.381775	
-0.381409	
-0.380981	
-0.380859	
-0.381104	
-0.38147	
-0.381104	
-0.381653	
-0.381836	
-0.381958	
-0.383423	
-0.382935	
-0.382446	
-0.38269	
-0.382446	
-0.382935	
-0.382507	
-0.382385	
-0.382446	
-0.381958	
-0.382874	
-0.382385	
-0.382446	
-0.382263	
-0.382263	
-0.382629	
-0.382935	
-0.382568	
-0.382141	
-0.381287	
-0.384521	
-0.382996	
-0.383057	
-0.382202	
-0.38324	
-0.383728	
-0.383667	
-0.383301	
-0.383301	
-0.382507	
-0.383728	
-0.383362	
-0.382935	
-0.383057	
-0.382874	
-0.382996	
-0.383362	
-0.383301	
-0.382751	
-0.38269	
-0.383301	
-0.38385	
-0.382935	
-0.382751	
-0.381226	
-0.382446	
-0.382813	
-0.382935	
-0.382568	
-0.382141	
-0.381897	
-0.382935	
-0.381897	
-0.381958	
-0.381714	
-0.381958	
-0.382202	
-0.382568	
-0.381714	
-0.381592	
-0.38092	
-0.382446	
-0.381653	
-0.381714	
-0.382568	
-0.382141	
-0.38208	
-0.382385	
-0.382874	
-0.382202	
-0.381836	
-0.383789	
-0.382874	
-0.382629	
-0.383362	
-0.382874	
-0.383301	
-0.383789	
-0.38324	
-0.383118	
-0.382263	
-0.384766	
-0.384521	
-0.384827	
-0.384705	
-0.384888	
-0.385681	
-0.385681	
-0.385254	
-0.38562	
-0.384155	
-0.386658	
-0.386658	
-0.385925	
-0.385742	
-0.386047	
-0.386169	
-0.38678	
-0.385986	
-0.385864	
-0.384766	
-0.386719	
-0.385925	
-0.385559	
-0.385071	
-0.385315	
-0.385559	
-0.385559	
-0.384949	
-0.385193	
-0.383789	
-0.385193	
-0.384766	
-0.383972	
-0.383484	
-0.382019	
-0.383057	
-0.382996	
-0.382874	
-0.382629	
-0.382019	
-0.382629	
-0.382629	
-0.382385	
-0.381836	
-0.381348	
-0.381775	
-0.382202	
-0.382141	
-0.381714	
-0.381653	
-0.382385	
-0.382446	
-0.382324	
-0.382324	
-0.382385	
-0.382629	
-0.38269	
-0.382629	
-0.38269	
-0.382874	
-0.383301	
-0.383423	
-0.383362	
-0.383179	
-0.383057	
-0.383423	
-0.383728	
-0.384705	
-0.384094	
-0.383972	
-0.383728	
-0.384705	
-0.384094	
-0.384216	
-0.384277	
-0.384705	
-0.384583	
-0.386047	
-0.384644	
-0.384338	
-0.383484	
-0.385315	
-0.384888	
-0.384583	
-0.383606	
-0.384827	
-0.384888	
-0.385193	
-0.384888	
-0.384521	
-0.384644	
-0.385254	
-0.385742	
-0.385193	
-0.385315	
-0.383545	
-0.384644	
-0.384033	
-0.385376	
-0.384399	
-0.383972	
-0.383972	
-0.384949	
-0.384277	
-0.38501	
-0.383789	
-0.38446	
-0.383423	
-0.385986	
-0.38446	
-0.38446	
-0.38269	
-0.384644	
-0.384644	
-0.385071	
-0.384277	
-0.385071	
-0.384094	
-0.386292	
-0.384949	
-0.384521	
-0.383179	
-0.384705	
-0.384827	
-0.38446	
-0.384338	
-0.384033	
-0.384338	
-0.385071	
-0.384277	
-0.384216	
-0.384033	
-0.384766	
-0.385376	
-0.384399	
-0.383667	
-0.383057	
-0.384094	
-0.384888	
-0.38446	
-0.384277	
-0.383545	
-0.385193	
-0.384888	
-0.384766	
-0.383789	
-0.384338	
-0.384583	
-0.38501	
-0.385925	
-0.385071	
-0.38501	
-0.384644	
-0.385498	
-0.385498	
-0.385315	
-0.385376	
-0.38562	
-0.386047	
-0.387878	
-0.386536	
-0.386353	
-0.384888	
-0.386658	
-0.387329	
-0.386658	
-0.386719	
-0.386353	
-0.385437	
-0.38739	
-0.386047	
-0.386353	
-0.38623	
-0.386353	
-0.386414	
-0.386169	
-0.384888	
-0.384155	
-0.383789	
-0.385315	
-0.384155	
-0.383728	
-0.382813	
-0.384155	
-0.383484	
-0.382996	
-0.381409	
-0.380981	
-0.381104	
-0.38208	
-0.381592	
-0.381226	
-0.380737	
-0.381287	
-0.381226	
-0.381165	
-0.380371	
-0.380676	
-0.380432	
-0.380798	
-0.382568	
-0.381042	
-0.380615	
-0.379883	
-0.380676	
-0.380798	
-0.380615	
-0.380493	
-0.380432	
-0.381348	
-0.382385	
-0.380615	
-0.381226	
-0.379761	
-0.382813	
-0.381836	
-0.381348	
-0.380493	
-0.381409	
-0.382446	
-0.383911	
-0.382874	
-0.383118	
-0.382935	
-0.384277	
-0.38446	
-0.384338	
-0.383728	
-0.383301	
-0.384216	
-0.384216	
-0.384521	
-0.384338	
-0.384338	
-0.384705	
-0.384583	
-0.385559	
-0.384155	
-0.38385	
-0.383057	
-0.384583	
-0.385132	
-0.384216	
-0.384277	
-0.382996	
-0.384949	
-0.384888	
-0.383606	
-0.382629	
-0.382019	
-0.383972	
-0.384766	
-0.383057	
-0.382996	
-0.381531	
-0.384277	
-0.38324	
-0.38269	
-0.382324	
-0.382507	
-0.383423	
-0.38385	
-0.383484	
-0.38324	
-0.382996	
-0.38385	
-0.38446	
-0.383423	
-0.383118	
-0.38269	
-0.383667	
-0.383484	
-0.383179	
-0.383301	
-0.382813	
-0.383057	
-0.384094	
-0.383423	
-0.382751	
-0.382507	
-0.38324	
-0.383606	
-0.384521	
-0.383606	
-0.383545	
-0.382019	
-0.384644	
-0.383972	
-0.383423	
-0.382263	
-0.383545	
-0.383911	
-0.385193	
-0.383667	
-0.383606	
-0.382324	
-0.385071	
-0.384521	
-0.383911	
-0.383118	
-0.383545	
-0.384888	
-0.38562	
-0.384766	
-0.384766	
-0.383911	
-0.385132	
-0.38623	
-0.385193	
-0.384766	
-0.384521	
-0.38562	
-0.385559	
-0.385559	
-0.385193	
-0.38501	
-0.385254	
-0.386719	
-0.384766	
-0.384705	
-0.383911	
-0.385071	
-0.384888	
-0.385803	
-0.384888	
-0.384827	
-0.383789	
-0.385803	
-0.384277	
-0.383911	
-0.382813	
-0.38385	
-0.383606	
-0.384827	
-0.383118	
-0.382324	
-0.38092	
-0.383118	
-0.382813	
-0.382324	
-0.381104	
-0.380615	
-0.381714	
-0.382324	
-0.381592	
-0.381287	
-0.381348	
-0.381958	
-0.38269	
-0.381592	
-0.381226	
-0.380554	
-0.381592	
-0.382202	
-0.381836	
-0.382141	
-0.381897	
-0.382324	
-0.384033	
-0.382935	
-0.382507	
-0.381409	
-0.383057	
-0.383545	
-0.384644	
-0.383667	
-0.383911	
-0.383423	
-0.386047	
-0.385193	
-0.385315	
-0.38385	
-0.385681	
-0.385986	
-0.387207	
-0.385742	
-0.385864	
-0.385132	
-0.38678	
-0.386902	
-0.385925	
-0.385132	
-0.385132	
-0.386353	
-0.386902	
-0.386047	
-0.385376	
-0.385315	
-0.386047	
-0.387024	
-0.385559	
-0.385071	
-0.384705	
-0.385376	
-0.385803	
-0.385132	
-0.385315	
-0.384949	
-0.384888	
-0.385925	
-0.384521	
-0.384216	
-0.383362	
-0.384216	
-0.384521	
-0.385132	
-0.383728	
-0.383301	
-0.382935	
-0.384949	
-0.384277	
-0.383728	
-0.382507	
-0.383301	
-0.383911	
-0.385315	
-0.383911	
-0.383423	
-0.381653	
-0.383972	
-0.384705	
-0.383789	
-0.383667	
-0.382996	
-0.383911	
-0.38501	
-0.383789	
-0.383667	
-0.383545	
-0.384033	
-0.385132	
-0.383789	
-0.38385	
-0.383362	
-0.384644	
-0.38501	
-0.384216	
-0.384644	
-0.383728	
-0.384644	
-0.386108	
-0.383789	
-0.384033	
-0.382446	
-0.384399	
-0.384277	
-0.384705	
-0.384338	
-0.383972	
-0.382935	
-0.384705	
-0.384949	
-0.384033	
-0.383423	
-0.383179	
-0.384399	
-0.385498	
-0.384521	
-0.383789	
-0.383728	
-0.384399	
-0.385315	
-0.384644	
-0.384338	
-0.384277	
-0.384766	
-0.385803	
-0.384644	
-0.384705	
-0.383301	
-0.384644	
-0.38678	
-0.384888	
-0.384888	
-0.382629	
-0.384888	
-0.38501	
-0.384766	
-0.38446	
-0.383911	
-0.384399	
-0.385254	
-0.384705	
-0.384033	
-0.382751	
-0.383362	
-0.384216	
-0.384399	
-0.383545	
-0.383179	
-0.382446	
-0.383728	
-0.383728	
-0.382324	
-0.381775	
-0.381409	
-0.382629	
-0.383118	
-0.382202	
-0.382202	
-0.381348	
-0.38269	
-0.38385	
-0.382446	
-0.38208	
-0.382141	
-0.383423	
-0.384338	
-0.383057	
-0.383545	
-0.382629	
-0.38446	
-0.385742	
-0.38446	
-0.385193	
-0.383667	
-0.385803	
-0.386475	
-0.387512	
-0.386475	
-0.38678	
-0.386414	
-0.38855	
-0.38855	
-0.387329	
-0.386658	
-0.386719	
-0.388306	
-0.388611	
-0.388062	
-0.387817	
-0.388123	
-0.388672	
-0.388855	
-0.387939	
-0.388184	
-0.388	
-0.388672	
-0.388855	
-0.388367	
-0.388611	
-0.387329	
-0.388245	
-0.389282	
-0.388245	
-0.387573	
-0.386475	
-0.387878	
-0.389099	
-0.388733	
-0.387634	
-0.386169	
-0.386719	
-0.388245	
-0.387085	
-0.386475	
-0.384705	
-0.385803	
-0.385986	
-0.386047	
-0.38501	
-0.384583	
-0.384827	
-0.385864	
-0.385559	
-0.384521	
-0.384766	
-0.384216	
-0.384644	
-0.38501	
-0.384827	
-0.385071	
-0.38501	
-0.385254	
-0.386475	
-0.384949	
-0.384888	
-0.384033	
-0.385559	
-0.386475	
-0.386597	
-0.385986	
-0.385559	
-0.38501	
-0.388245	
-0.386719	
-0.385864	
-0.384094	
-0.386597	
-0.387207	
-0.386719	
-0.386108	
-0.385376	
-0.385986	
-0.386719	
-0.386292	
-0.386169	
-0.385437	
-0.38562	
-0.386353	
-0.385986	
-0.385376	
-0.385864	
-0.385742	
-0.386292	
-0.387756	
-0.385803	
-0.385986	
-0.383972	
-0.386292	
-0.38623	
-0.386841	
-0.386719	
-0.385986	
-0.385986	
-0.387207	
-0.385986	
-0.386108	
-0.384705	
-0.386047	
-0.38623	
-0.386597	
-0.385193	
-0.384216	
-0.384277	
-0.386536	
-0.38562	
-0.385315	
-0.384033	
-0.385193	
-0.385925	
-0.385437	
-0.384644	
-0.384094	
-0.384583	
-0.385376	
-0.385376	
-0.384155	
-0.384338	
-0.384216	
-0.384338	
-0.384338	
-0.383911	
-0.383484	
-0.383545	
-0.384216	
-0.385376	
-0.384094	
-0.383423	
-0.38147	
-0.383972	
-0.383667	
-0.384705	
-0.384277	
-0.384033	
-0.384277	
-0.385681	
-0.383789	
-0.384216	
-0.382568	
-0.384644	
-0.385132	
-0.38501	
-0.384705	
-0.384583	
-0.384827	
-0.38623	
-0.386108	
-0.385864	
-0.385742	
-0.386536	
-0.387512	
-0.387085	
-0.387329	
-0.38623	
-0.386597	
-0.387573	
-0.387573	
-0.386658	
-0.386658	
-0.386475	
-0.387573	
-0.387512	
-0.387939	
-0.387024	
-0.387085	
-0.386169	
-0.388733	
-0.386719	
-0.386597	
-0.384644	
-0.386536	
-0.386658	
-0.387268	
-0.385681	
-0.385193	
-0.385376	
-0.387146	
-0.384827	
-0.384399	
-0.382751	
-0.384277	
-0.384888	
-0.383911	
-0.38324	
-0.382874	
-0.382935	
-0.383606	
-0.383545	
-0.382751	
-0.382141	
-0.382324	
-0.382751	
-0.382629	
-0.383057	
-0.38269	
-0.38269	
-0.382263	
-0.384094	
-0.382935	
-0.382874	
-0.382263	
-0.383301	
-0.383179	
-0.383972	
-0.383301	
-0.383423	
-0.383423	
-0.385376	
-0.383728	
-0.383301	
-0.382446	
-0.38446	
-0.384888	
-0.384277	
-0.384521	
-0.383484	
-0.384583	
-0.385925	
-0.385315	
-0.384888	
-0.383362	
-0.384705	
-0.385254	
-0.385132	
-0.385254	
-0.384399	
-0.384827	
-0.384705	
-0.385925	
-0.38501	
-0.384583	
-0.383972	
-0.385071	
-0.38501	
-0.38562	
-0.385132	
-0.384949	
-0.385498	
-0.386292	
-0.385071	
-0.384827	
-0.383972	
-0.385315	
-0.385559	
-0.384888	
-0.384094	
-0.384277	
-0.384583	
-0.385132	
-0.384766	
-0.384338	
-0.384216	
-0.384583	
-0.385254	
-0.384583	
-0.385254	
-0.38385	
-0.384766	
-0.38501	
-0.385498	
-0.384521	
-0.383423	
-0.383667	
-0.384949	
-0.384766	
-0.384888	
-0.384155	
-0.384216	
-0.385193	
-0.385437	
-0.384277	
-0.383972	
-0.382996	
-0.38446	
-0.384094	
-0.384583	
-0.38385	
-0.383911	
-0.384583	
-0.384521	
-0.384399	
-0.383972	
-0.384033	
-0.38385	
-0.384155	
-0.383789	
-0.38446	
-0.384155	
-0.38446	
-0.383667	
-0.385315	
-0.384033	
-0.383972	
-0.383545	
-0.385376	
-0.384766	
-0.384521	
-0.384338	
-0.384827	
-0.385864	
-0.385925	
-0.385376	
-0.384521	
-0.38446	
-0.385925	
-0.386169	
-0.386475	
-0.386047	
-0.38623	
-0.386353	
-0.386414	
-0.387146	
-0.385864	
-0.385437	
-0.385803	
-0.386536	
-0.386108	
-0.386658	
-0.384949	
-0.38562	
-0.384399	
-0.385925	
-0.384277	
-0.384521	
-0.384094	
-0.384399	
-0.383545	
-0.383972	
-0.382813	
-0.382324	
-0.382324	
-0.382507	
-0.38092	
-0.380127	
-0.380005	
-0.381226	
-0.380859	
-0.38092	
-0.380371	
-0.380249	
-0.381165	
-0.380859	
-0.380676	
-0.379456	
-0.379517	
-0.380188	
-0.379822	
-0.3797	
-0.380432	
-0.379761	
-0.380188	
-0.379639	
-0.381104	
-0.379761	
-0.380188	
-0.37915	
-0.380798	
-0.380737	
-0.381409	
-0.380249	
-0.38092	
-0.380371	
-0.382263	
-0.380493	
-0.381042	
-0.380554	
-0.381836	
-0.382263	
-0.382629	
-0.382385	
-0.382935	
-0.383911	
-0.383606	
-0.38324	
-0.382324	
-0.383057	
-0.383728	
-0.383911	
-0.383789	
-0.383301	
-0.382629	
-0.384033	
-0.383667	
-0.384766	
-0.38324	
-0.383545	
-0.381958	
-0.384277	
-0.383423	
-0.382874	
-0.382629	
-0.383362	
-0.38324	
-0.384033	
-0.38269	
-0.382263	
-0.381348	
-0.382385	
-0.382507	
-0.382935	
-0.381592	
-0.381531	
-0.38147	
-0.382507	
-0.382019	
-0.381775	
-0.38147	
-0.382202	
-0.382935	
-0.382813	
-0.382324	
-0.382019	
-0.382996	
-0.382629	
-0.383057	
-0.380981	
-0.381531	
-0.381592	
-0.382874	
-0.382141	
-0.38208	
-0.381348	
-0.382263	
-0.381653	
-0.38385	
-0.381897	
-0.382263	
-0.380737	
-0.382324	
-0.38208	
-0.383057	
-0.382324	
-0.38269	
-0.381897	
-0.383545	
-0.382568	
-0.382385	
-0.382202	
-0.383057	
-0.382935	
-0.38324	
-0.382751	
-0.38269	
-0.383667	
-0.383484	
-0.383911	
-0.382202	
-0.382874	
-0.382202	
-0.384094	
-0.383667	
-0.384216	
-0.383545	
-0.384521	
-0.384216	
-0.385559	
-0.38385	
-0.383667	
-0.382996	
-0.383972	
-0.384094	
-0.384888	
-0.384216	
-0.383789	
-0.383118	
-0.384521	
-0.383179	
-0.383545	
-0.383301	
-0.383911	
-0.384033	
-0.383423	
-0.38324	
-0.382141	
-0.382935	
-0.383179	
-0.383362	
-0.382019	
-0.381958	
-0.380798	
-0.38269	
-0.381714	
-0.381409	
-0.380493	
-0.381592	
-0.380371	
-0.381165	
-0.379333	
-0.38031	
-0.380371	
-0.380859	
-0.380188	
-0.380737	
-0.380005	
-0.380615	
-0.379639	
-0.381226	
-0.380432	
-0.380066	
-0.379089	
-0.380859	
-0.380798	
-0.381348	
-0.380676	
-0.380798	
-0.381226	
-0.38208	
-0.382019	
-0.381531	
-0.381287	
-0.381592	
-0.383789	
-0.383057	
-0.383179	
-0.382385	
-0.384277	
-0.383728	
-0.384216	
-0.383179	
-0.38385	
-0.38385	
-0.384949	
-0.384949	
-0.385315	
-0.384583	
-0.384338	
-0.38385	
-0.385803	
-0.384827	
-0.384277	
-0.382996	
-0.383606	
-0.384705	
-0.385315	
-0.384399	
-0.384216	
-0.383362	
-0.384583	
-0.384766	
-0.383606	
-0.38324	
-0.383728	
-0.384277	
-0.383362	
-0.383301	
-0.382324	
-0.383789	
-0.382568	
-0.382935	
-0.381897	
-0.38208	
-0.381958	
-0.382813	
-0.382751	
-0.382568	
-0.382019	
-0.382385	
-0.382141	
-0.382813	
-0.382507	
-0.382019	
-0.381592	
-0.381348	
-0.382141	
-0.382996	
-0.382263	
-0.382141	
-0.381958	
-0.382935	
-0.382629	
-0.381958	
-0.381958	
-0.382446	
-0.382629	
-0.382446	
-0.382019	
-0.382446	
-0.38324	
-0.382813	
-0.38324	
-0.382202	
-0.382568	
-0.38269	
-0.38385	
-0.382751	
-0.38324	
-0.382019	
-0.382996	
-0.382751	
-0.383728	
-0.382629	
-0.382629	
-0.381958	
-0.382751	
-0.382385	
-0.383423	
-0.382751	
-0.383118	
-0.382385	
-0.383057	
-0.383423	
-0.38269	
-0.38269	
-0.382263	
-0.383057	
-0.383606	
-0.383118	
-0.383301	
-0.383728	
-0.383423	
-0.383423	
-0.38208	
-0.382874	
-0.383118	
-0.383728	
-0.383606	
-0.383911	
-0.383057	
-0.383911	
-0.382263	
-0.384338	
-0.383362	
-0.383545	
-0.382202	
-0.383911	
-0.382935	
-0.383362	
-0.381775	
-0.382935	
-0.382446	
-0.383484	
-0.383179	
-0.382324	
-0.382202	
-0.381348	
-0.382019	
-0.381714	
-0.381531	
-0.381653	
-0.381775	
-0.381409	
-0.381287	
-0.380127	
-0.380493	
-0.38092	
-0.381287	
-0.381226	
-0.381897	
-0.380981	
-0.381775	
-0.380371	
-0.382263	
-0.381348	
-0.381714	
-0.381287	
-0.383179	
-0.382874	
-0.383057	
-0.382019	
-0.383423	
-0.383728	
-0.384888	
-0.385559	
-0.384827	
-0.385132	
-0.384766	
-0.385986	
-0.385864	
-0.386475	
-0.386414	
-0.387268	
-0.386719	
-0.386963	
-0.385925	
-0.386841	
-0.386902	
-0.387695	
-0.387207	
-0.387939	
-0.387085	
-0.387695	
-0.386414	
-0.387268	
-0.38739	
-0.386902	
-0.387146	
-0.387817	
-0.387268	
-0.387695	
-0.38623	
-0.38678	
-0.386841	
-0.387878	
-0.387573	
-0.386658	
-0.386047	
-0.386169	
-0.386719	
-0.385803	
-0.386047	
-0.385132	
-0.385742	
-0.384277	
-0.384949	
-0.38324	
-0.384338	
-0.384155	
-0.383972	
-0.383545	
-0.384033	
-0.383789	
-0.384338	
-0.384033	
-0.384399	
-0.383362	
-0.383789	
-0.382874	
-0.384705	
-0.383972	
-0.384338	
-0.383118	
-0.384888	
-0.384705	
-0.384949	
-0.385376	
-0.38446	
-0.384399	
-0.384216	
-0.385437	
-0.385498	
-0.385559	
-0.385254	
-0.386169	
-0.385254	
-0.385803	
-0.384644	
-0.385071	
-0.385498	
-0.385681	
-0.385376	
-0.384766	
-0.384705	
	
