C:\DOCUMENTS AND SETTINGS\JASON\DESKTOP\UFRJ\UFRJ EPHYS\RSCI-BM 12 WK SERIES\070806-RSCI-BM-16\RSCI-BM-16-LEMG\070806-RSCI-BM-16-LEMG-0019.ACQ
0.025000 msec/sample
1 channel
Analog input
Volts
CH1	
2000	
-0.386536	
-0.38562	
-0.386353	
-0.385742	
-0.386108	
-0.385437	
-0.386108	
-0.385559	
-0.386047	
-0.384949	
-0.385132	
-0.384583	
-0.384888	
-0.384705	
-0.384644	
-0.384033	
-0.384644	
-0.383545	
-0.384094	
-0.383484	
-0.383423	
-0.383484	
-0.383728	
-0.383118	
-0.383545	
-0.383179	
-0.383179	
-0.383423	
-0.383179	
-0.382507	
-0.383728	
-0.382935	
-0.382813	
-0.382019	
-0.381836	
-0.381836	
-0.381897	
-0.380981	
-0.381409	
-0.381226	
-0.381897	
-0.381897	
-0.382141	
-0.381409	
-0.382385	
-0.382446	
-0.382324	
-0.381836	
-0.382446	
-0.382568	
-0.382568	
-0.382446	
-0.382874	
-0.381531	
-0.383057	
-0.382141	
-0.382813	
-0.382019	
-0.382935	
-0.382996	
-0.383728	
-0.383179	
-0.384094	
-0.382874	
-0.384338	
-0.384094	
-0.384216	
-0.383728	
-0.384033	
-0.383972	
-0.384521	
-0.384277	
-0.385254	
-0.38324	
-0.384766	
-0.384094	
-0.385193	
-0.384583	
-0.384644	
-0.385071	
-0.385925	
-0.385437	
-0.385986	
-0.384277	
-0.385742	
-0.38562	
-0.385681	
-0.385559	
-0.385315	
-0.385376	
-0.386169	
-0.385498	
-0.385986	
-0.384277	
-0.385681	
-0.384399	
-0.384644	
-0.384766	
-0.384827	
-0.384277	
-0.38501	
-0.384033	
-0.38446	
-0.382996	
-0.383789	
-0.383484	
-0.383728	
-0.384094	
-0.38385	
-0.383972	
-0.384033	
-0.383484	
-0.384216	
-0.383301	
-0.384033	
-0.383484	
-0.383728	
-0.38385	
-0.383728	
-0.383911	
-0.383301	
-0.383545	
-0.383789	
-0.383118	
-0.383606	
-0.383057	
-0.383179	
-0.383423	
-0.382996	
-0.383301	
-0.382446	
-0.382935	
-0.382996	
-0.38324	
-0.383423	
-0.383179	
-0.383057	
-0.382996	
-0.382385	
-0.382568	
-0.381897	
-0.382568	
-0.382568	
-0.382629	
-0.382568	
-0.382385	
-0.382385	
-0.382263	
-0.382202	
-0.382446	
-0.381104	
-0.382263	
-0.38208	
-0.381958	
-0.382629	
-0.382568	
-0.38147	
-0.381653	
-0.380798	
-0.381348	
-0.380066	
-0.381531	
-0.381348	
-0.38092	
-0.381836	
-0.381775	
-0.381165	
-0.381226	
-0.380493	
-0.380981	
-0.380493	
-0.38147	
-0.380981	
-0.380981	
-0.381836	
-0.381592	
-0.381165	
-0.380371	
-0.380066	
-0.381775	
-0.381592	
-0.381775	
-0.381531	
-0.381897	
-0.382507	
-0.383118	
-0.382141	
-0.381226	
-0.381348	
-0.382813	
-0.382202	
-0.382507	
-0.382446	
-0.382507	
-0.38324	
-0.383179	
-0.383057	
-0.365906	
-0.362854	
-0.365784	
-0.365906	
-0.365967	
-0.365601	
-0.386169	
-0.386353	
-0.38446	
-0.382935	
-0.382019	
-0.381836	
-0.382935	
-0.381653	
-0.382019	
-0.381531	
-0.381104	
-0.381592	
-0.381592	
-0.380554	
-0.379883	
-0.378906	
-0.380127	
-0.379822	
-0.380188	
-0.379822	
-0.379089	
-0.380188	
-0.38031	
-0.379333	
-0.379333	
-0.378723	
-0.379822	
-0.379333	
-0.380005	
-0.380371	
-0.380249	
-0.380493	
-0.380493	
-0.380615	
-0.380737	
-0.380066	
-0.380493	
-0.379578	
-0.379517	
-0.379883	
-0.379944	
-0.379761	
-0.380127	
-0.380859	
-0.382446	
-0.384216	
-0.385864	
-0.387756	
-0.390869	
-0.39447	
-0.398376	
-0.402344	
-0.40686	
-0.410217	
-0.4151	
-0.421143	
-0.426025	
-0.432068	
-0.438416	
-0.445435	
-0.452515	
-0.458557	
-0.464539	
-0.470215	
-0.474121	
-0.478821	
-0.479065	
-0.482178	
-0.482971	
-0.485352	
-0.486023	
-0.486206	
-0.487427	
-0.488831	
-0.48822	
-0.487793	
-0.485718	
-0.48584	
-0.485962	
-0.485046	
-0.483826	
-0.482849	
-0.481445	
-0.481873	
-0.481628	
-0.481567	
-0.482117	
-0.482727	
-0.483704	
-0.484497	
-0.485046	
-0.48584	
-0.487	
-0.489624	
-0.491516	
-0.492371	
-0.493774	
-0.494629	
-0.495544	
-0.497009	
-0.49646	
-0.495789	
-0.494812	
-0.494507	
-0.494324	
-0.493164	
-0.492188	
-0.491333	
-0.491333	
-0.491455	
-0.489929	
-0.489258	
-0.488525	
-0.488403	
-0.488525	
-0.487793	
-0.487671	
-0.486633	
-0.486206	
-0.486755	
-0.48584	
-0.484436	
-0.483215	
-0.480713	
-0.481018	
-0.478088	
-0.475891	
-0.472717	
-0.469849	
-0.466919	
-0.463379	
-0.458679	
-0.454651	
-0.448425	
-0.444641	
-0.438354	
-0.432739	
-0.426392	
-0.418213	
-0.410706	
-0.4021	
-0.392212	
-0.382751	
-0.370789	
-0.361084	
-0.349854	
-0.339233	
-0.327087	
-0.316406	
-0.305542	
-0.294312	
-0.283752	
-0.273315	
-0.264954	
-0.259033	
-0.251526	
-0.24707	
-0.242737	
-0.240295	
-0.238342	
-0.237549	
-0.235901	
-0.237183	
-0.236633	
-0.23877	
-0.239807	
-0.243164	
-0.247131	
-0.250061	
-0.253174	
-0.256165	
-0.260742	
-0.265625	
-0.270203	
-0.274109	
-0.279053	
-0.282715	
-0.287781	
-0.291565	
-0.295837	
-0.29895	
-0.30365	
-0.305237	
-0.309204	
-0.312317	
-0.316223	
-0.319946	
-0.322266	
-0.324463	
-0.326111	
-0.328674	
-0.331055	
-0.333557	
-0.3349	
-0.336792	
-0.336975	
-0.3396	
-0.341309	
-0.342834	
-0.343506	
-0.345337	
-0.345825	
-0.346436	
-0.345947	
-0.346863	
-0.348938	
-0.349792	
-0.34967	
-0.348755	
-0.349243	
-0.350525	
-0.351379	
-0.351379	
-0.351318	
-0.350952	
-0.35199	
-0.352295	
-0.353577	
-0.353088	
-0.354431	
-0.353455	
-0.354919	
-0.35376	
-0.355225	
-0.355957	
-0.35675	
-0.35614	
-0.356873	
-0.356873	
-0.357483	
-0.357544	
-0.357788	
-0.358887	
-0.357971	
-0.359558	
-0.359131	
-0.359436	
-0.357178	
-0.358521	
-0.358215	
-0.359314	
-0.358826	
-0.358826	
-0.358948	
-0.359497	
-0.358826	
-0.359741	
-0.358948	
-0.360229	
-0.359741	
-0.359558	
-0.359924	
-0.360107	
-0.361328	
-0.360901	
-0.360596	
-0.360291	
-0.36084	
-0.361145	
-0.362244	
-0.361267	
-0.361572	
-0.361755	
-0.363892	
-0.362244	
-0.363159	
-0.361572	
-0.363647	
-0.362244	
-0.364563	
-0.362915	
-0.364258	
-0.363159	
-0.364868	
-0.364685	
-0.364807	
-0.364624	
-0.364807	
-0.365295	
-0.365051	
-0.365417	
-0.36554	
-0.366699	
-0.365967	
-0.367249	
-0.36554	
-0.367188	
-0.367004	
-0.367432	
-0.367249	
-0.367676	
-0.367432	
-0.368774	
-0.368591	
-0.368286	
-0.367798	
-0.368103	
-0.368958	
-0.368652	
-0.369141	
-0.369019	
-0.369568	
-0.369873	
-0.369324	
-0.369385	
-0.369324	
-0.370056	
-0.369995	
-0.3703	
-0.370422	
-0.369568	
-0.371094	
-0.370789	
-0.369934	
-0.369263	
-0.368713	
-0.3703	
-0.370483	
-0.370178	
-0.370117	
-0.370117	
-0.370667	
-0.370239	
-0.36908	
-0.369995	
-0.370667	
-0.370667	
-0.370972	
-0.370605	
-0.370483	
-0.371216	
-0.371033	
-0.3703	
-0.371155	
-0.370667	
-0.370789	
-0.370789	
-0.371704	
-0.371826	
-0.372131	
-0.373718	
-0.373169	
-0.373047	
-0.372559	
-0.372864	
-0.373779	
-0.374329	
-0.374451	
-0.374695	
-0.375488	
-0.375977	
-0.376221	
-0.375488	
-0.375183	
-0.374817	
-0.375854	
-0.37677	
-0.377075	
-0.376648	
-0.377258	
-0.37738	
-0.377747	
-0.377319	
-0.377075	
-0.376343	
-0.376526	
-0.377808	
-0.376892	
-0.376892	
-0.376892	
-0.377747	
-0.378296	
-0.378296	
-0.377625	
-0.377197	
-0.376587	
-0.378723	
-0.37738	
-0.37677	
-0.376404	
-0.377502	
-0.37738	
-0.376892	
-0.37677	
-0.376892	
-0.376953	
-0.377014	
-0.377014	
-0.376892	
-0.377441	
-0.377441	
-0.377136	
-0.376038	
-0.37677	
-0.376465	
-0.377136	
-0.376404	
-0.376892	
-0.375916	
-0.37793	
-0.377258	
-0.377441	
-0.375427	
-0.376404	
-0.37677	
-0.378601	
-0.377625	
-0.37738	
-0.377136	
-0.379211	
-0.379639	
-0.378784	
-0.378662	
-0.377319	
-0.378723	
-0.378479	
-0.378906	
-0.378723	
-0.379517	
-0.37915	
-0.379089	
-0.378174	
-0.37915	
-0.379456	
-0.380371	
-0.380005	
-0.380371	
-0.379089	
-0.381165	
-0.380981	
-0.381348	
-0.379883	
-0.380188	
-0.380371	
-0.381226	
-0.380798	
-0.381165	
-0.381348	
-0.382385	
-0.381836	
-0.381226	
-0.380371	
-0.380432	
-0.38208	
-0.381714	
-0.382019	
-0.381653	
-0.382813	
-0.382813	
-0.382874	
-0.381531	
-0.382324	
-0.382446	
-0.382446	
-0.382019	
-0.381897	
-0.381226	
-0.382813	
-0.382324	
-0.382874	
-0.381836	
-0.381409	
-0.379944	
-0.381958	
-0.38092	
-0.380981	
-0.381165	
-0.381775	
-0.380981	
-0.380981	
-0.380493	
-0.380432	
-0.380432	
-0.380432	
-0.380371	
-0.380371	
-0.380188	
-0.380249	
-0.380371	
-0.379456	
-0.378906	
-0.379211	
-0.379639	
-0.379639	
-0.379395	
-0.379089	
-0.379456	
-0.379883	
-0.380188	
-0.378845	
-0.377808	
-0.377991	
-0.379395	
-0.379395	
-0.378845	
-0.377625	
-0.378723	
-0.379272	
-0.379272	
-0.376587	
-0.377075	
-0.377014	
-0.378906	
-0.377808	
-0.37738	
-0.377625	
-0.379578	
-0.378967	
-0.379211	
-0.377319	
-0.378418	
-0.37793	
-0.379333	
-0.37915	
-0.379517	
-0.379883	
-0.379761	
-0.379456	
-0.379761	
-0.379089	
-0.379395	
-0.380005	
-0.379822	
-0.379639	
-0.380005	
-0.380676	
-0.38092	
-0.381714	
-0.381165	
-0.381042	
-0.380432	
-0.382202	
-0.381287	
-0.381287	
-0.380554	
-0.381714	
-0.382263	
-0.38269	
-0.381897	
-0.381897	
-0.380676	
-0.382996	
-0.382263	
-0.382568	
-0.382324	
-0.382996	
-0.38385	
-0.384399	
-0.382324	
-0.381287	
-0.382324	
-0.383301	
-0.382813	
-0.382507	
-0.382446	
-0.383545	
-0.384033	
-0.382996	
-0.381042	
-0.381653	
-0.382935	
-0.382202	
-0.381958	
-0.38147	
-0.38208	
-0.38269	
-0.381714	
-0.380798	
-0.380859	
-0.381104	
-0.382629	
-0.381653	
-0.381714	
-0.381226	
-0.382141	
-0.381775	
-0.381592	
-0.381226	
-0.381409	
-0.380676	
-0.381165	
-0.380981	
-0.381287	
-0.381042	
-0.381531	
-0.381348	
-0.382751	
-0.380798	
-0.380188	
-0.379761	
-0.381042	
-0.381042	
-0.380005	
-0.380493	
-0.380981	
-0.381653	
-0.382019	
-0.380432	
-0.379333	
-0.381409	
-0.380798	
-0.38092	
-0.379089	
-0.380493	
-0.38031	
-0.38147	
-0.380676	
-0.38031	
-0.379578	
-0.380432	
-0.380493	
-0.380493	
-0.380188	
-0.380676	
-0.380676	
-0.38092	
-0.379883	
-0.379517	
-0.3797	
-0.379822	
-0.379639	
-0.379089	
-0.379333	
-0.379028	
-0.379883	
-0.379517	
-0.378845	
-0.378052	
-0.379211	
-0.378906	
-0.379028	
-0.378418	
-0.378967	
-0.379211	
-0.380676	
-0.380066	
-0.379028	
-0.377747	
-0.37915	
-0.378845	
-0.378723	
-0.378601	
-0.379639	
-0.3797	
-0.381531	
-0.381287	
-0.379944	
-0.37793	
-0.378601	
-0.380005	
-0.380615	
-0.379761	
-0.380249	
-0.380798	
-0.382019	
-0.382263	
-0.380554	
-0.380005	
-0.378967	
-0.381409	
-0.381348	
-0.381104	
-0.38092	
-0.381531	
-0.382324	
-0.382507	
-0.381165	
-0.381287	
-0.381409	
-0.381592	
-0.381226	
-0.380737	
-0.380798	
-0.381165	
-0.380554	
-0.380127	
-0.379028	
-0.379395	
-0.379517	
-0.378967	
-0.378235	
-0.378967	
-0.378967	
-0.379456	
-0.378357	
-0.378418	
-0.376343	
-0.378296	
-0.377808	
-0.377991	
-0.376587	
-0.377808	
-0.377747	
-0.379578	
-0.378174	
-0.377808	
-0.376831	
-0.378052	
-0.378052	
-0.377686	
-0.378235	
-0.378479	
-0.379028	
-0.378296	
-0.379211	
-0.377563	
-0.378601	
-0.376648	
-0.378235	
-0.378479	
-0.378784	
-0.379456	
-0.379333	
-0.379211	
-0.380615	
-0.378906	
-0.3797	
-0.378601	
-0.3797	
-0.3797	
-0.379578	
-0.380066	
-0.380188	
-0.380066	
-0.380981	
-0.379517	
-0.380615	
-0.379517	
-0.380737	
-0.380371	
-0.381042	
-0.381409	
-0.382507	
-0.38147	
-0.381226	
-0.379028	
-0.380981	
-0.379883	
-0.380676	
-0.379517	
-0.380432	
-0.380493	
-0.381226	
-0.380554	
-0.380737	
-0.379211	
-0.379883	
-0.378662	
-0.379517	
-0.380188	
-0.379944	
-0.3797	
-0.381042	
-0.38031	
-0.380127	
-0.379089	
-0.378662	
-0.379211	
-0.379028	
-0.379028	
-0.378662	
-0.379211	
-0.379883	
-0.379822	
-0.379028	
-0.379028	
-0.377808	
-0.378662	
-0.378235	
-0.378845	
-0.378845	
-0.379028	
-0.378662	
-0.379517	
-0.378174	
-0.379211	
-0.37793	
-0.378174	
-0.377197	
-0.378052	
-0.378235	
-0.379578	
-0.378357	
-0.378784	
-0.376892	
-0.377869	
-0.378296	
-0.378418	
-0.378601	
-0.378479	
-0.378906	
-0.379578	
-0.37915	
-0.378845	
-0.378418	
-0.379456	
-0.379211	
-0.379089	
-0.3797	
-0.379883	
-0.380005	
-0.380554	
-0.38031	
-0.379822	
-0.380127	
-0.380615	
-0.380554	
-0.380615	
-0.380737	
-0.381409	
-0.381531	
-0.382141	
-0.382263	
-0.382019	
-0.381348	
-0.38147	
-0.381897	
-0.381653	
-0.382141	
-0.382385	
-0.382751	
-0.383179	
-0.383362	
-0.381897	
-0.383057	
-0.381165	
-0.382629	
-0.381897	
-0.382751	
-0.383484	
-0.384705	
-0.384094	
-0.384766	
-0.384949	
-0.384888	
-0.383118	
-0.38324	
-0.382874	
-0.384033	
-0.383789	
-0.384277	
-0.383667	
-0.383911	
-0.384094	
-0.383911	
-0.382751	
-0.38208	
-0.382202	
-0.382263	
-0.382385	
-0.382996	
-0.382629	
-0.382874	
-0.383301	
-0.382935	
-0.382568	
-0.381958	
-0.382446	
-0.381714	
-0.382324	
-0.382385	
-0.381287	
-0.381042	
-0.380554	
-0.381409	
-0.381165	
-0.380859	
-0.381348	
-0.381165	
-0.382202	
-0.382141	
-0.381042	
-0.379944	
-0.379395	
-0.380737	
-0.380432	
-0.380371	
-0.380676	
-0.380676	
-0.381165	
-0.380371	
-0.380066	
-0.380188	
-0.380249	
-0.3797	
-0.379761	
-0.380554	
-0.381104	
-0.380615	
-0.380615	
-0.38092	
-0.381226	
-0.381042	
-0.381897	
-0.381042	
-0.380981	
-0.380554	
-0.381592	
-0.382202	
-0.381897	
-0.382141	
-0.38269	
-0.382141	
-0.382446	
-0.380859	
-0.381775	
-0.380737	
-0.381775	
-0.382507	
-0.382751	
-0.382202	
-0.381714	
-0.38092	
-0.382385	
-0.381226	
-0.38208	
-0.381226	
-0.382446	
-0.383484	
-0.383545	
-0.382568	
-0.381897	
-0.381775	
-0.382568	
-0.382263	
-0.382202	
-0.382629	
-0.383057	
-0.383423	
-0.383423	
-0.382996	
-0.382874	
-0.383362	
-0.38269	
-0.382629	
-0.382629	
-0.383301	
-0.38385	
-0.383423	
-0.383362	
-0.383301	
-0.383545	
-0.384033	
-0.383179	
-0.383179	
-0.38269	
-0.383911	
-0.383179	
-0.384155	
-0.383911	
-0.383972	
-0.383728	
-0.384766	
-0.383606	
-0.384216	
-0.383423	
-0.384583	
-0.384827	
-0.385742	
-0.384338	
-0.384521	
-0.383423	
-0.386108	
-0.384338	
-0.38446	
-0.383484	
-0.385071	
-0.385376	
-0.385864	
-0.384644	
-0.385071	
-0.384521	
-0.386353	
-0.384583	
-0.385132	
-0.382996	
-0.38446	
-0.385254	
-0.384155	
-0.384399	
-0.384399	
-0.384277	
-0.385437	
-0.382935	
-0.383423	
-0.381714	
-0.383484	
-0.384033	
-0.383362	
-0.384033	
-0.383484	
-0.38324	
-0.384338	
-0.382019	
-0.382751	
-0.381592	
-0.382813	
-0.383728	
-0.382751	
-0.382813	
-0.382141	
-0.382385	
-0.382874	
-0.381958	
-0.383179	
-0.383118	
-0.383789	
-0.385132	
-0.384033	
-0.383606	
-0.384094	
-0.385376	
-0.384827	
-0.385193	
-0.384583	
-0.385071	
-0.385559	
-0.38739	
-0.385437	
-0.385925	
-0.385315	
-0.386719	
-0.385986	
-0.386047	
-0.385742	
-0.386414	
-0.386414	
-0.387329	
-0.386169	
-0.385925	
-0.385803	
-0.38678	
-0.386169	
-0.385864	
-0.385803	
-0.386047	
-0.386719	
-0.386902	
-0.386292	
-0.386475	
-0.386169	
-0.387085	
-0.386169	
-0.385559	
-0.384949	
-0.385071	
-0.385559	
-0.385437	
-0.384766	
-0.384827	
-0.384766	
-0.385681	
-0.384399	
-0.384766	
-0.384155	
-0.384827	
-0.385071	
-0.384521	
-0.384277	
-0.383911	
-0.383789	
-0.385803	
-0.383423	
-0.383911	
-0.382446	
-0.383545	
-0.384277	
-0.383911	
-0.384094	
-0.383301	
-0.384277	
-0.385132	
-0.383789	
-0.384155	
-0.383728	
-0.384583	
-0.385559	
-0.384277	
-0.384583	
-0.383606	
-0.385071	
-0.385681	
-0.384338	
-0.384338	
-0.383911	
-0.385132	
-0.385925	
-0.38446	
-0.384766	
-0.384888	
-0.385498	
-0.386047	
-0.384949	
-0.385681	
-0.384583	
-0.386169	
-0.38739	
-0.385925	
-0.385315	
-0.38562	
-0.386169	
-0.387024	
-0.384949	
-0.385925	
-0.385437	
-0.38623	
-0.387329	
-0.386353	
-0.385986	
-0.386414	
-0.386902	
-0.387451	
-0.38562	
-0.386719	
-0.386292	
-0.386292	
-0.387695	
-0.38678	
-0.386597	
-0.387146	
-0.387512	
-0.386475	
-0.385071	
-0.385498	
-0.386169	
-0.386719	
-0.386719	
-0.385925	
-0.38562	
-0.386292	
-0.386719	
-0.38501	
-0.384277	
-0.38385	
-0.385376	
-0.385437	
-0.384766	
-0.384521	
-0.383972	
-0.384521	
-0.38501	
-0.383789	
-0.383728	
-0.383179	
-0.384094	
-0.383972	
-0.382629	
-0.383118	
-0.382629	
-0.383362	
-0.383362	
-0.382813	
-0.382874	
-0.382324	
-0.382385	
-0.382874	
-0.382446	
-0.382385	
-0.381348	
-0.382263	
-0.38269	
-0.381836	
-0.381531	
-0.380737	
-0.381531	
-0.381897	
-0.380798	
-0.380676	
-0.380066	
-0.381165	
-0.381653	
-0.381165	
-0.38092	
-0.38031	
-0.381653	
-0.383057	
-0.381775	
-0.381348	
-0.381775	
-0.382629	
-0.383423	
-0.382568	
-0.382446	
-0.381531	
-0.382568	
-0.383423	
-0.382446	
-0.381897	
-0.382202	
-0.383057	
-0.383423	
-0.382813	
-0.382751	
-0.383423	
-0.38385	
-0.38501	
-0.38385	
-0.383911	
-0.383484	
-0.38446	
-0.384277	
-0.383545	
-0.384094	
-0.384216	
-0.38446	
-0.385376	
-0.384521	
-0.384521	
-0.384583	
-0.385498	
-0.385437	
-0.383789	
-0.384338	
-0.385132	
-0.385986	
-0.385986	
-0.385193	
-0.385376	
-0.385559	
-0.386414	
-0.384644	
-0.383667	
-0.383911	
-0.385376	
-0.385498	
-0.385315	
-0.384155	
-0.384338	
-0.384888	
-0.385986	
-0.383911	
-0.383667	
-0.381836	
-0.383484	
-0.384155	
-0.384216	
-0.383911	
-0.382874	
-0.384094	
-0.385071	
-0.383545	
-0.38324	
-0.381714	
-0.383606	
-0.384521	
-0.384277	
-0.383728	
-0.382385	
-0.383545	
-0.38446	
-0.383423	
-0.382751	
-0.38269	
-0.383301	
-0.384033	
-0.383606	
-0.383118	
-0.382629	
-0.383362	
-0.383911	
-0.382507	
-0.382507	
-0.382813	
-0.38269	
-0.383118	
-0.383362	
-0.383179	
-0.382629	
-0.382385	
-0.382385	
-0.382202	
-0.381714	
-0.381836	
-0.382263	
-0.382568	
-0.382202	
-0.381836	
-0.382324	
-0.382629	
-0.382446	
-0.381958	
-0.381165	
-0.381836	
-0.381958	
-0.381836	
-0.381714	
-0.381592	
-0.381531	
-0.381348	
-0.381165	
-0.380615	
-0.380554	
-0.380859	
-0.381104	
-0.381287	
-0.380859	
-0.380432	
-0.381165	
-0.38147	
-0.379944	
-0.380432	
-0.379761	
-0.380676	
-0.381165	
-0.38092	
-0.380981	
-0.380676	
-0.380798	
-0.382019	
-0.381165	
-0.380981	
-0.380371	
-0.381958	
-0.381836	
-0.382019	
-0.382141	
-0.381348	
-0.382324	
-0.383362	
-0.382141	
-0.381531	
-0.381287	
-0.382507	
-0.383057	
-0.382629	
-0.382202	
-0.381897	
-0.383423	
-0.383606	
-0.382751	
-0.381653	
-0.381531	
-0.382751	
-0.383484	
-0.383362	
-0.382874	
-0.38147	
-0.383545	
-0.383545	
-0.382202	
-0.380005	
-0.380859	
-0.381409	
-0.382263	
-0.381592	
-0.380493	
-0.379822	
-0.381226	
-0.38092	
-0.3797	
-0.378418	
-0.3797	
-0.379639	
-0.380005	
-0.379578	
-0.379272	
-0.379578	
-0.379883	
-0.3797	
-0.378784	
-0.378235	
-0.379395	
-0.379395	
-0.379517	
-0.380005	
-0.379639	
-0.380005	
-0.379456	
-0.379883	
-0.379578	
-0.37915	
-0.3797	
-0.3797	
-0.379883	
-0.380981	
-0.379944	
-0.380249	
-0.380554	
-0.381226	
-0.380432	
-0.379517	
-0.380554	
-0.381958	
-0.381226	
-0.382019	
-0.380737	
-0.381287	
-0.381653	
-0.381348	
-0.381165	
-0.3797	
-0.381531	
-0.382263	
-0.381714	
-0.382751	
-0.381104	
-0.382629	
-0.382751	
-0.382385	
-0.382141	
-0.382263	
-0.382507	
-0.382874	
-0.382385	
-0.38269	
-0.381348	
-0.382385	
-0.381287	
-0.381653	
-0.380981	
-0.38147	
-0.381897	
-0.381409	
-0.381165	
-0.381592	
-0.381348	
-0.381531	
-0.381592	
-0.381531	
-0.38031	
-0.381287	
-0.381348	
-0.380981	
-0.381165	
-0.380798	
-0.380676	
-0.381226	
-0.38031	
-0.379944	
-0.378662	
-0.379639	
-0.379883	
-0.380432	
-0.380493	
-0.379761	
-0.379761	
-0.38092	
-0.380493	
-0.379395	
-0.379028	
-0.379456	
-0.379944	
-0.380188	
-0.379517	
-0.379028	
-0.379211	
-0.38031	
-0.379578	
-0.378662	
-0.378601	
-0.378906	
-0.379883	
-0.379211	
-0.37915	
-0.378357	
-0.379578	
-0.380249	
-0.379944	
-0.3797	
-0.378845	
-0.379395	
-0.380859	
-0.379944	
-0.380432	
-0.3797	
-0.381348	
-0.381409	
-0.381348	
-0.380737	
-0.380005	
-0.380798	
-0.382385	
-0.381409	
-0.382202	
-0.381531	
-0.382629	
-0.382507	
-0.382629	
-0.382263	
-0.381836	
-0.38208	
-0.383179	
-0.383484	
-0.383118	
-0.382629	
-0.383667	
-0.38385	
-0.383728	
-0.383179	
-0.383118	
-0.383118	
-0.383667	
-0.383972	
-0.383728	
-0.383972	
-0.385254	
-0.385498	
-0.38562	
-0.383545	
-0.38501	
-0.384888	
-0.385071	
-0.385376	
-0.38562	
-0.384644	
-0.385315	
-0.384399	
-0.385315	
-0.384155	
-0.384216	
-0.383057	
-0.384094	
-0.383484	
-0.383911	
-0.383545	
-0.383545	
-0.382629	
-0.383972	
-0.383179	
-0.383301	
-0.382385	
-0.383423	
-0.382996	
-0.383301	
-0.382751	
-0.382996	
-0.381958	
-0.382813	
-0.382019	
-0.381348	
-0.381287	
-0.381958	
-0.382019	
-0.381836	
-0.38208	
-0.382324	
-0.381531	
-0.382019	
-0.381531	
-0.381592	
-0.381165	
-0.381287	
-0.381531	
-0.380859	
-0.381287	
-0.381104	
-0.38092	
-0.380798	
-0.380127	
-0.380737	
-0.381226	
-0.380859	
-0.38147	
-0.380554	
-0.381592	
-0.381165	
-0.381653	
-0.381409	
-0.381287	
-0.381714	
-0.382446	
-0.38208	
-0.382629	
-0.381165	
-0.382629	
-0.382019	
-0.382874	
-0.382568	
-0.382385	
-0.382874	
-0.383362	
-0.382507	
-0.382935	
-0.382263	
-0.382935	
-0.38208	
-0.383118	
-0.382385	
-0.381958	
-0.382141	
-0.382935	
-0.382996	
-0.383545	
-0.382751	
-0.382629	
-0.382874	
-0.383423	
-0.382813	
-0.382263	
-0.382996	
-0.383057	
-0.383423	
-0.384094	
-0.383423	
-0.383301	
-0.384155	
-0.383301	
-0.383606	
-0.382507	
-0.383606	
-0.383179	
-0.383606	
-0.383911	
-0.38385	
-0.384644	
-0.385071	
-0.383789	
-0.382751	
-0.38269	
-0.38446	
-0.383789	
-0.384216	
-0.384155	
-0.383911	
-0.384827	
-0.384949	
-0.38446	
-0.383423	
-0.38385	
-0.38501	
-0.384338	
-0.384949	
-0.384705	
-0.384888	
-0.385986	
-0.386108	
-0.385742	
-0.384338	
-0.384094	
-0.385437	
-0.38562	
-0.385498	
-0.385071	
-0.385803	
-0.385315	
-0.38623	
-0.385559	
-0.384888	
-0.385193	
-0.385559	
-0.385376	
-0.385742	
-0.383911	
-0.384888	
-0.384949	
-0.384766	
-0.384399	
-0.384216	
-0.383789	
-0.384949	
-0.384583	
-0.384094	
-0.382935	
-0.383789	
-0.383789	
-0.38385	
-0.383301	
-0.383362	
-0.383911	
-0.384094	
-0.383423	
-0.383362	
-0.381958	
-0.383179	
-0.382629	
-0.382874	
-0.382751	
-0.382813	
-0.382751	
-0.383362	
-0.382813	
-0.383545	
-0.382935	
-0.384033	
-0.383667	
-0.384399	
-0.38446	
-0.384644	
-0.384705	
-0.385132	
-0.385315	
-0.385986	
-0.385254	
-0.385742	
-0.385132	
-0.385742	
-0.386292	
-0.385986	
-0.386169	
-0.38562	
-0.386353	
-0.387268	
-0.385925	
-0.386597	
-0.385681	
-0.386169	
-0.386047	
-0.38562	
-0.386597	
-0.385376	
-0.386353	
-0.386841	
-0.385986	
-0.386108	
-0.385681	
-0.386841	
-0.386536	
-0.385681	
-0.385864	
-0.384949	
-0.385681	
-0.385864	
-0.38501	
-0.385132	
-0.384155	
-0.384827	
-0.385193	
-0.384033	
-0.384277	
-0.384277	
-0.385193	
-0.385315	
-0.384216	
-0.384521	
-0.384583	
-0.38385	
-0.38446	
-0.383057	
-0.383545	
-0.383728	
-0.383911	
-0.383789	
-0.383789	
-0.383911	
-0.384277	
-0.383545	
-0.383972	
-0.383484	
-0.384033	
-0.383972	
-0.384155	
-0.384521	
-0.384338	
-0.384399	
-0.385315	
-0.384766	
-0.38446	
-0.383301	
-0.384644	
-0.384766	
-0.385193	
-0.384155	
-0.384033	
-0.384705	
-0.385254	
-0.38501	
-0.384827	
-0.383972	
-0.385498	
-0.385193	
-0.385498	
-0.385193	
-0.385559	
-0.385803	
-0.386108	
-0.385925	
-0.384888	
-0.384644	
-0.385986	
-0.38562	
-0.386108	
-0.385681	
-0.386047	
-0.385803	
-0.386414	
-0.386475	
-0.385986	
-0.385315	
-0.386658	
-0.386475	
-0.386902	
-0.385925	
-0.386414	
-0.386536	
-0.387451	
-0.386414	
-0.386169	
-0.385681	
-0.38678	
-0.385925	
-0.386414	
-0.384216	
-0.385376	
-0.385803	
-0.386414	
-0.385681	
-0.38501	
	
