C:\DOCUMENTS AND SETTINGS\JASON\DESKTOP\UFRJ\UFRJ EPHYS\RSCI-BM 12 WK SERIES\070803-RSCI-BM-11\RSCI-BM-11-LEMG\070803-RSCI-BM-11-LEMG-0020.ACQ
0.025000 msec/sample
1 channel
Analog input
Volts
CH1	
2000	
-0.395447	
-0.395203	
-0.395935	
-0.395691	
-0.395996	
-0.396362	
-0.395935	
-0.396118	
-0.396362	
-0.395935	
-0.395691	
-0.395996	
-0.395996	
-0.395081	
-0.395508	
-0.394897	
-0.394836	
-0.395325	
-0.393738	
-0.394043	
-0.393677	
-0.393188	
-0.393494	
-0.393188	
-0.393066	
-0.392944	
-0.392029	
-0.392029	
-0.391968	
-0.392273	
-0.390686	
-0.390137	
-0.389038	
-0.389587	
-0.389832	
-0.390747	
-0.390625	
-0.390137	
-0.389099	
-0.38916	
-0.388367	
-0.388367	
-0.387451	
-0.38739	
-0.385681	
-0.387146	
-0.38739	
-0.386658	
-0.386719	
-0.385925	
-0.385254	
-0.386353	
-0.386353	
-0.385742	
-0.385864	
-0.385559	
-0.38501	
-0.385437	
-0.385742	
-0.385193	
-0.385925	
-0.386169	
-0.38623	
-0.386963	
-0.387085	
-0.387085	
-0.387024	
-0.387573	
-0.387268	
-0.388245	
-0.388306	
-0.388245	
-0.389343	
-0.389771	
-0.388489	
-0.389282	
-0.390381	
-0.389832	
-0.389771	
-0.390015	
-0.389343	
-0.390625	
-0.389954	
-0.389893	
-0.390625	
-0.390076	
-0.389465	
-0.390442	
-0.391296	
-0.391235	
-0.391235	
-0.391724	
-0.391724	
-0.392273	
-0.392395	
-0.392456	
-0.392639	
-0.392456	
-0.391174	
-0.39325	
-0.394348	
-0.394287	
-0.393555	
-0.393433	
-0.392273	
-0.392578	
-0.39325	
-0.392761	
-0.392944	
-0.391785	
-0.390564	
-0.390869	
-0.391724	
-0.391174	
-0.390503	
-0.39093	
-0.390076	
-0.391113	
-0.392334	
-0.391785	
-0.392517	
-0.391357	
-0.392212	
-0.392212	
-0.392822	
-0.39209	
-0.392395	
-0.392151	
-0.391907	
-0.393494	
-0.394592	
-0.39386	
-0.394775	
-0.393738	
-0.394287	
-0.394775	
-0.39502	
-0.394531	
-0.395264	
-0.394043	
-0.39325	
-0.394287	
-0.394775	
-0.393616	
-0.394592	
-0.393311	
-0.39325	
-0.392944	
-0.3927	
-0.39209	
-0.392273	
-0.391235	
-0.390686	
-0.391785	
-0.391968	
-0.390991	
-0.391418	
-0.390381	
-0.389587	
-0.389587	
-0.389954	
-0.389343	
-0.389954	
-0.389282	
-0.389465	
-0.390137	
-0.390076	
-0.39032	
-0.39032	
-0.389282	
-0.389648	
-0.389771	
-0.389709	
-0.389954	
-0.389038	
-0.388855	
-0.388428	
-0.389404	
-0.38855	
-0.389587	
-0.389893	
-0.388245	
-0.388428	
-0.388733	
-0.388672	
-0.388062	
-0.387573	
-0.386597	
-0.385925	
-0.387756	
-0.386841	
-0.386841	
-0.386841	
-0.385559	
-0.385925	
-0.387085	
-0.387085	
-0.360596	
-0.35614	
-0.359985	
-0.361084	
-0.362	
-0.360718	
-0.395081	
-0.392578	
-0.387329	
-0.386963	
-0.387878	
-0.387817	
-0.386536	
-0.386536	
-0.38623	
-0.386353	
-0.386658	
-0.386475	
-0.387451	
-0.38739	
-0.386108	
-0.38739	
-0.387695	
-0.389465	
-0.387817	
-0.38855	
-0.388123	
-0.388306	
-0.389771	
-0.38916	
-0.389832	
-0.389893	
-0.389282	
-0.390564	
-0.389709	
-0.391235	
-0.391052	
-0.392944	
-0.392456	
-0.393066	
-0.393005	
-0.391541	
-0.391907	
-0.391418	
-0.391296	
-0.390808	
-0.389465	
-0.390503	
-0.390747	
-0.391174	
-0.391052	
-0.393921	
-0.396362	
-0.397766	
-0.400391	
-0.401978	
-0.403992	
-0.408142	
-0.411072	
-0.413818	
-0.416626	
-0.420166	
-0.424438	
-0.429565	
-0.433777	
-0.440491	
-0.444946	
-0.450562	
-0.456482	
-0.460815	
-0.466858	
-0.472412	
-0.477722	
-0.482361	
-0.487671	
-0.491821	
-0.49469	
-0.497925	
-0.499084	
-0.501038	
-0.50293	
-0.504822	
-0.505066	
-0.50647	
-0.508728	
-0.510681	
-0.511658	
-0.511963	
-0.513184	
-0.514587	
-0.514771	
-0.517822	
-0.519958	
-0.521179	
-0.523254	
-0.524902	
-0.525757	
-0.526855	
-0.528625	
-0.527832	
-0.52832	
-0.528381	
-0.527771	
-0.527893	
-0.526794	
-0.526611	
-0.525574	
-0.524719	
-0.523804	
-0.52356	
-0.523865	
-0.521973	
-0.521851	
-0.520447	
-0.520874	
-0.521301	
-0.520264	
-0.520203	
-0.519714	
-0.518738	
-0.518005	
-0.516479	
-0.514526	
-0.512085	
-0.511108	
-0.506775	
-0.504028	
-0.502136	
-0.498047	
-0.493774	
-0.490173	
-0.486084	
-0.481873	
-0.477478	
-0.473145	
-0.46936	
-0.465759	
-0.459351	
-0.455688	
-0.45105	
-0.446106	
-0.440186	
-0.435181	
-0.429138	
-0.423279	
-0.417786	
-0.409668	
-0.403198	
-0.395935	
-0.385315	
-0.378296	
-0.369751	
-0.360352	
-0.350891	
-0.341553	
-0.33313	
-0.324585	
-0.316162	
-0.307251	
-0.301147	
-0.295105	
-0.286865	
-0.282288	
-0.278381	
-0.274048	
-0.270569	
-0.267761	
-0.26532	
-0.265808	
-0.266235	
-0.26355	
-0.265076	
-0.264343	
-0.264771	
-0.266907	
-0.269104	
-0.271301	
-0.27417	
-0.2771	
-0.28186	
-0.285645	
-0.289734	
-0.294861	
-0.300171	
-0.303345	
-0.309509	
-0.314636	
-0.318176	
-0.322693	
-0.327148	
-0.33136	
-0.335205	
-0.338928	
-0.343323	
-0.347046	
-0.348511	
-0.352722	
-0.356018	
-0.358398	
-0.360596	
-0.361816	
-0.364868	
-0.367249	
-0.369141	
-0.370117	
-0.37207	
-0.372803	
-0.374207	
-0.375244	
-0.375	
-0.376892	
-0.377441	
-0.377869	
-0.378784	
-0.380066	
-0.378601	
-0.379944	
-0.380249	
-0.380127	
-0.380676	
-0.38092	
-0.380981	
-0.381042	
-0.381348	
-0.380798	
-0.381897	
-0.38092	
-0.380981	
-0.381958	
-0.381104	
-0.38147	
-0.381958	
-0.381958	
-0.381165	
-0.379822	
-0.379272	
-0.379822	
-0.380127	
-0.379089	
-0.38031	
-0.379761	
-0.379883	
-0.380798	
-0.379944	
-0.379333	
-0.378845	
-0.379456	
-0.377991	
-0.378235	
-0.376465	
-0.376221	
-0.375793	
-0.374756	
-0.373779	
-0.372742	
-0.371277	
-0.369995	
-0.368286	
-0.36731	
-0.366577	
-0.36499	
-0.362	
-0.362122	
-0.361267	
-0.359863	
-0.358643	
-0.356934	
-0.355225	
-0.353943	
-0.35376	
-0.351501	
-0.351746	
-0.35022	
-0.350281	
-0.350403	
-0.350342	
-0.350891	
-0.351746	
-0.350647	
-0.352051	
-0.352905	
-0.353394	
-0.353455	
-0.355896	
-0.355896	
-0.357483	
-0.358521	
-0.358643	
-0.359802	
-0.360657	
-0.361938	
-0.362488	
-0.36261	
-0.363953	
-0.363953	
-0.364807	
-0.366882	
-0.368286	
-0.368103	
-0.368408	
-0.369141	
-0.36853	
-0.369263	
-0.36969	
-0.370361	
-0.370728	
-0.371521	
-0.37207	
-0.372864	
-0.373474	
-0.372803	
-0.373901	
-0.373779	
-0.375427	
-0.375671	
-0.374695	
-0.375488	
-0.376404	
-0.37616	
-0.376953	
-0.378479	
-0.378296	
-0.378235	
-0.380066	
-0.380127	
-0.3797	
-0.380371	
-0.380432	
-0.380615	
-0.380981	
-0.381897	
-0.381653	
-0.381714	
-0.381409	
-0.381836	
-0.381531	
-0.382568	
-0.383118	
-0.382874	
-0.382935	
-0.382019	
-0.383362	
-0.383789	
-0.384644	
-0.383057	
-0.382996	
-0.38446	
-0.384155	
-0.384155	
-0.383789	
-0.384277	
-0.382935	
-0.383606	
-0.383362	
-0.383545	
-0.384583	
-0.382446	
-0.38208	
-0.383728	
-0.383118	
-0.38385	
-0.382263	
-0.383118	
-0.381958	
-0.381531	
-0.381653	
-0.38208	
-0.381836	
-0.381104	
-0.379211	
-0.379883	
-0.3797	
-0.381287	
-0.38031	
-0.380676	
-0.380554	
-0.380005	
-0.380859	
-0.381348	
-0.380981	
-0.380066	
-0.380493	
-0.379028	
-0.379883	
-0.380127	
-0.379456	
-0.379089	
-0.378174	
-0.379272	
-0.379272	
-0.379456	
-0.37854	
-0.378967	
-0.379517	
-0.378784	
-0.379395	
-0.378967	
-0.37915	
-0.37793	
-0.378723	
-0.37915	
-0.379578	
-0.379395	
-0.379761	
-0.379456	
-0.37915	
-0.3797	
-0.380066	
-0.380127	
-0.380554	
-0.380554	
-0.38208	
-0.381042	
-0.382935	
-0.38208	
-0.381714	
-0.383667	
-0.383057	
-0.383545	
-0.383057	
-0.383911	
-0.383301	
-0.385132	
-0.386536	
-0.38562	
-0.385193	
-0.385681	
-0.385803	
-0.384583	
-0.385803	
-0.38623	
-0.385132	
-0.385925	
-0.385193	
-0.386414	
-0.385498	
-0.38739	
-0.385986	
-0.385071	
-0.387024	
-0.386536	
-0.387512	
-0.387085	
-0.387268	
-0.386353	
-0.386841	
-0.386963	
-0.386414	
-0.386719	
-0.386536	
-0.387024	
-0.385132	
-0.386047	
-0.385925	
-0.38562	
-0.385681	
-0.385193	
-0.387329	
-0.386658	
-0.387268	
-0.387207	
-0.387268	
-0.388184	
-0.387329	
-0.388306	
-0.388611	
-0.389954	
-0.389404	
-0.389832	
-0.390381	
-0.389893	
-0.391479	
-0.390686	
-0.391113	
-0.391113	
-0.391724	
-0.392883	
-0.390991	
-0.391052	
-0.390991	
-0.391296	
-0.390015	
-0.39093	
-0.390869	
-0.389832	
-0.39209	
-0.39032	
-0.390625	
-0.390015	
-0.39032	
-0.389526	
-0.388672	
-0.389343	
-0.388489	
-0.388916	
-0.388428	
-0.388184	
-0.388428	
-0.387512	
-0.388428	
-0.386047	
-0.386658	
-0.385254	
-0.384705	
-0.38678	
-0.386353	
-0.386292	
-0.385925	
-0.385742	
-0.384705	
-0.384399	
-0.385071	
-0.384399	
-0.384399	
-0.383118	
-0.382568	
-0.383179	
-0.38324	
-0.383362	
-0.382629	
-0.383057	
-0.382385	
-0.381165	
-0.382751	
-0.38269	
-0.382629	
-0.382263	
-0.382019	
-0.381348	
-0.382813	
-0.383484	
-0.382141	
-0.383362	
-0.383728	
-0.38385	
-0.383423	
-0.385437	
-0.385071	
-0.384949	
-0.385742	
-0.385254	
-0.386719	
-0.387207	
-0.387085	
-0.386108	
-0.386292	
-0.387146	
-0.386475	
-0.386841	
-0.387268	
-0.385559	
-0.386414	
-0.387512	
-0.387634	
-0.386292	
-0.387939	
-0.387329	
-0.386902	
-0.388489	
-0.388794	
-0.388916	
-0.38916	
-0.389465	
-0.389221	
-0.389038	
-0.389954	
-0.390747	
-0.389465	
-0.389465	
-0.390808	
-0.392456	
-0.391541	
-0.391113	
-0.390625	
-0.390076	
-0.390015	
-0.390198	
-0.389771	
-0.389404	
-0.389282	
-0.388184	
-0.388611	
-0.389221	
-0.388855	
-0.388428	
-0.38739	
-0.387817	
-0.388062	
-0.389282	
-0.389282	
-0.38916	
-0.389282	
-0.388672	
-0.389404	
-0.391113	
-0.39032	
-0.390503	
-0.389893	
-0.391418	
-0.391479	
-0.391968	
-0.392883	
-0.391968	
-0.391968	
-0.391907	
-0.393555	
-0.392883	
-0.392578	
-0.392517	
-0.391418	
-0.392456	
-0.392212	
-0.392334	
-0.392273	
-0.391602	
-0.391541	
-0.391479	
-0.391724	
-0.390381	
-0.390686	
-0.390381	
-0.38916	
-0.390015	
-0.389709	
-0.389465	
-0.389038	
-0.389038	
-0.388184	
-0.386536	
-0.388489	
-0.387817	
-0.387268	
-0.388062	
-0.388428	
-0.388245	
-0.387939	
-0.389404	
-0.388	
-0.387695	
-0.386963	
-0.388	
-0.388184	
-0.387695	
-0.387695	
-0.386597	
-0.387695	
-0.387634	
-0.386841	
-0.38739	
-0.388062	
-0.387085	
-0.386353	
-0.387451	
-0.386963	
-0.38623	
-0.386658	
-0.383362	
-0.385681	
-0.385559	
-0.386414	
-0.38501	
-0.384949	
-0.384888	
-0.384399	
-0.386169	
-0.384949	
-0.385559	
-0.385315	
-0.384521	
-0.384583	
-0.38446	
-0.385925	
-0.38446	
-0.384949	
-0.384094	
-0.384644	
-0.385498	
-0.384949	
-0.38446	
-0.383545	
-0.384888	
-0.385132	
-0.384277	
-0.38501	
-0.385132	
-0.385559	
-0.384155	
-0.386292	
-0.386108	
-0.386169	
-0.387451	
-0.384888	
-0.386292	
-0.38678	
-0.388489	
-0.387756	
-0.387634	
-0.387817	
-0.387329	
-0.389709	
-0.388794	
-0.38916	
-0.38855	
-0.388611	
-0.390808	
-0.390442	
-0.39209	
-0.390808	
-0.390198	
-0.389954	
-0.391418	
-0.391479	
-0.390564	
-0.390686	
-0.39032	
-0.390991	
-0.392151	
-0.391235	
-0.392883	
-0.3927	
-0.3927	
-0.390991	
-0.392944	
-0.393799	
-0.393372	
-0.393921	
-0.391846	
-0.393005	
-0.392883	
-0.394165	
-0.393311	
-0.393005	
-0.393188	
-0.392395	
-0.393616	
-0.393799	
-0.3927	
-0.39325	
-0.391785	
-0.3927	
-0.3927	
-0.393982	
-0.392273	
-0.391663	
-0.391296	
-0.390686	
-0.391418	
-0.391479	
-0.390686	
-0.390259	
-0.389709	
-0.390076	
-0.389832	
-0.390625	
-0.388123	
-0.388184	
-0.387451	
-0.388611	
-0.389587	
-0.389038	
-0.389099	
-0.388489	
-0.387756	
-0.38855	
-0.387939	
-0.389526	
-0.388	
-0.388	
-0.387451	
-0.388184	
-0.389221	
-0.388794	
-0.389404	
-0.388245	
-0.386963	
-0.388123	
-0.388977	
-0.388977	
-0.388733	
-0.388489	
-0.388184	
-0.388977	
-0.388977	
-0.389038	
-0.389648	
-0.388367	
-0.389526	
-0.389465	
-0.390381	
-0.389099	
-0.388916	
-0.388733	
-0.387512	
-0.389038	
-0.389343	
-0.388977	
-0.388306	
-0.387268	
-0.387878	
-0.386902	
-0.38739	
-0.386719	
-0.386414	
-0.385498	
-0.385803	
-0.386414	
-0.385742	
-0.384949	
-0.384644	
-0.384521	
-0.384399	
-0.384094	
-0.385437	
-0.38562	
-0.385315	
-0.384583	
-0.386108	
-0.38678	
-0.386292	
-0.386902	
-0.385681	
-0.386108	
-0.386536	
-0.387756	
-0.387329	
-0.387756	
-0.387512	
-0.386597	
-0.388306	
-0.388855	
-0.388611	
-0.390015	
-0.388489	
-0.388	
-0.388916	
-0.391968	
-0.391541	
-0.391602	
-0.391113	
-0.389893	
-0.391541	
-0.392822	
-0.392456	
-0.392639	
-0.391968	
-0.393127	
-0.393127	
-0.394897	
-0.394592	
-0.394348	
-0.393982	
-0.393494	
-0.395752	
-0.395996	
-0.395447	
-0.395203	
-0.394653	
-0.395386	
-0.394836	
-0.395996	
-0.396118	
-0.394836	
-0.393982	
-0.394348	
-0.395325	
-0.39502	
-0.394958	
-0.393555	
-0.393677	
-0.393433	
-0.393311	
-0.393982	
-0.393066	
-0.392029	
-0.391357	
-0.391296	
-0.392395	
-0.391602	
-0.391785	
-0.390686	
-0.390747	
-0.391113	
-0.39209	
-0.391357	
-0.391418	
-0.39032	
-0.389709	
-0.390747	
-0.391296	
-0.390442	
-0.390442	
-0.390076	
-0.38916	
-0.389526	
-0.390686	
-0.389099	
-0.389221	
-0.389709	
-0.388672	
-0.388672	
-0.389282	
-0.388245	
-0.386963	
-0.385864	
-0.386353	
-0.387207	
-0.389282	
-0.388062	
-0.388611	
-0.388306	
-0.388916	
-0.389832	
-0.389832	
-0.390381	
-0.389771	
-0.38916	
-0.389648	
-0.389282	
-0.390503	
-0.390564	
-0.390076	
-0.389587	
-0.38916	
-0.390808	
-0.390442	
-0.389771	
-0.388794	
-0.388672	
-0.388184	
-0.388306	
-0.389282	
-0.388184	
-0.387878	
-0.386108	
-0.386841	
-0.387451	
-0.386841	
-0.387878	
-0.385986	
-0.385193	
-0.38623	
-0.386902	
-0.38678	
-0.386536	
-0.386414	
-0.386475	
-0.387024	
-0.387695	
-0.387817	
-0.387573	
-0.386902	
-0.387329	
-0.388	
-0.389526	
-0.389465	
-0.389404	
-0.388672	
-0.388672	
-0.390381	
-0.390686	
-0.389832	
-0.389587	
-0.389893	
-0.391907	
-0.391174	
-0.392517	
-0.391357	
-0.390564	
-0.390991	
-0.389954	
-0.392212	
-0.392029	
-0.391296	
-0.390991	
-0.391235	
-0.391846	
-0.391052	
-0.392151	
-0.391418	
-0.391724	
-0.391418	
-0.391418	
-0.393433	
-0.392517	
-0.392761	
-0.392578	
-0.392761	
-0.392944	
-0.393677	
-0.394653	
-0.394165	
-0.393677	
-0.392578	
-0.394531	
-0.395203	
-0.39386	
-0.395203	
-0.394043	
-0.393921	
-0.393982	
-0.395508	
-0.396057	
-0.394836	
-0.394592	
-0.394836	
-0.395386	
-0.395508	
-0.395203	
-0.395203	
-0.394104	
-0.393555	
-0.394592	
-0.395691	
-0.395142	
-0.394287	
-0.394409	
-0.39447	
-0.394958	
-0.394653	
-0.393799	
-0.39386	
-0.392456	
-0.3927	
-0.393127	
-0.393188	
-0.393555	
-0.392883	
-0.391541	
-0.391235	
-0.392029	
-0.39209	
-0.391724	
-0.390991	
-0.390015	
-0.39032	
-0.389282	
-0.389526	
-0.388977	
-0.388428	
-0.388123	
-0.388733	
-0.390137	
-0.390076	
-0.389648	
-0.389221	
-0.389404	
-0.389465	
-0.389099	
-0.39032	
-0.389404	
-0.388062	
-0.387512	
-0.387573	
-0.388184	
-0.388245	
-0.388062	
-0.386841	
-0.386597	
-0.387207	
-0.388123	
-0.388	
-0.387085	
-0.386658	
-0.386353	
-0.386597	
-0.386841	
-0.386963	
-0.387085	
-0.386292	
-0.385803	
-0.387024	
-0.387939	
-0.387085	
-0.38678	
-0.386597	
-0.386169	
-0.388306	
-0.388306	
-0.388672	
-0.389465	
-0.387878	
-0.388062	
-0.389709	
-0.39093	
-0.389893	
-0.389404	
-0.389282	
-0.389832	
-0.391602	
-0.392212	
-0.392517	
-0.39209	
-0.391296	
-0.391357	
-0.391724	
-0.392944	
-0.392029	
-0.392456	
-0.391174	
-0.391846	
-0.392761	
-0.393005	
-0.392334	
-0.391663	
-0.392273	
-0.391968	
-0.391174	
-0.393555	
-0.392334	
-0.391968	
-0.391602	
-0.392517	
-0.392639	
-0.392639	
-0.392395	
-0.391846	
-0.391846	
-0.391418	
-0.390503	
-0.391663	
-0.391296	
-0.391296	
-0.389893	
-0.392212	
-0.392334	
-0.391968	
-0.392944	
-0.392029	
-0.391479	
-0.392883	
-0.393433	
-0.393066	
-0.393311	
-0.393799	
-0.392639	
-0.394958	
-0.395081	
-0.395874	
-0.395813	
-0.394043	
-0.395691	
-0.396484	
-0.397156	
-0.396484	
-0.396179	
-0.395996	
-0.395691	
-0.396484	
-0.395935	
-0.394958	
-0.395325	
-0.393921	
-0.394653	
-0.394775	
-0.396545	
-0.394226	
-0.393555	
-0.393311	
-0.393982	
-0.39386	
-0.394043	
-0.392944	
-0.392334	
-0.391968	
-0.391968	
-0.391235	
-0.392822	
-0.390259	
-0.389954	
-0.389343	
-0.389893	
-0.391052	
-0.390686	
-0.389954	
-0.389282	
-0.388489	
-0.388733	
-0.388062	
-0.388916	
-0.388	
-0.387695	
-0.38623	
-0.387268	
-0.387878	
-0.387207	
-0.387268	
-0.386169	
-0.385803	
-0.385742	
-0.385498	
-0.386719	
-0.385376	
-0.385559	
-0.384644	
-0.386047	
-0.386414	
-0.386292	
-0.387268	
-0.386536	
-0.385864	
-0.387146	
-0.388	
-0.388	
-0.387512	
-0.387817	
-0.387878	
-0.388733	
-0.389709	
-0.389465	
-0.390137	
-0.388916	
-0.389221	
-0.389343	
-0.390747	
-0.389893	
-0.390198	
-0.390015	
-0.389038	
-0.390137	
-0.391663	
-0.390991	
-0.391357	
-0.389465	
-0.390259	
-0.391235	
-0.391724	
-0.391052	
-0.391541	
-0.391357	
-0.391479	
-0.392029	
-0.392883	
-0.3927	
-0.393005	
-0.391663	
-0.393066	
-0.393921	
-0.395447	
-0.394592	
-0.393494	
-0.392151	
-0.3927	
-0.393921	
-0.392883	
-0.392578	
-0.391785	
-0.391479	
-0.391235	
-0.391663	
-0.392456	
-0.391479	
-0.390869	
-0.390381	
-0.390869	
-0.392883	
-0.391907	
-0.392334	
-0.391602	
-0.391052	
-0.392761	
-0.393616	
-0.393311	
-0.392639	
-0.3927	
-0.392944	
-0.393677	
-0.394958	
-0.394287	
-0.395569	
-0.394348	
-0.394043	
-0.395142	
-0.395752	
-0.395508	
-0.39447	
-0.394653	
-0.394531	
-0.394714	
-0.395386	
-0.394531	
-0.395447	
-0.393738	
-0.393433	
-0.392883	
-0.392822	
-0.393311	
-0.392395	
-0.391968	
-0.391235	
-0.392151	
-0.393005	
-0.390991	
-0.391602	
-0.391479	
-0.390686	
-0.389465	
-0.389709	
-0.389954	
-0.39032	
-0.389465	
-0.389587	
-0.390747	
-0.391235	
-0.390503	
-0.390076	
-0.389404	
-0.390503	
-0.389343	
-0.389404	
-0.390015	
-0.389221	
-0.38855	
-0.389099	
-0.389771	
-0.389709	
-0.389893	
-0.388855	
-0.387939	
-0.389404	
-0.389038	
-0.389709	
-0.38855	
-0.388306	
-0.387573	
-0.386902	
-0.388245	
-0.387207	
-0.387451	
-0.386902	
-0.384888	
-0.386841	
-0.387817	
-0.388306	
-0.386597	
-0.386597	
-0.386292	
-0.38623	
-0.387146	
-0.386536	
-0.387817	
-0.386414	
-0.384949	
-0.386353	
-0.387268	
-0.387573	
-0.385803	
-0.385925	
-0.386292	
-0.387207	
-0.387756	
-0.386536	
-0.387512	
-0.386353	
-0.386963	
-0.388306	
-0.388	
-0.388855	
-0.388672	
-0.387512	
-0.388123	
-0.389404	
-0.390259	
-0.389343	
-0.390442	
-0.389526	
-0.389709	
-0.390015	
-0.390625	
-0.390503	
-0.390198	
-0.390564	
-0.392273	
-0.393494	
-0.394287	
-0.392212	
-0.392151	
-0.391846	
-0.392029	
-0.391663	
-0.392639	
-0.392456	
-0.392456	
-0.391968	
-0.392273	
-0.393677	
-0.395325	
-0.39447	
-0.393738	
-0.392883	
-0.394897	
-0.394714	
-0.394836	
-0.394836	
-0.394714	
-0.394775	
-0.394409	
-0.395386	
-0.396118	
-0.395264	
-0.394531	
-0.393066	
-0.394775	
-0.394836	
-0.395264	
-0.394348	
-0.39447	
-0.394348	
-0.394104	
-0.394714	
-0.394287	
-0.393921	
-0.3927	
-0.392578	
-0.392273	
-0.391968	
-0.392944	
-0.391479	
-0.391052	
-0.391602	
-0.391968	
-0.391907	
-0.390198	
-0.389709	
-0.389221	
-0.389343	
-0.389648	
-0.389954	
-0.390686	
-0.390076	
-0.389587	
-0.389038	
-0.389587	
-0.390686	
-0.389709	
-0.390564	
-0.389404	
-0.388428	
-0.389832	
-0.389832	
-0.389954	
-0.389587	
-0.38855	
-0.389282	
-0.390076	
-0.389954	
-0.390198	
-0.390869	
-0.388855	
-0.388855	
-0.390442	
-0.390503	
-0.390564	
-0.390808	
-0.389282	
-0.389771	
-0.39032	
-0.390625	
-0.390381	
-0.390869	
-0.388977	
-0.388367	
-0.389709	
-0.390076	
-0.388733	
-0.388428	
-0.387451	
-0.387939	
-0.388794	
-0.388245	
-0.387573	
-0.386841	
-0.386108	
-0.385376	
-0.386414	
-0.386047	
-0.385803	
-0.385559	
-0.385254	
-0.38562	
-0.386902	
-0.386719	
-0.386902	
-0.386719	
-0.385925	
-0.386292	
-0.386292	
-0.387451	
-0.386536	
-0.386963	
-0.386902	
-0.387695	
-0.388428	
-0.38916	
-0.389343	
-0.388611	
-0.389343	
-0.389343	
-0.388733	
-0.389771	
-0.389526	
-0.389221	
-0.389648	
-0.391846	
-0.392822	
-0.393494	
-0.392334	
-0.391235	
-0.392029	
-0.393188	
-0.393188	
-0.393005	
-0.393555	
-0.39325	
-0.393738	
-0.395264	
-0.395203	
-0.395996	
-0.395264	
-0.394592	
-0.395996	
-0.396606	
-0.395813	
-0.395996	
-0.396301	
-0.394775	
-0.396057	
-0.396729	
-0.39679	
-0.396667	
-0.396362	
-0.39447	
-0.395813	
-0.395264	
-0.394836	
-0.394836	
-0.39447	
-0.393677	
-0.394653	
-0.393921	
-0.393677	
-0.393494	
-0.39386	
-0.392029	
-0.392395	
-0.392822	
-0.393372	
-0.392334	
-0.392212	
-0.391846	
-0.391846	
-0.392578	
-0.392273	
-0.391663	
-0.392029	
-0.391785	
-0.390747	
-0.391663	
-0.392151	
-0.39093	
-0.39093	
-0.389954	
-0.390869	
-0.391174	
-0.390381	
-0.390564	
-0.390259	
-0.389343	
-0.388672	
-0.389343	
-0.388428	
-0.388184	
-0.387939	
-0.388428	
-0.389282	
-0.389282	
-0.389832	
-0.389893	
-0.389954	
-0.390198	
-0.389954	
-0.391235	
-0.39093	
-0.390503	
-0.390076	
-0.390442	
-0.391113	
-0.391479	
-0.391418	
-0.390564	
-0.390076	
-0.390442	
-0.389893	
-0.390198	
-0.388977	
-0.389526	
-0.389099	
-0.388611	
-0.389282	
-0.389099	
-0.389282	
-0.388489	
-0.388245	
-0.387756	
-0.387512	
-0.387756	
-0.38623	
-0.387207	
-0.38678	
-0.386169	
-0.387878	
-0.387451	
-0.388123	
-0.387817	
-0.388428	
-0.387695	
-0.388306	
-0.388916	
-0.388794	
-0.389343	
-0.387878	
-0.388977	
-0.390869	
-0.390137	
-0.390442	
-0.390015	
-0.391235	
-0.390564	
-0.391052	
-0.39093	
-0.391479	
-0.392395	
-0.392761	
-0.391968	
-0.392395	
-0.391968	
-0.392944	
-0.39209	
-0.392273	
-0.391602	
-0.3927	
-0.392822	
-0.392578	
-0.392151	
-0.392273	
-0.391968	
-0.392822	
-0.393372	
-0.393311	
-0.392212	
-0.392883	
-0.392517	
-0.394226	
-0.392944	
-0.393372	
-0.393005	
-0.393555	
-0.394165	
-0.39447	
-0.394531	
-0.394531	
-0.394043	
-0.395325	
-0.394409	
-0.396057	
-0.39447	
-0.394836	
-0.394592	
-0.395142	
-0.396362	
-0.396118	
-0.395935	
-0.395996	
-0.394409	
-0.395325	
-0.394226	
-0.395996	
-0.394836	
-0.395386	
-0.394958	
-0.394592	
-0.395935	
-0.395569	
-0.395447	
-0.394714	
-0.394897	
-0.394958	
-0.393311	
-0.394958	
-0.393127	
-0.393799	
-0.392822	
-0.393188	
-0.394165	
-0.392944	
-0.393555	
-0.392395	
-0.392822	
-0.391968	
-0.391663	
-0.392517	
-0.390686	
-0.391357	
-0.389526	
-0.389221	
-0.390076	
-0.389221	
-0.390503	
-0.390137	
-0.390381	
-0.389709	
-0.390198	
-0.390381	
-0.388733	
-0.389771	
-0.388855	
-0.389832	
-0.389771	
-0.388489	
-0.389038	
-0.387573	
-0.388184	
-0.387878	
-0.388428	
-0.388062	
-0.386536	
-0.387207	
-0.387695	
-0.387634	
-0.387451	
-0.387634	
-0.387329	
-0.385925	
-0.38739	
-0.386475	
-0.388123	
-0.388062	
-0.386047	
-0.387085	
-0.387024	
-0.387695	
-0.387695	
-0.388062	
-0.388184	
-0.387451	
-0.388916	
-0.388672	
-0.390198	
-0.390259	
-0.388794	
-0.389771	
-0.389648	
-0.390747	
-0.390564	
-0.390686	
-0.390137	
-0.390808	
-0.392456	
-0.392273	
-0.393127	
-0.393188	
-0.391479	
-0.391907	
-0.391724	
-0.3927	
-0.392456	
-0.392456	
-0.391479	
-0.392456	
-0.393188	
-0.391541	
-0.392639	
-0.392944	
-0.392029	
-0.392578	
-0.392761	
-0.393616	
-0.392517	
-0.393005	
-0.391846	
-0.393066	
-0.393311	
-0.391418	
-0.391907	
-0.392334	
-0.391418	
-0.390625	
-0.391174	
-0.3927	
-0.391846	
-0.392395	
-0.39209	
-0.391907	
-0.3927	
-0.392212	
-0.392395	
-0.392944	
-0.393005	
-0.391968	
-0.393066	
-0.394165	
-0.393738	
-0.395386	
-0.393738	
	
