C:\DOCUMENTS AND SETTINGS\JASON\DESKTOP\UFRJ\UFRJ EPHYS\RSCI-BM 12 WK SERIES\070806-RSCI-BM-16\RSCI-BM-16-LEMG\070806-RSCI-BM-16-LEMG-0020.ACQ
0.025000 msec/sample
1 channel
Analog input
Volts
CH1	
2000	
-0.38385	
-0.383606	
-0.383667	
-0.382568	
-0.383362	
-0.383118	
-0.384155	
-0.383545	
-0.383606	
-0.382935	
-0.384338	
-0.38385	
-0.383911	
-0.382568	
-0.383179	
-0.38324	
-0.384277	
-0.383789	
-0.38324	
-0.382202	
-0.383789	
-0.383179	
-0.383728	
-0.382202	
-0.383057	
-0.382446	
-0.383545	
-0.383667	
-0.383301	
-0.382263	
-0.383484	
-0.382874	
-0.383667	
-0.382813	
-0.383118	
-0.382813	
-0.383362	
-0.384094	
-0.383423	
-0.383179	
-0.384277	
-0.384399	
-0.384705	
-0.383667	
-0.384155	
-0.383606	
-0.384338	
-0.384521	
-0.384277	
-0.383911	
-0.384888	
-0.385254	
-0.385254	
-0.384888	
-0.384583	
-0.383362	
-0.384583	
-0.385315	
-0.384216	
-0.38385	
-0.38385	
-0.384155	
-0.384399	
-0.38446	
-0.383728	
-0.382568	
-0.383911	
-0.384399	
-0.383728	
-0.382507	
-0.38269	
-0.383179	
-0.384155	
-0.383972	
-0.383118	
-0.382141	
-0.382568	
-0.383545	
-0.383179	
-0.38208	
-0.382263	
-0.382935	
-0.383789	
-0.383667	
-0.382935	
-0.381531	
-0.38269	
-0.383118	
-0.382019	
-0.381104	
-0.381714	
-0.382568	
-0.383423	
-0.382629	
-0.382019	
-0.381348	
-0.382935	
-0.383423	
-0.38324	
-0.382629	
-0.382874	
-0.383545	
-0.38446	
-0.384521	
-0.384033	
-0.383057	
-0.384827	
-0.38501	
-0.384644	
-0.38385	
-0.38446	
-0.385071	
-0.385437	
-0.385803	
-0.385315	
-0.384216	
-0.385498	
-0.385681	
-0.385437	
-0.384399	
-0.385132	
-0.385376	
-0.385803	
-0.38623	
-0.385498	
-0.384705	
-0.385498	
-0.385986	
-0.38562	
-0.383911	
-0.384583	
-0.38501	
-0.385193	
-0.385071	
-0.384949	
-0.384827	
-0.385925	
-0.385864	
-0.384949	
-0.384644	
-0.385498	
-0.385498	
-0.385864	
-0.385986	
-0.385803	
-0.385742	
-0.386292	
-0.386353	
-0.385559	
-0.385193	
-0.386047	
-0.38623	
-0.386108	
-0.386597	
-0.385986	
-0.385376	
-0.385254	
-0.386108	
-0.385742	
-0.385437	
-0.385254	
-0.385681	
-0.385559	
-0.386719	
-0.385559	
-0.385986	
-0.385925	
-0.386841	
-0.386108	
-0.386597	
-0.38623	
-0.386414	
-0.386169	
-0.38678	
-0.385742	
-0.386475	
-0.386414	
-0.386536	
-0.386292	
-0.386597	
-0.38623	
-0.386963	
-0.386292	
-0.387512	
-0.386169	
-0.386353	
-0.38623	
-0.386169	
-0.386292	
-0.38678	
-0.386414	
-0.38678	
-0.385864	
-0.386353	
-0.38562	
-0.385559	
-0.385986	
-0.370178	
-0.365845	
-0.368042	
-0.36792	
-0.368774	
-0.368164	
-0.389404	
-0.38855	
-0.386841	
-0.385071	
-0.387207	
-0.38623	
-0.386658	
-0.384766	
-0.385498	
-0.385925	
-0.386658	
-0.385193	
-0.385498	
-0.384521	
-0.385925	
-0.384888	
-0.384888	
-0.383301	
-0.384827	
-0.38446	
-0.385315	
-0.384644	
-0.38446	
-0.384216	
-0.38562	
-0.384888	
-0.385071	
-0.38385	
-0.385315	
-0.384338	
-0.385559	
-0.38446	
-0.384644	
-0.384827	
-0.385559	
-0.384644	
-0.384949	
-0.383789	
-0.384583	
-0.384583	
-0.385498	
-0.384583	
-0.38562	
-0.385803	
-0.387756	
-0.388672	
-0.390015	
-0.391541	
-0.395752	
-0.398987	
-0.40332	
-0.405762	
-0.412231	
-0.416199	
-0.421204	
-0.425842	
-0.431641	
-0.437988	
-0.443542	
-0.451965	
-0.457825	
-0.464661	
-0.470032	
-0.476379	
-0.479858	
-0.483826	
-0.484741	
-0.487976	
-0.48938	
-0.491089	
-0.490906	
-0.492188	
-0.491394	
-0.493286	
-0.492493	
-0.492493	
-0.491272	
-0.490662	
-0.489807	
-0.489441	
-0.487732	
-0.487488	
-0.48645	
-0.486938	
-0.485474	
-0.485901	
-0.486267	
-0.487305	
-0.487976	
-0.488342	
-0.488953	
-0.491516	
-0.492249	
-0.493835	
-0.494995	
-0.496765	
-0.49823	
-0.498962	
-0.499817	
-0.5	
-0.500366	
-0.500366	
-0.499817	
-0.498474	
-0.499023	
-0.497314	
-0.496338	
-0.495056	
-0.49585	
-0.495117	
-0.495483	
-0.494995	
-0.494812	
-0.493713	
-0.49469	
-0.492798	
-0.492737	
-0.491699	
-0.491638	
-0.491089	
-0.490295	
-0.489502	
-0.489502	
-0.487671	
-0.486572	
-0.483582	
-0.482056	
-0.47876	
-0.476196	
-0.471802	
-0.468018	
-0.462219	
-0.458496	
-0.452576	
-0.448303	
-0.441101	
-0.435791	
-0.428284	
-0.421692	
-0.411743	
-0.403442	
-0.392761	
-0.384094	
-0.372925	
-0.363037	
-0.351501	
-0.340698	
-0.328064	
-0.318054	
-0.305969	
-0.295654	
-0.284058	
-0.27478	
-0.26593	
-0.259338	
-0.252258	
-0.247253	
-0.242737	
-0.240845	
-0.237976	
-0.237305	
-0.234802	
-0.236572	
-0.23645	
-0.237793	
-0.238281	
-0.241882	
-0.244507	
-0.247742	
-0.251099	
-0.255432	
-0.25946	
-0.263916	
-0.268188	
-0.272339	
-0.277039	
-0.281494	
-0.286926	
-0.290649	
-0.295105	
-0.297363	
-0.303101	
-0.30542	
-0.308655	
-0.311951	
-0.315857	
-0.318787	
-0.321167	
-0.32312	
-0.326599	
-0.329407	
-0.331604	
-0.334167	
-0.335754	
-0.338257	
-0.338562	
-0.341858	
-0.34259	
-0.344421	
-0.345093	
-0.347595	
-0.3479	
-0.349243	
-0.34967	
-0.351929	
-0.352295	
-0.35199	
-0.352112	
-0.354004	
-0.354309	
-0.355042	
-0.355469	
-0.355591	
-0.356689	
-0.356201	
-0.357056	
-0.357605	
-0.357849	
-0.358337	
-0.359497	
-0.35907	
-0.359009	
-0.358948	
-0.359497	
-0.360352	
-0.359924	
-0.359924	
-0.360352	
-0.360413	
-0.359558	
-0.359741	
-0.359558	
-0.359863	
-0.359314	
-0.359802	
-0.359497	
-0.359436	
-0.359314	
-0.359253	
-0.359558	
-0.359436	
-0.358704	
-0.358948	
-0.359497	
-0.359131	
-0.358826	
-0.359009	
-0.359131	
-0.360107	
-0.359497	
-0.359863	
-0.359863	
-0.359741	
-0.360779	
-0.359802	
-0.359619	
-0.36084	
-0.360718	
-0.360535	
-0.360352	
-0.360657	
-0.360962	
-0.360901	
-0.362244	
-0.361267	
-0.360229	
-0.361938	
-0.361755	
-0.361755	
-0.361877	
-0.361023	
-0.361572	
-0.361694	
-0.361694	
-0.361511	
-0.361572	
-0.361938	
-0.36322	
-0.361816	
-0.362244	
-0.361145	
-0.361938	
-0.36322	
-0.362854	
-0.362976	
-0.363281	
-0.363281	
-0.363525	
-0.363953	
-0.363586	
-0.363708	
-0.363708	
-0.364502	
-0.364075	
-0.363525	
-0.363892	
-0.364929	
-0.364563	
-0.364624	
-0.363403	
-0.364441	
-0.365845	
-0.364807	
-0.365051	
-0.365112	
-0.365356	
-0.365845	
-0.366394	
-0.365723	
-0.365967	
-0.365173	
-0.366882	
-0.36615	
-0.366882	
-0.366333	
-0.36731	
-0.366821	
-0.367493	
-0.36676	
-0.367126	
-0.368225	
-0.36792	
-0.368164	
-0.367798	
-0.368408	
-0.369446	
-0.368774	
-0.368774	
-0.368469	
-0.368835	
-0.370605	
-0.369324	
-0.369873	
-0.367554	
-0.368835	
-0.368713	
-0.370117	
-0.369385	
-0.369141	
-0.370178	
-0.371216	
-0.370056	
-0.371033	
-0.369629	
-0.371338	
-0.3703	
-0.371216	
-0.370728	
-0.371338	
-0.372314	
-0.372253	
-0.37207	
-0.372131	
-0.372375	
-0.373108	
-0.372803	
-0.372375	
-0.371643	
-0.372131	
-0.372986	
-0.372986	
-0.373108	
-0.372559	
-0.373047	
-0.373657	
-0.374207	
-0.373474	
-0.372131	
-0.373169	
-0.37384	
-0.373413	
-0.374146	
-0.373047	
-0.373413	
-0.372803	
-0.373291	
-0.373047	
-0.372864	
-0.372803	
-0.374023	
-0.373352	
-0.373169	
-0.371033	
-0.372986	
-0.372803	
-0.372742	
-0.372498	
-0.37207	
-0.372253	
-0.373596	
-0.372375	
-0.371704	
-0.371643	
-0.37207	
-0.37262	
-0.371765	
-0.37146	
-0.371948	
-0.372437	
-0.372559	
-0.372681	
-0.372253	
-0.373169	
-0.373962	
-0.374023	
-0.374146	
-0.374023	
-0.375488	
-0.376648	
-0.375732	
-0.37561	
-0.37439	
-0.376221	
-0.376587	
-0.376526	
-0.376404	
-0.375549	
-0.376892	
-0.37793	
-0.377136	
-0.376587	
-0.376953	
-0.377258	
-0.37738	
-0.377014	
-0.377197	
-0.37738	
-0.377991	
-0.377991	
-0.377991	
-0.377136	
-0.378113	
-0.377808	
-0.377869	
-0.377563	
-0.377869	
-0.377991	
-0.379333	
-0.378174	
-0.378784	
-0.377258	
-0.378296	
-0.379211	
-0.378906	
-0.378845	
-0.377808	
-0.379028	
-0.379822	
-0.378662	
-0.378418	
-0.378967	
-0.379517	
-0.378845	
-0.378418	
-0.377319	
-0.378601	
-0.379028	
-0.378235	
-0.378296	
-0.377319	
-0.37854	
-0.379211	
-0.378479	
-0.378052	
-0.378052	
-0.378479	
-0.380188	
-0.379028	
-0.379333	
-0.37854	
-0.379333	
-0.379272	
-0.378906	
-0.378723	
-0.379089	
-0.379272	
-0.380127	
-0.379272	
-0.379822	
-0.37793	
-0.379395	
-0.378479	
-0.379272	
-0.378296	
-0.378723	
-0.379639	
-0.379761	
-0.378845	
-0.3797	
-0.378113	
-0.379944	
-0.378235	
-0.379395	
-0.378723	
-0.379395	
-0.379822	
-0.380066	
-0.379333	
-0.379578	
-0.3797	
-0.381042	
-0.379822	
-0.380249	
-0.378784	
-0.380493	
-0.381287	
-0.380432	
-0.380432	
-0.379211	
-0.381226	
-0.38208	
-0.38092	
-0.381104	
-0.379822	
-0.381226	
-0.381836	
-0.381653	
-0.381409	
-0.380981	
-0.381287	
-0.381042	
-0.380554	
-0.380737	
-0.380981	
-0.380981	
-0.381165	
-0.381104	
-0.380798	
-0.380066	
-0.381104	
-0.380554	
-0.380554	
-0.379883	
-0.380859	
-0.380554	
-0.380737	
-0.38031	
-0.380188	
-0.379639	
-0.381226	
-0.3797	
-0.379822	
-0.378113	
-0.380371	
-0.380981	
-0.380127	
-0.379639	
-0.379822	
-0.380432	
-0.381226	
-0.379089	
-0.379578	
-0.379456	
-0.379761	
-0.379822	
-0.379211	
-0.3797	
-0.379578	
-0.379944	
-0.379761	
-0.379822	
-0.379761	
-0.380554	
-0.381287	
-0.381531	
-0.381775	
-0.38147	
-0.381531	
-0.381836	
-0.381409	
-0.381714	
-0.381531	
-0.382507	
-0.383057	
-0.382385	
-0.382629	
-0.381714	
-0.382507	
-0.384155	
-0.382202	
-0.382935	
-0.381165	
-0.38269	
-0.383728	
-0.383118	
-0.382629	
-0.382507	
-0.383301	
-0.38446	
-0.382996	
-0.382385	
-0.381592	
-0.383118	
-0.383972	
-0.382568	
-0.38269	
-0.381775	
-0.382813	
-0.38324	
-0.382874	
-0.382629	
-0.382874	
-0.383362	
-0.383606	
-0.383118	
-0.383301	
-0.383301	
-0.383911	
-0.383179	
-0.38324	
-0.38324	
-0.383545	
-0.383972	
-0.383484	
-0.383911	
-0.38385	
-0.383911	
-0.383911	
-0.383057	
-0.383606	
-0.383362	
-0.383118	
-0.384033	
-0.38324	
-0.383057	
-0.382751	
-0.383301	
-0.384827	
-0.383423	
-0.384033	
-0.382019	
-0.383789	
-0.385132	
-0.384583	
-0.383911	
-0.383484	
-0.384277	
-0.385803	
-0.383179	
-0.38385	
-0.382629	
-0.384216	
-0.385193	
-0.384216	
-0.384399	
-0.38446	
-0.384705	
-0.385315	
-0.383789	
-0.384705	
-0.383972	
-0.384521	
-0.384949	
-0.384766	
-0.384277	
-0.383667	
-0.384155	
-0.384583	
-0.383545	
-0.38324	
-0.383606	
-0.384155	
-0.384644	
-0.383728	
-0.383301	
-0.382935	
-0.384399	
-0.383789	
-0.384277	
-0.383301	
-0.383972	
-0.384766	
-0.385071	
-0.383545	
-0.382507	
-0.383667	
-0.38446	
-0.383606	
-0.383179	
-0.382019	
-0.383362	
-0.38385	
-0.383728	
-0.382813	
-0.383728	
-0.383301	
-0.383911	
-0.382446	
-0.382568	
-0.382813	
-0.382813	
-0.382874	
-0.382813	
-0.382629	
-0.383179	
-0.383118	
-0.383301	
-0.381653	
-0.382751	
-0.381714	
-0.382935	
-0.383423	
-0.382263	
-0.382263	
-0.38324	
-0.382874	
-0.383606	
-0.382751	
-0.383118	
-0.38208	
-0.38446	
-0.383911	
-0.383728	
-0.382935	
-0.383789	
-0.384705	
-0.384766	
-0.383667	
-0.384216	
-0.384216	
-0.385315	
-0.385254	
-0.385132	
-0.385315	
-0.385254	
-0.385986	
-0.385742	
-0.38562	
-0.384888	
-0.385864	
-0.38562	
-0.38562	
-0.385681	
-0.385925	
-0.385193	
-0.385986	
-0.384399	
-0.384521	
-0.383362	
-0.384033	
-0.383423	
-0.38385	
-0.382629	
-0.383301	
-0.381958	
-0.383484	
-0.382507	
-0.382629	
-0.381348	
-0.38269	
-0.382446	
-0.383301	
-0.382263	
-0.383057	
-0.381409	
-0.382996	
-0.381226	
-0.382385	
-0.381348	
-0.382629	
-0.382019	
-0.382874	
-0.381287	
-0.382813	
-0.381836	
-0.383118	
-0.382019	
-0.38208	
-0.381104	
-0.38269	
-0.382202	
-0.381897	
-0.380859	
-0.382324	
-0.382324	
-0.383118	
-0.381775	
-0.381531	
-0.381836	
-0.382629	
-0.382141	
-0.38208	
-0.382507	
-0.382019	
-0.382324	
-0.38269	
-0.382263	
-0.38208	
-0.382324	
-0.382568	
-0.38269	
-0.382141	
-0.383484	
-0.382751	
-0.383423	
-0.382202	
-0.38324	
-0.383057	
-0.383301	
-0.382996	
-0.382629	
-0.382202	
-0.383545	
-0.382507	
-0.382629	
-0.38147	
-0.382751	
-0.382385	
-0.383179	
-0.38269	
-0.383057	
-0.381958	
-0.38324	
-0.382019	
-0.383789	
-0.38269	
-0.382751	
-0.382019	
-0.38385	
-0.38324	
-0.38385	
-0.382813	
-0.382813	
-0.382568	
-0.383911	
-0.383484	
-0.382874	
-0.382019	
-0.383484	
-0.383118	
-0.383606	
-0.382874	
-0.382629	
-0.382935	
-0.383667	
-0.382629	
-0.382263	
-0.38092	
-0.382324	
-0.382324	
-0.383057	
-0.382263	
-0.382324	
-0.381775	
-0.382324	
-0.381714	
-0.382019	
-0.381042	
-0.381592	
-0.381653	
-0.381348	
-0.382324	
-0.381592	
-0.381348	
-0.38269	
-0.382446	
-0.381653	
-0.382629	
-0.381958	
-0.382202	
-0.381348	
-0.382629	
-0.381897	
-0.382385	
-0.383301	
-0.382507	
-0.38269	
-0.383728	
-0.383362	
-0.383728	
-0.382141	
-0.38324	
-0.383423	
-0.383545	
-0.383728	
-0.383911	
-0.382996	
-0.384155	
-0.383911	
-0.383484	
-0.383179	
-0.38385	
-0.383606	
-0.384338	
-0.384033	
-0.383911	
-0.383667	
-0.384338	
-0.384033	
-0.384094	
-0.384338	
-0.383606	
-0.383545	
-0.383667	
-0.38324	
-0.383667	
-0.382813	
-0.382874	
-0.382507	
-0.382996	
-0.382385	
-0.381958	
-0.380737	
-0.381836	
-0.381653	
-0.381409	
-0.380066	
-0.381165	
-0.381348	
-0.382019	
-0.382385	
-0.381226	
-0.380249	
-0.381104	
-0.380981	
-0.381042	
-0.379211	
-0.38092	
-0.380737	
-0.381409	
-0.381531	
-0.380737	
-0.381165	
-0.381958	
-0.381409	
-0.381226	
-0.380859	
-0.381409	
-0.381531	
-0.38147	
-0.381592	
-0.381531	
-0.38147	
-0.381531	
-0.381104	
-0.381042	
-0.381531	
-0.381226	
-0.381409	
-0.380859	
-0.381226	
-0.381165	
-0.381348	
-0.381592	
-0.380737	
-0.380615	
-0.381714	
-0.381287	
-0.381104	
-0.380554	
-0.381104	
-0.381165	
-0.382324	
-0.381226	
-0.38092	
-0.380066	
-0.382263	
-0.381592	
-0.381592	
-0.380249	
-0.381409	
-0.380615	
-0.381409	
-0.380554	
-0.380737	
-0.378906	
-0.381104	
-0.380798	
-0.381287	
-0.380554	
-0.380493	
-0.37915	
-0.380737	
-0.380249	
-0.380615	
-0.379395	
-0.38092	
-0.380493	
-0.381042	
-0.381592	
-0.380615	
-0.380066	
-0.380493	
-0.380554	
-0.380554	
-0.379639	
-0.380981	
-0.380737	
-0.381165	
-0.38147	
-0.380615	
-0.38147	
-0.381897	
-0.381165	
-0.381042	
-0.380615	
-0.381165	
-0.381226	
-0.380981	
-0.381287	
-0.381104	
-0.380737	
-0.38147	
-0.380615	
-0.380615	
-0.380554	
-0.380676	
-0.381653	
-0.381226	
-0.38092	
-0.381409	
-0.381775	
-0.382202	
-0.381653	
-0.381226	
-0.381531	
-0.381775	
-0.382141	
-0.381348	
-0.382324	
-0.382263	
-0.38269	
-0.382874	
-0.382324	
-0.382019	
-0.382385	
-0.382507	
-0.383057	
-0.381531	
-0.382751	
-0.381592	
-0.382507	
-0.382629	
-0.381958	
-0.382324	
-0.382874	
-0.382996	
-0.383179	
-0.380859	
-0.381653	
-0.381165	
-0.381714	
-0.381714	
-0.381165	
-0.381531	
-0.382019	
-0.381042	
-0.381531	
-0.381226	
-0.380432	
-0.381042	
-0.38031	
-0.38031	
-0.379944	
-0.379822	
-0.38031	
-0.379761	
-0.379639	
-0.380005	
-0.379272	
-0.379578	
-0.378418	
-0.378967	
-0.378845	
-0.37915	
-0.379272	
-0.379028	
-0.3797	
-0.38031	
-0.379822	
-0.38092	
-0.379395	
-0.380554	
-0.380554	
-0.380981	
-0.381653	
-0.382629	
-0.382324	
-0.382874	
-0.381531	
-0.382935	
-0.382507	
-0.38269	
-0.381409	
-0.381775	
-0.382446	
-0.383484	
-0.382629	
-0.383301	
-0.381287	
-0.383484	
-0.383179	
-0.383057	
-0.382751	
-0.383301	
-0.383362	
-0.384094	
-0.382568	
-0.383911	
-0.38324	
-0.383728	
-0.383789	
-0.382629	
-0.382874	
-0.383789	
-0.383362	
-0.383423	
-0.381958	
-0.383606	
-0.382996	
-0.383911	
-0.383484	
-0.383362	
-0.383728	
-0.383728	
-0.383606	
-0.383057	
-0.383179	
-0.38324	
-0.382751	
-0.382813	
-0.382751	
-0.382263	
-0.38208	
-0.382568	
-0.382935	
-0.382202	
-0.382202	
-0.382629	
-0.383118	
-0.382813	
-0.382324	
-0.382446	
-0.382385	
-0.383057	
-0.383179	
-0.382385	
-0.382629	
-0.382507	
-0.383606	
-0.38324	
-0.382813	
-0.38208	
-0.382324	
-0.383179	
-0.383423	
-0.38208	
-0.382935	
-0.382202	
-0.383606	
-0.382996	
-0.382263	
-0.38092	
-0.38208	
-0.382874	
-0.383118	
-0.382019	
-0.382507	
-0.382019	
-0.383423	
-0.383423	
-0.382263	
-0.381592	
-0.382813	
-0.383301	
-0.383972	
-0.38208	
-0.382813	
-0.382568	
-0.383789	
-0.383789	
-0.383423	
-0.383667	
-0.383484	
-0.38324	
-0.384033	
-0.383057	
-0.384216	
-0.384216	
-0.384521	
-0.383972	
-0.383972	
-0.383972	
-0.384521	
-0.383911	
-0.384216	
-0.383728	
-0.384644	
-0.383545	
-0.383789	
-0.382935	
-0.383179	
-0.383301	
-0.383606	
-0.383545	
-0.383362	
-0.383362	
-0.383484	
-0.383118	
-0.383301	
-0.381592	
-0.382629	
-0.382446	
-0.382385	
-0.382935	
-0.381836	
-0.382385	
-0.383057	
-0.382874	
-0.382568	
-0.38147	
-0.381104	
-0.38147	
-0.382568	
-0.382568	
-0.381348	
-0.382141	
-0.382263	
-0.38269	
-0.382324	
-0.380859	
-0.380615	
-0.38092	
-0.381836	
-0.382324	
-0.380981	
-0.382202	
-0.382385	
-0.383545	
-0.382874	
-0.381836	
-0.382446	
-0.384155	
-0.383423	
-0.384827	
-0.382751	
-0.383606	
-0.383301	
-0.384521	
-0.383911	
-0.384338	
-0.384155	
-0.385254	
-0.384338	
-0.385498	
-0.384155	
-0.384827	
-0.38385	
-0.385437	
-0.384705	
-0.384583	
-0.38501	
-0.38562	
-0.385071	
-0.385925	
-0.384705	
-0.385254	
-0.38385	
-0.38446	
-0.384338	
-0.384338	
-0.384338	
-0.384583	
-0.384338	
-0.385071	
-0.384338	
-0.384888	
-0.384399	
-0.384888	
-0.384583	
-0.38446	
-0.384949	
-0.384766	
-0.385071	
-0.385193	
-0.385132	
-0.385437	
-0.385132	
-0.385925	
-0.385437	
-0.38501	
-0.384277	
-0.384888	
-0.385254	
-0.385193	
-0.385071	
-0.385498	
-0.385193	
-0.386292	
-0.38446	
-0.384827	
-0.384094	
-0.384705	
-0.385254	
-0.38446	
-0.385254	
-0.386169	
-0.386292	
-0.386414	
-0.38446	
-0.385254	
-0.386169	
-0.385803	
-0.385559	
-0.384705	
-0.385803	
-0.386169	
-0.386536	
-0.385681	
-0.384827	
-0.385254	
-0.386353	
-0.385864	
-0.385925	
-0.385315	
-0.385437	
-0.38623	
-0.38678	
-0.385681	
-0.385559	
-0.384705	
-0.385681	
-0.385925	
-0.385803	
-0.385254	
-0.385132	
-0.385376	
-0.385681	
-0.384644	
-0.384888	
-0.383484	
-0.385437	
-0.385254	
-0.385742	
-0.385254	
-0.385498	
-0.385742	
-0.387024	
-0.385071	
-0.385437	
-0.383667	
-0.385193	
-0.385376	
-0.385681	
-0.384827	
-0.38501	
-0.383789	
-0.385864	
-0.38446	
-0.384094	
-0.382996	
-0.383972	
-0.384399	
-0.384216	
-0.384155	
-0.384277	
-0.383057	
-0.385132	
-0.384277	
-0.384033	
-0.383545	
-0.383972	
-0.383911	
-0.384094	
-0.383301	
-0.384094	
-0.383484	
-0.38446	
-0.383606	
-0.383972	
-0.383484	
-0.384155	
-0.383972	
-0.38446	
-0.384644	
-0.38446	
-0.384949	
-0.385681	
-0.384277	
-0.385193	
-0.38501	
-0.384705	
-0.384888	
-0.385437	
-0.385132	
-0.385986	
-0.386108	
-0.386353	
-0.386108	
-0.386169	
-0.386475	
-0.386658	
-0.386658	
-0.386902	
-0.386963	
-0.387268	
-0.387085	
-0.387146	
-0.385803	
-0.386719	
-0.386841	
-0.386292	
-0.386353	
-0.385986	
-0.385498	
-0.386536	
-0.385681	
-0.384888	
-0.383728	
-0.384155	
-0.38385	
-0.384094	
-0.383606	
-0.383728	
-0.383484	
-0.384094	
-0.383606	
-0.383545	
-0.382874	
-0.384094	
-0.383545	
-0.383545	
-0.383179	
-0.383484	
-0.383606	
-0.38385	
-0.383545	
-0.383118	
-0.382751	
-0.383789	
-0.383301	
-0.383362	
-0.38208	
-0.382996	
-0.383423	
-0.383179	
-0.383972	
-0.383362	
-0.383179	
-0.383423	
-0.38269	
-0.383606	
-0.383118	
-0.383301	
-0.383484	
-0.382935	
-0.384033	
-0.382935	
-0.38324	
-0.383057	
-0.382996	
-0.38324	
-0.383667	
-0.383728	
-0.383789	
-0.383057	
-0.385193	
-0.383667	
-0.384155	
-0.382629	
-0.384216	
-0.383972	
-0.385132	
-0.384338	
-0.384033	
-0.383484	
-0.38562	
-0.383728	
-0.383911	
-0.381775	
-0.384094	
-0.383789	
-0.384338	
-0.383606	
-0.383911	
-0.383301	
-0.385071	
-0.383301	
-0.383667	
-0.381653	
-0.383667	
-0.38385	
-0.384644	
-0.384155	
-0.384583	
-0.384216	
-0.385681	
-0.382874	
-0.38446	
-0.38269	
-0.384155	
-0.384277	
-0.384338	
-0.384094	
-0.385071	
-0.384277	
-0.385254	
-0.383179	
-0.384094	
-0.382935	
-0.383301	
-0.38324	
-0.383545	
-0.383545	
-0.383728	
-0.383362	
-0.384277	
-0.383484	
-0.383728	
-0.382507	
-0.383118	
-0.381897	
-0.382019	
-0.38269	
-0.382385	
-0.383057	
-0.383179	
-0.382568	
-0.383057	
-0.38269	
-0.38269	
-0.381897	
-0.382751	
-0.382935	
-0.382629	
-0.383545	
-0.383118	
-0.383179	
-0.38385	
-0.383484	
-0.383362	
-0.382935	
-0.383728	
-0.383789	
-0.383911	
-0.384277	
-0.384277	
-0.384216	
-0.384216	
-0.384155	
-0.384094	
-0.383911	
-0.384521	
-0.384399	
-0.384583	
-0.384766	
-0.384399	
-0.384338	
-0.384766	
-0.384644	
-0.384216	
-0.385254	
-0.384644	
-0.385132	
-0.384521	
-0.385132	
-0.384521	
-0.385071	
-0.384583	
-0.384521	
-0.384521	
-0.384399	
-0.383301	
-0.384521	
-0.382629	
-0.383911	
-0.382751	
-0.382935	
-0.381958	
-0.382446	
-0.382324	
-0.382935	
-0.382446	
-0.383057	
-0.380737	
-0.382568	
-0.381165	
-0.381775	
-0.381165	
-0.382019	
-0.38208	
-0.382324	
-0.381348	
-0.382446	
-0.380859	
-0.382751	
-0.380188	
-0.38147	
-0.379883	
-0.381714	
-0.381836	
-0.382935	
-0.38269	
-0.382751	
-0.381775	
-0.383606	
-0.382141	
-0.38208	
-0.380737	
-0.382202	
-0.381592	
-0.382446	
-0.382263	
-0.382324	
-0.382141	
-0.382202	
-0.381897	
-0.381836	
-0.380554	
-0.381653	
-0.38147	
-0.381897	
-0.38147	
-0.381226	
-0.381653	
-0.382446	
-0.381897	
-0.381714	
-0.38092	
-0.381958	
-0.382019	
-0.382202	
-0.381653	
-0.381714	
-0.382629	
-0.382813	
-0.382019	
-0.381165	
-0.380737	
-0.381592	
-0.38147	
-0.380981	
-0.380737	
-0.380981	
-0.381592	
-0.381409	
-0.380859	
-0.380798	
-0.380859	
-0.38092	
-0.381287	
-0.380798	
-0.381165	
-0.380615	
-0.38147	
-0.381348	
-0.380676	
-0.380066	
-0.380676	
-0.381104	
-0.381409	
-0.380615	
-0.381165	
-0.380005	
-0.382263	
-0.381653	
-0.381348	
-0.380615	
-0.381165	
-0.382019	
-0.381958	
-0.381348	
-0.38208	
-0.380798	
-0.382202	
-0.380859	
-0.381287	
-0.381042	
-0.381348	
-0.381348	
-0.380188	
-0.381165	
-0.381531	
-0.381409	
-0.382202	
-0.381042	
-0.381531	
-0.38208	
-0.381836	
-0.381958	
-0.380432	
-0.381958	
-0.38208	
-0.382385	
-0.38269	
-0.381714	
-0.382507	
-0.383118	
-0.382263	
-0.382141	
-0.381958	
-0.382568	
-0.383362	
-0.382996	
-0.382446	
-0.381287	
-0.382629	
-0.383423	
-0.382385	
-0.382935	
-0.382385	
-0.38269	
-0.383484	
-0.382935	
-0.382874	
-0.381348	
-0.381897	
-0.382935	
-0.382263	
-0.382141	
-0.381653	
-0.381409	
-0.381714	
-0.381287	
-0.381836	
-0.380432	
-0.380859	
-0.380737	
-0.380981	
-0.381042	
-0.379944	
-0.380249	
-0.379456	
-0.379761	
-0.380676	
-0.378967	
-0.379089	
-0.378723	
-0.379883	
-0.379761	
-0.379333	
-0.380005	
-0.378845	
-0.380005	
-0.380188	
-0.379089	
-0.379944	
-0.380371	
-0.380676	
-0.38147	
-0.381531	
-0.381653	
-0.381165	
-0.382507	
-0.382202	
-0.382507	
-0.381958	
-0.382141	
-0.382385	
-0.38324	
-0.382935	
-0.38269	
-0.382507	
-0.383362	
-0.38324	
-0.38324	
-0.381897	
-0.382813	
-0.382935	
-0.38324	
-0.383057	
-0.383118	
-0.383301	
-0.383728	
-0.38269	
-0.38324	
-0.382202	
-0.383057	
-0.38269	
-0.382996	
-0.382751	
-0.382446	
-0.38269	
-0.384216	
-0.383484	
-0.383362	
-0.382263	
-0.383301	
-0.383606	
-0.382935	
-0.383179	
-0.383301	
-0.383484	
-0.383789	
-0.383179	
-0.383118	
-0.382568	
-0.382751	
-0.38324	
-0.382446	
-0.382202	
-0.382263	
-0.382568	
-0.383728	
-0.382019	
-0.382019	
-0.381775	
	
