C:\DOCUMENTS AND SETTINGS\JASON\DESKTOP\UFRJ\UFRJ EPHYS\RSCI-BM 12 WK SERIES\070803-RSCI-BM-11\RSCI-BM-11-LEMG\070803-RSCI-BM-11-LEMG-0000.ACQ
0.025000 msec/sample
1 channel
Analog input
Volts
CH1	
2000	
-0.392822	
-0.394836	
-0.394592	
-0.394287	
-0.39502	
-0.394409	
-0.394958	
-0.394592	
-0.395508	
-0.394897	
-0.394226	
-0.393677	
-0.392761	
-0.392822	
-0.394104	
-0.393555	
-0.393005	
-0.393555	
-0.394348	
-0.392944	
-0.392212	
-0.392639	
-0.390259	
-0.391602	
-0.391296	
-0.389893	
-0.391113	
-0.392334	
-0.392212	
-0.392151	
-0.391846	
-0.391663	
-0.391602	
-0.391846	
-0.392517	
-0.391357	
-0.391663	
-0.390686	
-0.388977	
-0.389709	
-0.389832	
-0.39032	
-0.388733	
-0.388733	
-0.388367	
-0.387207	
-0.387878	
-0.38855	
-0.387939	
-0.387451	
-0.387085	
-0.385864	
-0.385864	
-0.386475	
-0.38678	
-0.386047	
-0.38562	
-0.386475	
-0.386047	
-0.386353	
-0.386658	
-0.388	
-0.387756	
-0.387146	
-0.387451	
-0.386902	
-0.38739	
-0.388367	
-0.38916	
-0.388733	
-0.388672	
-0.390076	
-0.388611	
-0.38916	
-0.389099	
-0.389038	
-0.388794	
-0.388733	
-0.389221	
-0.389343	
-0.390625	
-0.390991	
-0.390442	
-0.391357	
-0.39093	
-0.390015	
-0.391052	
-0.391602	
-0.390503	
-0.390869	
-0.392639	
-0.391663	
-0.391785	
-0.392273	
-0.392578	
-0.392517	
-0.392639	
-0.392639	
-0.3927	
-0.393127	
-0.393188	
-0.393799	
-0.393494	
-0.393005	
-0.391296	
-0.392029	
-0.392273	
-0.393005	
-0.393799	
-0.393616	
-0.392578	
-0.393372	
-0.392334	
-0.393127	
-0.393738	
-0.392212	
-0.392212	
-0.392456	
-0.392151	
-0.392883	
-0.393677	
-0.394165	
-0.393677	
-0.393677	
-0.394348	
-0.392212	
-0.39386	
-0.393799	
-0.393555	
-0.393921	
-0.39325	
-0.392395	
-0.392334	
-0.393433	
-0.39386	
-0.392639	
-0.39325	
-0.393005	
-0.392395	
-0.392883	
-0.394714	
-0.393616	
-0.392639	
-0.392517	
-0.391724	
-0.391541	
-0.391846	
-0.392578	
-0.392456	
-0.389832	
-0.38916	
-0.389648	
-0.390808	
-0.390991	
-0.391174	
-0.390076	
-0.391235	
-0.390015	
-0.39032	
-0.39093	
-0.391357	
-0.391357	
-0.391418	
-0.391541	
-0.392456	
-0.391296	
-0.392151	
-0.391907	
-0.391418	
-0.391357	
-0.39093	
-0.390747	
-0.391174	
-0.391785	
-0.392273	
-0.391418	
-0.391296	
-0.391174	
-0.390076	
-0.391174	
-0.390808	
-0.391602	
-0.39032	
-0.389954	
-0.389343	
-0.388733	
-0.389771	
-0.389709	
-0.388428	
-0.388062	
-0.388916	
-0.387939	
-0.387939	
-0.389099	
-0.389709	
-0.38855	
-0.388184	
-0.314392	
-0.320251	
-0.336975	
-0.34198	
-0.344482	
-0.345032	
-0.436646	
-0.409912	
-0.399109	
-0.395142	
-0.39386	
-0.391663	
-0.390625	
-0.389465	
-0.389465	
-0.390503	
-0.390991	
-0.39093	
-0.390625	
-0.390503	
-0.390625	
-0.390259	
-0.391968	
-0.392761	
-0.391418	
-0.39093	
-0.390686	
-0.389404	
-0.391296	
-0.391724	
-0.392578	
-0.391602	
-0.392273	
-0.391602	
-0.39093	
-0.393311	
-0.394043	
-0.392517	
-0.392639	
-0.392212	
-0.393372	
-0.395935	
-0.396667	
-0.397217	
-0.39679	
-0.395935	
-0.395935	
-0.395386	
-0.397278	
-0.396851	
-0.396057	
-0.395691	
-0.394165	
-0.394348	
-0.395203	
-0.394714	
-0.39447	
-0.392334	
-0.392151	
-0.391785	
-0.391968	
-0.393127	
-0.394226	
-0.39563	
-0.396484	
-0.397644	
-0.399414	
-0.401794	
-0.403687	
-0.407593	
-0.410461	
-0.413208	
-0.416809	
-0.42157	
-0.425903	
-0.431091	
-0.434937	
-0.441101	
-0.444153	
-0.449585	
-0.455933	
-0.460388	
-0.463379	
-0.466187	
-0.46875	
-0.47113	
-0.471252	
-0.474121	
-0.474121	
-0.472534	
-0.471741	
-0.470825	
-0.472351	
-0.474304	
-0.475098	
-0.476746	
-0.476257	
-0.478149	
-0.478027	
-0.477966	
-0.48114	
-0.482361	
-0.482239	
-0.483948	
-0.484436	
-0.488586	
-0.489685	
-0.491394	
-0.493896	
-0.494141	
-0.49469	
-0.496338	
-0.497314	
-0.499817	
-0.499756	
-0.499512	
-0.498718	
-0.498657	
-0.499756	
-0.500977	
-0.501343	
-0.502075	
-0.501526	
-0.501465	
-0.501587	
-0.500916	
-0.502258	
-0.501892	
-0.5	
-0.498169	
-0.495789	
-0.495239	
-0.492493	
-0.490051	
-0.48761	
-0.483521	
-0.480286	
-0.476013	
-0.472595	
-0.469055	
-0.463989	
-0.458557	
-0.454346	
-0.449219	
-0.44635	
-0.44281	
-0.438721	
-0.434753	
-0.430237	
-0.426025	
-0.42218	
-0.417419	
-0.414734	
-0.410278	
-0.404785	
-0.39917	
-0.393311	
-0.387512	
-0.384399	
-0.378418	
-0.37207	
-0.365601	
-0.357483	
-0.349243	
-0.341125	
-0.332703	
-0.325867	
-0.314392	
-0.305359	
-0.293884	
-0.285706	
-0.277405	
-0.268982	
-0.26123	
-0.255737	
-0.250061	
-0.246338	
-0.243347	
-0.24292	
-0.241882	
-0.240173	
-0.240112	
-0.240173	
-0.241211	
-0.245544	
-0.247986	
-0.25	
-0.253479	
-0.257019	
-0.260315	
-0.265015	
-0.268433	
-0.273682	
-0.278503	
-0.28241	
-0.287109	
-0.292542	
-0.297852	
-0.302002	
-0.30719	
-0.310852	
-0.315247	
-0.31958	
-0.322815	
-0.329224	
-0.331726	
-0.33429	
-0.337769	
-0.342163	
-0.345947	
-0.349731	
-0.35321	
-0.355591	
-0.358765	
-0.362488	
-0.365112	
-0.368774	
-0.368958	
-0.371216	
-0.37384	
-0.373413	
-0.377136	
-0.377747	
-0.378723	
-0.380127	
-0.379272	
-0.379761	
-0.381104	
-0.380981	
-0.382141	
-0.382141	
-0.382263	
-0.381348	
-0.382874	
-0.382996	
-0.382446	
-0.382507	
-0.382446	
-0.381653	
-0.382507	
-0.382385	
-0.384155	
-0.381836	
-0.381592	
-0.382019	
-0.381165	
-0.381897	
-0.381653	
-0.381165	
-0.381592	
-0.380554	
-0.380554	
-0.380493	
-0.379639	
-0.379456	
-0.377441	
-0.375977	
-0.374573	
-0.373291	
-0.372742	
-0.371826	
-0.370544	
-0.370178	
-0.367981	
-0.367126	
-0.366394	
-0.363708	
-0.363586	
-0.360596	
-0.360596	
-0.358398	
-0.356812	
-0.356262	
-0.355347	
-0.353638	
-0.352966	
-0.350464	
-0.34967	
-0.3479	
-0.346436	
-0.346863	
-0.343994	
-0.34375	
-0.343689	
-0.341309	
-0.342651	
-0.342468	
-0.343323	
-0.343994	
-0.343872	
-0.344543	
-0.343872	
-0.345337	
-0.345703	
-0.345093	
-0.346252	
-0.346497	
-0.34845	
-0.350098	
-0.351257	
-0.352844	
-0.353699	
-0.355103	
-0.356689	
-0.356812	
-0.35907	
-0.359192	
-0.358948	
-0.361145	
-0.359558	
-0.361816	
-0.362976	
-0.364441	
-0.364563	
-0.365845	
-0.36676	
-0.36731	
-0.367249	
-0.36908	
-0.367981	
-0.368408	
-0.368652	
-0.369141	
-0.370544	
-0.372498	
-0.373596	
-0.374329	
-0.374084	
-0.375916	
-0.374451	
-0.375854	
-0.375549	
-0.374451	
-0.375183	
-0.375305	
-0.37616	
-0.376709	
-0.377502	
-0.37738	
-0.377075	
-0.377747	
-0.377686	
-0.378723	
-0.378906	
-0.377869	
-0.377625	
-0.378174	
-0.377075	
-0.378479	
-0.379333	
-0.379639	
-0.378235	
-0.379456	
-0.379028	
-0.379333	
-0.379272	
-0.379883	
-0.378845	
-0.379395	
-0.378784	
-0.377686	
-0.379211	
-0.379883	
-0.379517	
-0.379272	
-0.379333	
-0.379272	
-0.379822	
-0.380066	
-0.38031	
-0.37915	
-0.379761	
-0.379639	
-0.376831	
-0.376465	
-0.376648	
-0.377197	
-0.377075	
-0.377319	
-0.377502	
-0.377319	
-0.378601	
-0.378479	
-0.377014	
-0.378113	
-0.376587	
-0.376404	
-0.37793	
-0.377991	
-0.377808	
-0.376465	
-0.377258	
-0.377747	
-0.378113	
-0.378662	
-0.37915	
-0.377258	
-0.377808	
-0.376831	
-0.377136	
-0.37854	
-0.379028	
-0.379211	
-0.379761	
-0.379517	
-0.380676	
-0.380493	
-0.381165	
-0.381226	
-0.381287	
-0.381104	
-0.381714	
-0.381409	
-0.382629	
-0.383789	
-0.38324	
-0.38324	
-0.384094	
-0.382996	
-0.385315	
-0.385071	
-0.383301	
-0.385498	
-0.386169	
-0.385559	
-0.386597	
-0.385986	
-0.386841	
-0.386169	
-0.385742	
-0.386353	
-0.386414	
-0.387146	
-0.386414	
-0.38678	
-0.385681	
-0.384399	
-0.384949	
-0.385071	
-0.384888	
-0.384644	
-0.385132	
-0.384583	
-0.384277	
-0.386108	
-0.385071	
-0.382813	
-0.383545	
-0.382507	
-0.382996	
-0.383484	
-0.383057	
-0.384521	
-0.383911	
-0.383484	
-0.382874	
-0.382751	
-0.385071	
-0.384705	
-0.385132	
-0.385254	
-0.385925	
-0.386902	
-0.386536	
-0.388245	
-0.388367	
-0.388184	
-0.389099	
-0.389282	
-0.389343	
-0.389954	
-0.388916	
-0.390564	
-0.389099	
-0.389282	
-0.390564	
-0.391052	
-0.390869	
-0.391418	
-0.390808	
-0.391418	
-0.389771	
-0.391602	
-0.389954	
-0.390137	
-0.38916	
-0.386963	
-0.38916	
-0.389221	
-0.389709	
-0.388306	
-0.388123	
-0.388428	
-0.388245	
-0.388245	
-0.389343	
-0.388733	
-0.388123	
-0.388123	
-0.387329	
-0.388245	
-0.388672	
-0.388672	
-0.388428	
-0.389221	
-0.388672	
-0.388367	
-0.388184	
-0.388306	
-0.387329	
-0.386536	
-0.385376	
-0.385254	
-0.385742	
-0.385803	
-0.385254	
-0.384888	
-0.386414	
-0.385742	
-0.384888	
-0.384155	
-0.383972	
-0.383362	
-0.38324	
-0.383179	
-0.383667	
-0.383118	
-0.38324	
-0.383545	
-0.384583	
-0.385681	
-0.385193	
-0.384705	
-0.386169	
-0.38446	
-0.384949	
-0.385864	
-0.38562	
-0.386047	
-0.387085	
-0.387268	
-0.387024	
-0.38739	
-0.387634	
-0.388062	
-0.388062	
-0.388733	
-0.388855	
-0.387024	
-0.388062	
-0.386902	
-0.387939	
-0.388611	
-0.38916	
-0.388855	
-0.389099	
-0.389038	
-0.39032	
-0.389771	
-0.390259	
-0.391541	
-0.391296	
-0.390076	
-0.391479	
-0.389587	
-0.390564	
-0.39032	
-0.39093	
-0.390869	
-0.391235	
-0.391602	
-0.392395	
-0.391541	
-0.391907	
-0.390747	
-0.390686	
-0.391541	
-0.391418	
-0.391357	
-0.391724	
-0.391541	
-0.392334	
-0.392456	
-0.392273	
-0.3927	
-0.390625	
-0.390625	
-0.391724	
-0.390442	
-0.391663	
-0.392395	
-0.392273	
-0.392822	
-0.393188	
-0.39386	
-0.393555	
-0.3927	
-0.393982	
-0.391724	
-0.391113	
-0.392151	
-0.392578	
-0.392395	
-0.392517	
-0.392578	
-0.392151	
-0.393066	
-0.393433	
-0.393066	
-0.392883	
-0.392456	
-0.391418	
-0.391907	
-0.391541	
-0.392151	
-0.391174	
-0.391785	
-0.391785	
-0.390747	
-0.389526	
-0.390076	
-0.389771	
-0.389954	
-0.390564	
-0.389221	
-0.39032	
-0.390076	
-0.390198	
-0.390442	
-0.390869	
-0.390747	
-0.390869	
-0.391113	
-0.391663	
-0.391907	
-0.390869	
-0.390869	
-0.390442	
-0.390381	
-0.389771	
-0.391541	
-0.391174	
-0.391296	
-0.390869	
-0.391541	
-0.391357	
-0.391052	
-0.390869	
-0.391113	
-0.390076	
-0.389771	
-0.389282	
-0.388977	
-0.389221	
-0.389587	
-0.389648	
-0.389343	
-0.388916	
-0.388489	
-0.388794	
-0.390015	
-0.389282	
-0.387634	
-0.387817	
-0.387756	
-0.386353	
-0.388611	
-0.388611	
-0.389282	
-0.388489	
-0.389099	
-0.389465	
-0.389343	
-0.389832	
-0.390381	
-0.38855	
-0.389282	
-0.387695	
-0.386841	
-0.38916	
-0.388977	
-0.389465	
-0.389893	
-0.389648	
-0.390198	
-0.390381	
-0.390808	
-0.391724	
-0.390564	
-0.390503	
-0.388977	
-0.390198	
-0.390625	
-0.39032	
-0.390991	
-0.390625	
-0.39093	
-0.391846	
-0.391785	
-0.392395	
-0.392212	
-0.391846	
-0.391785	
-0.39093	
-0.3927	
-0.392456	
-0.392029	
-0.393799	
-0.394775	
-0.395874	
-0.396729	
-0.396179	
-0.396179	
-0.395874	
-0.394897	
-0.395752	
-0.393494	
-0.395996	
-0.395325	
-0.393921	
-0.395142	
-0.395996	
-0.395874	
-0.395691	
-0.395264	
-0.397034	
-0.395813	
-0.395081	
-0.395935	
-0.393982	
-0.394653	
-0.394897	
-0.39386	
-0.394409	
-0.393799	
-0.394348	
-0.394165	
-0.394165	
-0.394287	
-0.394043	
-0.392334	
-0.393005	
-0.390808	
-0.391357	
-0.391235	
-0.390869	
-0.391663	
-0.391541	
-0.390869	
-0.391785	
-0.391174	
-0.392395	
-0.391296	
-0.390015	
-0.390259	
-0.387207	
-0.387634	
-0.388367	
-0.388123	
-0.388977	
-0.389221	
-0.389465	
-0.390076	
-0.390381	
-0.391602	
-0.390137	
-0.389709	
-0.391479	
-0.389038	
-0.389893	
-0.390808	
-0.390137	
-0.391235	
-0.390686	
-0.391968	
-0.391846	
-0.391968	
-0.393005	
-0.392395	
-0.391785	
-0.392761	
-0.390564	
-0.392578	
-0.393311	
-0.39209	
-0.393311	
-0.393677	
-0.393005	
-0.393982	
-0.393555	
-0.395203	
-0.392395	
-0.392334	
-0.392578	
-0.390259	
-0.390686	
-0.390503	
-0.389709	
-0.389954	
-0.389221	
-0.389526	
-0.389465	
-0.389221	
-0.389587	
-0.388123	
-0.387207	
-0.387695	
-0.386414	
-0.386536	
-0.386353	
-0.387024	
-0.386963	
-0.387024	
-0.387207	
-0.387268	
-0.388611	
-0.389465	
-0.387878	
-0.388428	
-0.387878	
-0.387146	
-0.388123	
-0.387268	
-0.387878	
-0.38855	
-0.389648	
-0.390503	
-0.391174	
-0.390564	
-0.39093	
-0.389954	
-0.389526	
-0.390076	
-0.388794	
-0.389954	
-0.388489	
-0.389587	
-0.389832	
-0.389954	
-0.390564	
-0.391296	
-0.391663	
-0.392029	
-0.392151	
-0.392334	
-0.393433	
-0.392517	
-0.393738	
-0.393494	
-0.393311	
-0.394409	
-0.394897	
-0.394287	
-0.395386	
-0.395813	
-0.396362	
-0.395264	
-0.395203	
-0.395813	
-0.395447	
-0.395264	
-0.395264	
-0.395081	
-0.395386	
-0.394958	
-0.394226	
-0.394836	
-0.394165	
-0.394348	
-0.393616	
-0.392578	
-0.39325	
-0.391907	
-0.392395	
-0.392334	
-0.392395	
-0.391968	
-0.392273	
-0.391663	
-0.392273	
-0.39209	
-0.391602	
-0.391418	
-0.390808	
-0.391724	
-0.390442	
-0.390869	
-0.390747	
-0.389832	
-0.390564	
-0.390564	
-0.390137	
-0.389954	
-0.389221	
-0.388794	
-0.388855	
-0.389343	
-0.389893	
-0.388855	
-0.389038	
-0.38916	
-0.388794	
-0.389404	
-0.389526	
-0.388977	
-0.389282	
-0.388611	
-0.390076	
-0.389587	
-0.389282	
-0.389709	
-0.388489	
-0.389404	
-0.388794	
-0.388367	
-0.389587	
-0.389587	
-0.388733	
-0.389282	
-0.389221	
-0.389343	
-0.389221	
-0.388611	
-0.389465	
-0.387939	
-0.387817	
-0.387878	
-0.386353	
-0.387573	
-0.387146	
-0.387756	
-0.387756	
-0.388306	
-0.388062	
-0.388306	
-0.387756	
-0.388916	
-0.387512	
-0.388245	
-0.387817	
-0.386963	
-0.387878	
-0.388123	
-0.387634	
-0.388489	
-0.388245	
-0.388855	
-0.388794	
-0.388611	
-0.39032	
-0.389587	
-0.389404	
-0.389526	
-0.38916	
-0.391846	
-0.391174	
-0.391296	
-0.391479	
-0.39093	
-0.391113	
-0.390381	
-0.390137	
-0.391174	
-0.389526	
-0.390137	
-0.389709	
-0.389038	
-0.390259	
-0.389893	
-0.390076	
-0.390503	
-0.390198	
-0.390869	
-0.390442	
-0.390259	
-0.390747	
-0.389893	
-0.390503	
-0.390198	
-0.390076	
-0.390808	
-0.391541	
-0.391357	
-0.391235	
-0.391418	
-0.39209	
-0.391479	
-0.391174	
-0.391968	
-0.391418	
-0.391907	
-0.392151	
-0.391907	
-0.39325	
-0.3927	
-0.3927	
-0.3927	
-0.393188	
-0.393127	
-0.393066	
-0.392456	
-0.392578	
-0.391357	
-0.391968	
-0.391418	
-0.390991	
-0.390381	
-0.391541	
-0.391724	
-0.391541	
-0.392944	
-0.393188	
-0.392151	
-0.391418	
-0.390808	
-0.391174	
-0.391174	
-0.391968	
-0.390747	
-0.389648	
-0.390991	
-0.39093	
-0.390259	
-0.391968	
-0.391296	
-0.390991	
-0.389832	
-0.389282	
-0.389343	
-0.389954	
-0.389771	
-0.389648	
-0.388916	
-0.389587	
-0.38855	
-0.389404	
-0.390198	
-0.390259	
-0.389832	
-0.388611	
-0.386719	
-0.385559	
-0.385681	
-0.386414	
-0.38501	
-0.385193	
-0.386658	
-0.386658	
-0.386475	
-0.38678	
-0.387939	
-0.386841	
-0.385986	
-0.38623	
-0.386292	
-0.38562	
-0.385376	
-0.385864	
-0.38501	
-0.385864	
-0.385498	
-0.385864	
-0.386475	
-0.386902	
-0.386047	
-0.385864	
-0.385925	
-0.386963	
-0.386658	
-0.386719	
-0.387329	
-0.386292	
-0.387878	
-0.388184	
-0.388672	
-0.389038	
-0.390015	
-0.388733	
-0.389099	
-0.389221	
-0.390259	
-0.389832	
-0.389465	
-0.389709	
-0.389099	
-0.390381	
-0.39032	
-0.390625	
-0.390808	
-0.393494	
-0.392822	
-0.392395	
-0.391846	
-0.391296	
-0.391541	
-0.391174	
-0.39209	
-0.390991	
-0.391357	
-0.390869	
-0.391479	
-0.391602	
-0.391785	
-0.390869	
-0.390747	
-0.39032	
-0.38855	
-0.390259	
-0.389587	
-0.389648	
-0.389587	
-0.389526	
-0.388794	
-0.388672	
-0.388977	
-0.390015	
-0.388367	
-0.387207	
-0.387512	
-0.387085	
-0.388428	
-0.387756	
-0.387939	
-0.387512	
-0.387878	
-0.388977	
-0.389587	
-0.390015	
-0.391846	
-0.390625	
-0.391541	
-0.391418	
-0.391052	
-0.393372	
-0.39209	
-0.392761	
-0.393127	
-0.392334	
-0.393372	
-0.393738	
-0.39386	
-0.39502	
-0.394409	
-0.39447	
-0.393921	
-0.393188	
-0.395264	
-0.393738	
-0.393738	
-0.392395	
-0.392151	
-0.393494	
-0.393188	
-0.393188	
-0.393616	
-0.392883	
-0.392212	
-0.391479	
-0.389832	
-0.391357	
-0.390747	
-0.390808	
-0.390808	
-0.389771	
-0.39093	
-0.391418	
-0.392212	
-0.392639	
-0.391968	
-0.391113	
-0.391113	
-0.39032	
-0.391357	
-0.390503	
-0.390076	
-0.389709	
-0.38855	
-0.388977	
-0.388062	
-0.388306	
-0.38916	
-0.388184	
-0.387573	
-0.387878	
-0.386047	
-0.387695	
-0.387329	
-0.386414	
-0.385986	
-0.385315	
-0.386047	
-0.385315	
-0.38562	
-0.386902	
-0.38623	
-0.385132	
-0.385986	
-0.385498	
-0.386414	
-0.387146	
-0.386963	
-0.387512	
-0.386902	
-0.387085	
-0.387756	
-0.388367	
-0.389893	
-0.388428	
-0.388916	
-0.388245	
-0.387085	
-0.389282	
-0.389526	
-0.388306	
-0.388794	
-0.388611	
-0.388428	
-0.389221	
-0.389648	
-0.39093	
-0.389893	
-0.390625	
-0.390137	
-0.388733	
-0.390625	
-0.390137	
-0.391113	
-0.391663	
-0.391724	
-0.391418	
-0.391174	
-0.391846	
-0.3927	
-0.391235	
-0.392639	
-0.391479	
-0.390747	
-0.392212	
-0.391907	
-0.392151	
-0.392334	
-0.391724	
-0.391663	
-0.392151	
-0.392273	
-0.393372	
-0.392639	
-0.392761	
-0.391602	
-0.390869	
-0.391846	
-0.391174	
-0.392029	
-0.391785	
-0.392273	
-0.392273	
-0.392273	
-0.393066	
-0.394226	
-0.393188	
-0.393188	
-0.3927	
-0.392517	
-0.393677	
-0.393372	
-0.394104	
-0.393066	
-0.392395	
-0.391418	
-0.391602	
-0.392639	
-0.393127	
-0.392578	
-0.392578	
-0.392517	
-0.392029	
-0.392029	
-0.3927	
-0.393188	
-0.392273	
-0.392273	
-0.391174	
-0.390808	
-0.391418	
-0.391541	
-0.39032	
-0.389404	
-0.389282	
-0.38916	
-0.389709	
-0.390259	
-0.390869	
-0.390259	
-0.390259	
-0.390137	
-0.390076	
-0.390686	
-0.390991	
-0.39093	
-0.390442	
-0.390808	
-0.390198	
-0.390503	
-0.391052	
-0.391541	
-0.39093	
-0.39032	
-0.391296	
-0.390869	
-0.390869	
-0.391479	
-0.391357	
-0.390503	
-0.390503	
-0.389465	
-0.389587	
-0.389771	
-0.389954	
-0.38916	
-0.388611	
-0.389343	
-0.388733	
-0.388489	
-0.389526	
-0.388916	
-0.38739	
-0.38739	
-0.386902	
-0.387024	
-0.387085	
-0.388367	
-0.388672	
-0.388123	
-0.38739	
-0.386536	
-0.386902	
-0.388306	
-0.388428	
-0.388	
-0.388367	
-0.387756	
-0.388062	
-0.388062	
-0.388672	
-0.389343	
-0.388977	
-0.388306	
-0.387695	
-0.387573	
-0.38855	
-0.389587	
-0.388672	
-0.388794	
-0.388611	
-0.388306	
-0.389221	
-0.389893	
-0.389526	
-0.389954	
-0.389526	
-0.389465	
-0.389648	
-0.390991	
-0.391541	
-0.390747	
-0.391174	
-0.389709	
-0.389282	
-0.390259	
-0.390259	
-0.391174	
-0.391418	
-0.391846	
-0.391724	
-0.392822	
-0.394714	
-0.396118	
-0.394653	
-0.395142	
-0.393677	
-0.393372	
-0.394287	
-0.393433	
-0.395203	
-0.394592	
-0.393921	
-0.393982	
-0.393433	
-0.395264	
-0.395386	
-0.394409	
-0.394592	
-0.393677	
-0.393311	
-0.394165	
-0.393494	
-0.394897	
-0.39502	
-0.394287	
-0.393433	
-0.39209	
-0.393311	
-0.393921	
-0.392578	
-0.3927	
-0.391846	
-0.391357	
-0.391174	
-0.391235	
-0.392273	
-0.391724	
-0.391052	
-0.390686	
-0.389099	
-0.389099	
-0.39093	
-0.389954	
-0.39032	
-0.388611	
-0.38916	
-0.389648	
-0.387756	
-0.388	
-0.388245	
-0.387695	
-0.388367	
-0.387695	
-0.388489	
-0.389465	
-0.38855	
-0.388977	
-0.388306	
-0.388489	
-0.388855	
-0.388733	
-0.389954	
-0.390381	
-0.390137	
-0.389465	
-0.389038	
-0.390747	
-0.392517	
-0.390442	
-0.390137	
-0.390137	
-0.389709	
-0.390564	
-0.391174	
-0.391663	
-0.392273	
-0.392395	
-0.391907	
-0.391602	
-0.392273	
-0.393677	
-0.391602	
-0.392029	
-0.391724	
-0.389343	
-0.390991	
-0.390198	
-0.389954	
-0.389526	
-0.389893	
-0.387817	
-0.387939	
-0.388428	
-0.388489	
-0.387512	
-0.387756	
-0.387573	
-0.384033	
-0.386169	
-0.385864	
-0.38562	
-0.385864	
-0.38623	
-0.385559	
-0.385193	
-0.385925	
-0.387573	
-0.385986	
-0.386108	
-0.387146	
-0.38501	
-0.38678	
-0.386902	
-0.385803	
-0.387695	
-0.387207	
-0.387329	
-0.386963	
-0.388306	
-0.390869	
-0.389221	
-0.388977	
-0.389526	
-0.387024	
-0.389038	
-0.388611	
-0.387451	
-0.388855	
-0.388855	
-0.388733	
-0.388245	
-0.388672	
-0.390015	
-0.388489	
-0.390137	
-0.391296	
-0.389404	
-0.391724	
-0.391846	
-0.391235	
-0.393433	
-0.392517	
-0.393127	
-0.392395	
-0.391602	
-0.394287	
-0.392822	
-0.394348	
-0.394775	
-0.393372	
-0.393982	
-0.393616	
-0.393555	
-0.395447	
-0.393677	
-0.394531	
-0.393982	
-0.392578	
-0.39325	
-0.391785	
-0.392822	
-0.392822	
-0.390808	
-0.391174	
-0.390991	
-0.391052	
-0.391541	
-0.391296	
-0.391235	
-0.390503	
-0.390625	
-0.391052	
-0.389465	
-0.390381	
-0.390747	
-0.389709	
-0.389709	
-0.389771	
-0.389221	
-0.389832	
-0.389771	
-0.389954	
-0.389038	
-0.389099	
-0.389343	
-0.388062	
-0.387085	
-0.387146	
-0.388062	
-0.388489	
-0.387878	
-0.387695	
-0.388367	
-0.388611	
-0.388062	
-0.387817	
-0.387695	
-0.387878	
-0.387939	
-0.386902	
-0.387878	
-0.388184	
-0.387756	
-0.387878	
-0.387817	
-0.386963	
-0.388489	
-0.38739	
-0.388062	
-0.388123	
-0.388306	
-0.389343	
-0.387756	
-0.387939	
-0.387817	
-0.385071	
-0.386597	
-0.386841	
-0.385681	
-0.386902	
-0.386414	
-0.387268	
-0.38623	
-0.385315	
-0.387451	
-0.384888	
-0.385559	
-0.386658	
-0.384277	
-0.386292	
-0.386047	
-0.385376	
-0.387695	
-0.386963	
-0.387268	
-0.386353	
-0.385437	
-0.387939	
-0.385742	
-0.386719	
-0.387207	
-0.385925	
-0.387573	
-0.387817	
-0.387268	
-0.388794	
-0.389709	
-0.390259	
-0.389771	
-0.388855	
-0.390198	
-0.388184	
-0.389343	
-0.388916	
-0.386963	
-0.388367	
-0.388428	
-0.388672	
-0.388794	
-0.388916	
-0.388794	
-0.388306	
-0.388123	
-0.389526	
-0.387817	
-0.388428	
-0.388672	
-0.387512	
-0.388916	
-0.388306	
-0.388062	
-0.389343	
-0.388977	
-0.38916	
-0.389404	
-0.389221	
-0.39032	
-0.389709	
-0.389832	
-0.390381	
-0.389587	
-0.390076	
-0.390137	
-0.390259	
-0.391724	
-0.391418	
-0.391602	
-0.391479	
-0.390808	
-0.391846	
-0.391663	
-0.390015	
-0.390808	
-0.390686	
-0.390259	
-0.390442	
-0.390259	
-0.390198	
-0.390442	
-0.390198	
-0.390747	
-0.390503	
-0.390381	
-0.390381	
-0.388184	
-0.390076	
-0.389587	
-0.390076	
-0.390015	
-0.389343	
-0.390015	
-0.390198	
-0.389954	
-0.389832	
-0.389221	
-0.389526	
-0.390198	
-0.387817	
-0.388916	
-0.38916	
-0.387878	
-0.388489	
-0.388062	
-0.387146	
-0.388977	
-0.387817	
-0.38855	
-0.388245	
-0.387207	
-0.389526	
-0.387207	
-0.387573	
-0.387695	
-0.38385	
-0.383972	
-0.384583	
-0.383179	
-0.385132	
-0.384766	
-0.385193	
-0.385071	
-0.383728	
-0.385925	
-0.384338	
-0.38446	
-0.384644	
-0.382507	
-0.383789	
-0.38385	
-0.383911	
-0.38446	
-0.383911	
-0.384033	
-0.384155	
-0.383362	
-0.384277	
-0.383728	
-0.383667	
-0.384399	
-0.38385	
-0.384521	
-0.385132	
-0.384766	
-0.385681	
-0.38562	
-0.386047	
-0.386597	
-0.386047	
-0.387451	
-0.386902	
-0.386292	
-0.387573	
-0.386902	
-0.387329	
-0.387695	
-0.388184	
-0.38855	
-0.38855	
-0.38855	
-0.389465	
-0.388367	
-0.389709	
-0.390259	
-0.389832	
-0.390442	
-0.390686	
-0.389648	
-0.389648	
-0.389954	
-0.389282	
-0.389771	
-0.38916	
-0.390564	
-0.389526	
-0.38916	
-0.388916	
-0.38855	
-0.388489	
-0.387939	
-0.388	
-0.387573	
-0.387146	
-0.386841	
-0.388672	
-0.387939	
-0.387695	
-0.386658	
-0.385315	
-0.387024	
-0.385315	
-0.386108	
-0.386169	
-0.385376	
-0.385742	
-0.385498	
-0.385315	
-0.386414	
-0.386597	
-0.38739	
-0.386902	
-0.387817	
-0.389343	
-0.38916	
-0.389038	
-0.389282	
-0.389038	
-0.389404	
-0.39032	
-0.390015	
	
