C:\DOCUMENTS AND SETTINGS\JASON\DESKTOP\UFRJ\UFRJ EPHYS\RSCI-BM 12 WK SERIES\070806-RSCI-BM-16\RSCI-BM-16-LEMG\070806-RSCI-BM-16-LEMG-0016.ACQ
0.025000 msec/sample
1 channel
Analog input
Volts
CH1	
2000	
-0.380493	
-0.381165	
-0.380981	
-0.381348	
-0.381714	
-0.382507	
-0.381714	
-0.383606	
-0.381775	
-0.38269	
-0.38092	
-0.382385	
-0.381348	
-0.382324	
-0.382751	
-0.382935	
-0.382324	
-0.384033	
-0.381958	
-0.383362	
-0.381104	
-0.382935	
-0.381958	
-0.383179	
-0.383118	
-0.383728	
-0.383118	
-0.38446	
-0.383118	
-0.384766	
-0.381653	
-0.384216	
-0.383118	
-0.384827	
-0.384888	
-0.385254	
-0.384583	
-0.386169	
-0.384766	
-0.385559	
-0.382751	
-0.385193	
-0.384705	
-0.385742	
-0.385193	
-0.386292	
-0.384827	
-0.386414	
-0.383606	
-0.38446	
-0.382019	
-0.383728	
-0.383789	
-0.384399	
-0.383301	
-0.384277	
-0.382935	
-0.384766	
-0.381958	
-0.383301	
-0.381714	
-0.382751	
-0.38269	
-0.383179	
-0.383667	
-0.383911	
-0.382874	
-0.384583	
-0.38208	
-0.383118	
-0.381042	
-0.383057	
-0.382935	
-0.382996	
-0.383484	
-0.384094	
-0.383057	
-0.384521	
-0.382629	
-0.383423	
-0.381287	
-0.383057	
-0.382751	
-0.383484	
-0.384216	
-0.383972	
-0.383667	
-0.38501	
-0.383728	
-0.384155	
-0.382324	
-0.383972	
-0.384155	
-0.385193	
-0.385498	
-0.385559	
-0.385437	
-0.386597	
-0.385376	
-0.385376	
-0.384033	
-0.38623	
-0.386047	
-0.385925	
-0.386292	
-0.386414	
-0.385498	
-0.38623	
-0.385254	
-0.385071	
-0.384521	
-0.385315	
-0.385132	
-0.384583	
-0.385376	
-0.384827	
-0.38446	
-0.385803	
-0.384277	
-0.384583	
-0.383972	
-0.384583	
-0.384705	
-0.384277	
-0.385559	
-0.384949	
-0.38446	
-0.385437	
-0.384338	
-0.384338	
-0.38385	
-0.384338	
-0.384033	
-0.383423	
-0.385925	
-0.384766	
-0.384521	
-0.384583	
-0.384277	
-0.384521	
-0.384155	
-0.384644	
-0.384094	
-0.383118	
-0.38501	
-0.384338	
-0.384399	
-0.384216	
-0.384399	
-0.384705	
-0.384583	
-0.384521	
-0.384705	
-0.383972	
-0.385559	
-0.385071	
-0.384949	
-0.384521	
-0.385437	
-0.385132	
-0.385071	
-0.385071	
-0.385132	
-0.384827	
-0.386414	
-0.385986	
-0.38562	
-0.385803	
-0.385498	
-0.385376	
-0.384705	
-0.385254	
-0.386169	
-0.386047	
-0.38678	
-0.386475	
-0.386353	
-0.386719	
-0.386292	
-0.386536	
-0.386292	
-0.386963	
-0.387329	
-0.386902	
-0.388	
-0.386963	
-0.386719	
-0.387573	
-0.385986	
-0.386597	
-0.385925	
-0.386475	
-0.386169	
-0.385681	
-0.386169	
-0.385925	
-0.386597	
-0.370667	
-0.367126	
-0.36908	
-0.368225	
-0.369324	
-0.36908	
-0.388733	
-0.389404	
-0.387817	
-0.387695	
-0.388062	
-0.387329	
-0.387451	
-0.387268	
-0.387878	
-0.387756	
-0.387817	
-0.388062	
-0.388306	
-0.388306	
-0.388977	
-0.387756	
-0.387756	
-0.387268	
-0.387329	
-0.387451	
-0.387207	
-0.38739	
-0.387695	
-0.387085	
-0.387695	
-0.386719	
-0.386597	
-0.385925	
-0.386658	
-0.386597	
-0.386536	
-0.38678	
-0.386719	
-0.387268	
-0.387878	
-0.386047	
-0.385681	
-0.385376	
-0.386169	
-0.385986	
-0.385864	
-0.386169	
-0.386353	
-0.387634	
-0.388733	
-0.388794	
-0.389343	
-0.391418	
-0.39502	
-0.398254	
-0.400635	
-0.404785	
-0.409302	
-0.413757	
-0.417969	
-0.421448	
-0.426331	
-0.431946	
-0.439026	
-0.444946	
-0.450623	
-0.458374	
-0.463623	
-0.468567	
-0.472229	
-0.475769	
-0.478333	
-0.480225	
-0.481995	
-0.483704	
-0.48584	
-0.487488	
-0.488098	
-0.488464	
-0.488281	
-0.488037	
-0.487427	
-0.487061	
-0.486084	
-0.48584	
-0.484802	
-0.484192	
-0.483337	
-0.481995	
-0.481323	
-0.481445	
-0.481628	
-0.482361	
-0.48291	
-0.483704	
-0.484924	
-0.486694	
-0.487793	
-0.488647	
-0.48938	
-0.490723	
-0.493408	
-0.495789	
-0.496704	
-0.497375	
-0.497437	
-0.498169	
-0.497742	
-0.497314	
-0.495178	
-0.494385	
-0.49469	
-0.494446	
-0.494385	
-0.49353	
-0.493713	
-0.494446	
-0.494751	
-0.495178	
-0.493347	
-0.493225	
-0.49292	
-0.493835	
-0.493042	
-0.492493	
-0.492493	
-0.492554	
-0.492126	
-0.491089	
-0.488098	
-0.486694	
-0.483643	
-0.481812	
-0.47821	
-0.474915	
-0.471497	
-0.468201	
-0.462585	
-0.458679	
-0.450928	
-0.44574	
-0.43866	
-0.432617	
-0.425476	
-0.41803	
-0.409851	
-0.401184	
-0.391235	
-0.380981	
-0.368652	
-0.357788	
-0.347107	
-0.334656	
-0.324158	
-0.312622	
-0.300354	
-0.290588	
-0.280029	
-0.270569	
-0.261963	
-0.252808	
-0.247559	
-0.242554	
-0.239197	
-0.23645	
-0.234131	
-0.234192	
-0.234802	
-0.234924	
-0.235229	
-0.237305	
-0.23938	
-0.242249	
-0.245483	
-0.248352	
-0.252441	
-0.25708	
-0.260132	
-0.266296	
-0.269287	
-0.274292	
-0.279724	
-0.284485	
-0.289185	
-0.292786	
-0.297974	
-0.302368	
-0.305542	
-0.308716	
-0.310974	
-0.315369	
-0.317932	
-0.321167	
-0.323303	
-0.326233	
-0.329834	
-0.331299	
-0.334473	
-0.33551	
-0.328369	
-0.320801	
-0.323792	
-0.32605	
-0.326843	
-0.329468	
-0.346985	
-0.350769	
-0.350403	
-0.349243	
-0.35083	
-0.350952	
-0.352173	
-0.352173	
-0.353088	
-0.354126	
-0.354309	
-0.355469	
-0.354309	
-0.355347	
-0.355042	
-0.35553	
-0.356079	
-0.355713	
-0.356384	
-0.357422	
-0.357178	
-0.357422	
-0.356384	
-0.356995	
-0.357666	
-0.357422	
-0.356934	
-0.35675	
-0.358276	
-0.358826	
-0.358215	
-0.358521	
-0.357666	
-0.358521	
-0.357788	
-0.358398	
-0.358337	
-0.359009	
-0.35968	
-0.35907	
-0.360046	
-0.358398	
-0.360229	
-0.360535	
-0.362549	
-0.364746	
-0.367004	
-0.370667	
-0.373779	
-0.377136	
-0.381714	
-0.38562	
-0.389709	
-0.393982	
-0.39856	
-0.403931	
-0.408325	
-0.415283	
-0.421936	
-0.428528	
-0.434265	
-0.439758	
-0.445129	
-0.44989	
-0.453125	
-0.455017	
-0.457336	
-0.458069	
-0.458801	
-0.459778	
-0.459534	
-0.459351	
-0.458618	
-0.458801	
-0.458069	
-0.45697	
-0.455933	
-0.455017	
-0.453735	
-0.453491	
-0.451843	
-0.452148	
-0.452637	
-0.453369	
-0.453308	
-0.454407	
-0.4552	
-0.457153	
-0.457275	
-0.45929	
-0.460388	
-0.462219	
-0.464294	
-0.464905	
-0.465271	
-0.465454	
-0.466431	
-0.466248	
-0.466125	
-0.466064	
-0.466187	
-0.464661	
-0.466553	
-0.466064	
-0.465759	
-0.467102	
-0.467773	
-0.468079	
-0.467773	
-0.468079	
-0.468201	
-0.467407	
-0.467346	
-0.46582	
-0.465393	
-0.465027	
-0.46344	
-0.461365	
-0.460022	
-0.45636	
-0.453918	
-0.45166	
-0.448181	
-0.444275	
-0.440002	
-0.434875	
-0.429016	
-0.422119	
-0.414246	
-0.405457	
-0.397644	
-0.388855	
-0.379089	
-0.368347	
-0.356934	
-0.345398	
-0.333252	
-0.319763	
-0.30603	
-0.293152	
-0.282166	
-0.270935	
-0.260559	
-0.25116	
-0.242676	
-0.235474	
-0.229187	
-0.222656	
-0.217407	
-0.214172	
-0.21283	
-0.212097	
-0.212708	
-0.214661	
-0.216675	
-0.221313	
-0.22467	
-0.228821	
-0.234192	
-0.238953	
-0.244507	
-0.250061	
-0.256958	
-0.261902	
-0.266846	
-0.273071	
-0.277039	
-0.282166	
-0.285767	
-0.290344	
-0.294373	
-0.298523	
-0.302246	
-0.305054	
-0.309448	
-0.312256	
-0.314758	
-0.317688	
-0.32019	
-0.322998	
-0.325012	
-0.328613	
-0.331055	
-0.333435	
-0.336243	
-0.33783	
-0.340759	
-0.341492	
-0.342834	
-0.34436	
-0.345886	
-0.34668	
-0.347595	
-0.348999	
-0.349976	
-0.350037	
-0.350525	
-0.349792	
-0.351196	
-0.350891	
-0.352234	
-0.352722	
-0.352661	
-0.354309	
-0.35376	
-0.355042	
-0.353333	
-0.354187	
-0.354248	
-0.356201	
-0.356384	
-0.35614	
-0.355347	
-0.357239	
-0.357422	
-0.358521	
-0.3573	
-0.358032	
-0.357178	
-0.359131	
-0.358704	
-0.359253	
-0.359863	
-0.360107	
-0.359863	
-0.360168	
-0.359863	
-0.360596	
-0.360657	
-0.360107	
-0.360779	
-0.360474	
-0.361084	
-0.361572	
-0.36261	
-0.361328	
-0.360168	
-0.360596	
-0.36261	
-0.362427	
-0.361938	
-0.361328	
-0.362488	
-0.363281	
-0.362671	
-0.361938	
-0.361511	
-0.361938	
-0.363037	
-0.362915	
-0.362732	
-0.363342	
-0.363892	
-0.364075	
-0.363464	
-0.361572	
-0.362671	
-0.362671	
-0.364258	
-0.364014	
-0.363037	
-0.364075	
-0.364746	
-0.364075	
-0.364014	
-0.363647	
-0.364624	
-0.364868	
-0.365295	
-0.364929	
-0.365601	
-0.366211	
-0.36676	
-0.366333	
-0.36615	
-0.366272	
-0.367004	
-0.367249	
-0.366821	
-0.367126	
-0.367859	
-0.369507	
-0.368591	
-0.368469	
-0.367615	
-0.36908	
-0.367615	
-0.368591	
-0.367737	
-0.369629	
-0.370117	
-0.371155	
-0.370361	
-0.3703	
-0.370483	
-0.370972	
-0.371582	
-0.371643	
-0.372437	
-0.373169	
-0.374451	
-0.373169	
-0.373169	
-0.371277	
-0.374207	
-0.372681	
-0.374023	
-0.37262	
-0.374268	
-0.374268	
-0.373901	
-0.373901	
-0.373596	
-0.373779	
-0.373169	
-0.373535	
-0.373474	
-0.37384	
-0.373779	
-0.374146	
-0.374146	
-0.373718	
-0.372437	
-0.372925	
-0.373108	
-0.373169	
-0.37323	
-0.37384	
-0.373962	
-0.374634	
-0.374207	
-0.373596	
-0.372986	
-0.374512	
-0.373779	
-0.373962	
-0.373596	
-0.374756	
-0.374512	
-0.375854	
-0.374695	
-0.375549	
-0.373718	
-0.375549	
-0.373901	
-0.374939	
-0.37439	
-0.375488	
-0.375854	
-0.37677	
-0.375916	
-0.376709	
-0.375244	
-0.377136	
-0.376526	
-0.377075	
-0.375977	
-0.377136	
-0.378174	
-0.378662	
-0.378418	
-0.378479	
-0.378296	
-0.379639	
-0.379028	
-0.378723	
-0.378357	
-0.379089	
-0.380188	
-0.379883	
-0.379028	
-0.378235	
-0.37854	
-0.380188	
-0.378601	
-0.378967	
-0.378357	
-0.378662	
-0.380005	
-0.379517	
-0.379028	
-0.377502	
-0.378601	
-0.378601	
-0.378662	
-0.378357	
-0.378906	
-0.379089	
-0.379761	
-0.378845	
-0.379456	
-0.378418	
-0.379639	
-0.378052	
-0.379333	
-0.37854	
-0.379395	
-0.380493	
-0.379456	
-0.379211	
-0.378967	
-0.379028	
-0.380005	
-0.378967	
-0.379456	
-0.378662	
-0.379883	
-0.380493	
-0.380066	
-0.379822	
-0.378723	
-0.380005	
-0.380249	
-0.379761	
-0.380188	
-0.380127	
-0.380859	
-0.380676	
-0.380737	
-0.380798	
-0.380188	
-0.380981	
-0.380737	
-0.381042	
-0.380737	
-0.38147	
-0.382935	
-0.382019	
-0.382446	
-0.381409	
-0.381531	
-0.381897	
-0.381531	
-0.381836	
-0.381531	
-0.382568	
-0.383301	
-0.383484	
-0.382935	
-0.381958	
-0.381836	
-0.383789	
-0.383423	
-0.383301	
-0.382507	
-0.384155	
-0.384644	
-0.384155	
-0.384155	
-0.382996	
-0.383362	
-0.38385	
-0.383667	
-0.383301	
-0.383118	
-0.383728	
-0.383667	
-0.382996	
-0.382935	
-0.382996	
-0.38324	
-0.382874	
-0.383423	
-0.382629	
-0.383301	
-0.38446	
-0.383606	
-0.38385	
-0.383057	
-0.384216	
-0.384521	
-0.384399	
-0.384521	
-0.384705	
-0.384949	
-0.386353	
-0.385803	
-0.385254	
-0.384644	
-0.385498	
-0.385376	
-0.385803	
-0.385986	
-0.385437	
-0.385071	
-0.386108	
-0.385681	
-0.384521	
-0.383789	
-0.383362	
-0.384277	
-0.38446	
-0.384766	
-0.384155	
-0.383972	
-0.384644	
-0.384399	
-0.384399	
-0.383423	
-0.382446	
-0.383179	
-0.383484	
-0.384155	
-0.383667	
-0.383911	
-0.384399	
-0.384705	
-0.384583	
-0.382996	
-0.383118	
-0.383667	
-0.383362	
-0.383301	
-0.38269	
-0.383606	
-0.384155	
-0.38324	
-0.382568	
-0.381409	
-0.382019	
-0.382385	
-0.382202	
-0.382568	
-0.38208	
-0.383179	
-0.383423	
-0.382935	
-0.38208	
-0.382019	
-0.382874	
-0.384338	
-0.38385	
-0.383789	
-0.382813	
-0.384705	
-0.384888	
-0.384949	
-0.384644	
-0.384583	
-0.384399	
-0.386169	
-0.385254	
-0.38501	
-0.384766	
-0.385864	
-0.386536	
-0.386108	
-0.384705	
-0.384277	
-0.383667	
-0.385193	
-0.385071	
-0.384827	
-0.385315	
-0.38501	
-0.386047	
-0.385437	
-0.384766	
-0.38385	
-0.384766	
-0.385193	
-0.385437	
-0.385498	
-0.386047	
-0.385864	
-0.386658	
-0.385986	
-0.385193	
-0.384338	
-0.385925	
-0.385681	
-0.385925	
-0.385376	
-0.386353	
-0.386108	
-0.387024	
-0.385437	
-0.385803	
-0.38501	
-0.386597	
-0.386108	
-0.385925	
-0.385803	
-0.386719	
-0.386597	
-0.387085	
-0.384827	
-0.385742	
-0.385254	
-0.386841	
-0.386169	
-0.385742	
-0.385315	
-0.386719	
-0.386536	
-0.387024	
-0.385132	
-0.385254	
-0.384827	
-0.386292	
-0.385315	
-0.385193	
-0.384827	
-0.386475	
-0.385925	
-0.386414	
-0.384644	
-0.384338	
-0.384399	
-0.385498	
-0.384827	
-0.385193	
-0.384705	
-0.386047	
-0.385681	
-0.385437	
-0.38385	
-0.384155	
-0.38385	
-0.385315	
-0.385071	
-0.385193	
-0.383423	
-0.385254	
-0.385071	
-0.384521	
-0.382996	
-0.382385	
-0.383789	
-0.38385	
-0.382874	
-0.382935	
-0.382263	
-0.382935	
-0.38385	
-0.382446	
-0.382202	
-0.380615	
-0.381958	
-0.382446	
-0.381897	
-0.381653	
-0.382263	
-0.382874	
-0.384033	
-0.383423	
-0.383057	
-0.382141	
-0.383179	
-0.383667	
-0.383545	
-0.38385	
-0.384399	
-0.384521	
-0.38562	
-0.383972	
-0.38446	
-0.384033	
-0.385193	
-0.384216	
-0.38385	
-0.384521	
-0.384277	
-0.384644	
-0.38501	
-0.38446	
-0.384155	
-0.383728	
-0.385315	
-0.384583	
-0.384277	
-0.383972	
-0.384644	
-0.385071	
-0.385376	
-0.384277	
-0.384521	
-0.383362	
-0.385254	
-0.384827	
-0.38446	
-0.383911	
-0.384644	
-0.38446	
-0.385986	
-0.38446	
-0.384094	
-0.382813	
-0.384338	
-0.383667	
-0.383667	
-0.381775	
-0.382629	
-0.382629	
-0.383606	
-0.382019	
-0.382141	
-0.38092	
-0.382935	
-0.382446	
-0.382385	
-0.381775	
-0.382385	
-0.383545	
-0.383728	
-0.38208	
-0.382263	
-0.381653	
-0.383545	
-0.383301	
-0.383484	
-0.383484	
-0.38324	
-0.384277	
-0.384216	
-0.383301	
-0.383057	
-0.383423	
-0.383911	
-0.383118	
-0.383118	
-0.383301	
-0.383545	
-0.384644	
-0.383545	
-0.383179	
-0.382751	
-0.384155	
-0.383667	
-0.383606	
-0.383179	
-0.383484	
-0.38385	
-0.384827	
-0.383423	
-0.383606	
-0.382019	
-0.384277	
-0.383789	
-0.384155	
-0.383789	
-0.384094	
-0.384216	
-0.385254	
-0.383728	
-0.382996	
-0.381897	
-0.384644	
-0.383057	
-0.383728	
-0.382446	
-0.383423	
-0.384033	
-0.384949	
-0.383118	
-0.382874	
-0.381287	
-0.384033	
-0.382935	
-0.382996	
-0.381714	
-0.38269	
-0.382568	
-0.384521	
-0.382935	
-0.382141	
-0.38031	
-0.382813	
-0.382202	
-0.382507	
-0.381592	
-0.382202	
-0.382263	
-0.384033	
-0.381714	
-0.380981	
-0.379456	
-0.381775	
-0.381714	
-0.381042	
-0.38092	
-0.381042	
-0.382202	
-0.383606	
-0.381409	
-0.380798	
-0.379517	
-0.382324	
-0.38208	
-0.381714	
-0.382263	
-0.382141	
-0.382813	
-0.384155	
-0.381714	
-0.381287	
-0.381165	
-0.382751	
-0.381775	
-0.381958	
-0.381958	
-0.381287	
-0.382385	
-0.382324	
-0.380798	
-0.379456	
-0.379761	
-0.380554	
-0.380127	
-0.379944	
-0.379822	
-0.380127	
-0.38092	
-0.380737	
-0.3797	
-0.378601	
-0.379517	
-0.380371	
-0.380005	
-0.380676	
-0.381226	
-0.381592	
-0.382202	
-0.382446	
-0.38147	
-0.380066	
-0.380798	
-0.381775	
-0.382446	
-0.381653	
-0.382202	
-0.381897	
-0.383362	
-0.383057	
-0.381714	
-0.381165	
-0.381348	
-0.382324	
-0.382629	
-0.381836	
-0.382507	
-0.382935	
-0.384644	
-0.38324	
-0.382263	
-0.381592	
-0.382446	
-0.382996	
-0.383179	
-0.382568	
-0.383606	
-0.383362	
-0.385803	
-0.385071	
-0.384155	
-0.38208	
-0.383911	
-0.384094	
-0.383423	
-0.38269	
-0.383606	
-0.384033	
-0.386047	
-0.384216	
-0.382996	
-0.380005	
-0.383362	
-0.382813	
-0.382385	
-0.381042	
-0.381775	
-0.382568	
-0.384338	
-0.38208	
-0.381409	
-0.37915	
-0.382629	
-0.381287	
-0.381592	
-0.380371	
-0.381592	
-0.382446	
-0.384338	
-0.38269	
-0.38147	
-0.3797	
-0.383118	
-0.38208	
-0.381897	
-0.381104	
-0.38208	
-0.381775	
-0.384216	
-0.382019	
-0.381226	
-0.379517	
-0.382141	
-0.381836	
-0.381226	
-0.380981	
-0.381409	
-0.381653	
-0.383606	
-0.381226	
-0.381104	
-0.380249	
-0.381348	
-0.381409	
-0.381287	
-0.381592	
-0.381226	
-0.381348	
-0.38324	
-0.381165	
-0.380981	
-0.380493	
-0.381897	
-0.381714	
-0.381165	
-0.381226	
-0.381226	
-0.381897	
-0.38324	
-0.381409	
-0.381531	
-0.381531	
-0.382141	
-0.381531	
-0.381287	
-0.381287	
-0.381775	
-0.382629	
-0.382874	
-0.381897	
-0.381592	
-0.381775	
-0.381775	
-0.382019	
-0.381958	
-0.382385	
-0.382751	
-0.383179	
-0.382935	
-0.38208	
-0.381958	
-0.382263	
-0.382324	
-0.382568	
-0.382996	
-0.382935	
-0.382874	
-0.383179	
-0.383118	
-0.382751	
-0.382446	
-0.382813	
-0.383362	
-0.38385	
-0.383911	
-0.383789	
-0.384216	
-0.384766	
-0.385254	
-0.384521	
-0.384583	
-0.385315	
-0.385071	
-0.385254	
-0.385193	
-0.385254	
-0.385071	
-0.386536	
-0.386292	
-0.385254	
-0.385254	
-0.385437	
-0.385254	
-0.384888	
-0.384155	
-0.384399	
-0.384216	
-0.386169	
-0.384583	
-0.383728	
-0.382751	
-0.383789	
-0.384216	
-0.383545	
-0.382996	
-0.383362	
-0.38324	
-0.38446	
-0.38324	
-0.383423	
-0.381775	
-0.383667	
-0.383484	
-0.38324	
-0.383118	
-0.383362	
-0.38324	
-0.384521	
-0.382813	
-0.38324	
-0.381104	
-0.383484	
-0.382935	
-0.383545	
-0.383179	
-0.383301	
-0.383606	
-0.385132	
-0.383667	
-0.383179	
-0.381348	
-0.383484	
-0.383606	
-0.383911	
-0.383362	
-0.384094	
-0.384583	
-0.386658	
-0.385254	
-0.384155	
-0.382813	
-0.385376	
-0.38562	
-0.385559	
-0.384827	
-0.385986	
-0.386169	
-0.387634	
-0.386353	
-0.385498	
-0.384155	
-0.386169	
-0.386047	
-0.385315	
-0.385071	
-0.385742	
-0.385742	
-0.38739	
-0.386169	
-0.384949	
-0.383606	
-0.38501	
-0.385315	
-0.384583	
-0.384277	
-0.384583	
-0.385315	
-0.386841	
-0.385376	
-0.384521	
-0.382996	
-0.385193	
-0.385254	
-0.385071	
-0.383789	
-0.38501	
-0.385132	
-0.386108	
-0.385742	
-0.384705	
-0.383179	
-0.384033	
-0.384766	
-0.38501	
-0.38385	
-0.38501	
-0.385437	
-0.38623	
-0.385376	
-0.384216	
-0.382996	
-0.384399	
-0.384583	
-0.384644	
-0.384094	
-0.385071	
-0.385315	
-0.386353	
-0.386047	
-0.384583	
-0.384033	
-0.38446	
-0.385559	
-0.385315	
-0.384277	
-0.385254	
-0.385986	
-0.38678	
-0.386841	
-0.385498	
-0.384766	
-0.385864	
-0.386353	
-0.385376	
-0.384888	
-0.386292	
-0.38678	
-0.387451	
-0.387329	
-0.385254	
-0.385254	
-0.386658	
-0.386597	
-0.386536	
-0.385986	
-0.387268	
-0.388733	
-0.388245	
-0.387573	
-0.386353	
-0.386353	
-0.387268	
-0.387451	
-0.387268	
-0.386108	
-0.38739	
-0.387634	
-0.387451	
-0.386719	
-0.385193	
-0.385437	
-0.38739	
-0.38623	
-0.386292	
-0.385559	
-0.386292	
-0.387451	
-0.386841	
-0.386902	
-0.385498	
-0.386047	
-0.387512	
-0.387329	
-0.387695	
-0.386597	
-0.388306	
-0.38916	
-0.389221	
-0.388977	
-0.387146	
-0.38739	
-0.389343	
-0.388489	
-0.389038	
-0.387451	
-0.388245	
-0.388794	
-0.388855	
-0.388	
-0.38623	
-0.386658	
-0.387939	
-0.387207	
-0.387146	
-0.386047	
-0.386963	
-0.38739	
-0.387207	
-0.386841	
-0.385315	
-0.38562	
-0.386841	
-0.386902	
-0.386841	
-0.385132	
-0.386414	
-0.388184	
-0.387695	
-0.386963	
-0.38501	
-0.385986	
-0.387573	
-0.386841	
-0.386169	
-0.38562	
-0.386169	
-0.38739	
-0.38678	
-0.385254	
-0.384277	
-0.38501	
-0.38623	
-0.384766	
-0.384827	
-0.384583	
-0.385071	
-0.386169	
-0.385681	
-0.385132	
-0.384705	
-0.385193	
-0.38678	
-0.385803	
-0.386047	
-0.38562	
-0.386169	
-0.38739	
-0.388062	
-0.387207	
-0.386475	
-0.386353	
-0.387878	
-0.38739	
-0.387512	
-0.387146	
-0.387817	
-0.388184	
-0.388489	
-0.387207	
-0.387146	
-0.386963	
-0.387878	
-0.38739	
-0.387451	
-0.387207	
-0.387634	
-0.387634	
-0.387817	
-0.386963	
-0.387268	
-0.386108	
-0.387817	
-0.387451	
-0.387329	
-0.387207	
-0.387512	
-0.388123	
-0.389038	
-0.387756	
-0.387512	
-0.386902	
-0.38855	
-0.387512	
-0.387329	
-0.386902	
-0.387573	
-0.387939	
-0.388672	
-0.387268	
-0.387817	
-0.386963	
-0.388855	
-0.387939	
-0.387451	
-0.386902	
-0.387939	
-0.387634	
-0.389038	
-0.387695	
-0.387817	
-0.385986	
-0.388306	
-0.387268	
-0.387634	
-0.386902	
-0.387512	
-0.38739	
-0.389465	
-0.387512	
-0.387329	
-0.385559	
-0.387878	
-0.38739	
-0.386902	
-0.386169	
-0.387451	
-0.387146	
-0.388916	
-0.386169	
-0.386047	
-0.384155	
-0.387207	
-0.386597	
-0.386658	
-0.385315	
-0.386353	
-0.386597	
-0.388428	
-0.385437	
-0.385925	
-0.383606	
-0.387024	
-0.386536	
-0.385803	
-0.384888	
-0.385925	
-0.385925	
-0.387756	
-0.384766	
-0.384766	
-0.382507	
-0.385315	
-0.384155	
-0.383728	
-0.382996	
-0.384033	
-0.384216	
-0.385803	
-0.383423	
-0.38324	
-0.381348	
-0.384094	
-0.38269	
-0.383118	
-0.382507	
-0.383911	
-0.384399	
-0.386658	
-0.384277	
-0.384216	
-0.381775	
-0.385803	
-0.384338	
-0.385803	
-0.383972	
-0.385498	
-0.385071	
-0.387878	
-0.385437	
-0.385559	
-0.383423	
-0.38623	
-0.38562	
-0.385803	
-0.384338	
-0.385559	
-0.385559	
-0.388306	
-0.385376	
-0.385254	
-0.383606	
-0.386353	
-0.385803	
-0.385254	
-0.384521	
-0.385437	
-0.385864	
-0.387634	
-0.385071	
-0.38562	
-0.38385	
-0.386658	
-0.385803	
-0.385437	
-0.384216	
-0.385315	
-0.38562	
-0.387634	
-0.384888	
-0.384705	
-0.383118	
-0.385437	
-0.384583	
-0.384277	
-0.382996	
-0.383606	
-0.383606	
-0.384583	
-0.382935	
-0.382751	
-0.382019	
-0.383911	
-0.382935	
-0.383118	
-0.382935	
-0.383667	
-0.383667	
-0.384583	
-0.383057	
-0.382935	
-0.382629	
-0.384094	
-0.384094	
-0.384277	
-0.383606	
-0.384155	
-0.384155	
-0.385681	
-0.383789	
-0.383423	
-0.382751	
-0.384216	
-0.384094	
-0.383972	
-0.383484	
-0.384094	
-0.383789	
-0.385925	
-0.383728	
-0.384399	
-0.382813	
-0.384155	
-0.383972	
-0.383606	
-0.384094	
-0.384399	
-0.38446	
-0.38562	
-0.383606	
-0.384033	
-0.382568	
-0.384766	
-0.384338	
-0.383972	
-0.384338	
-0.384216	
-0.384399	
-0.385254	
-0.38324	
-0.383545	
-0.382202	
-0.383972	
-0.383545	
-0.383362	
-0.383789	
-0.384399	
-0.384216	
-0.38501	
-0.38385	
-0.383057	
-0.382141	
-0.383179	
-0.382935	
-0.382874	
-0.383179	
-0.383606	
-0.38324	
-0.384216	
-0.38269	
-0.38208	
-0.381592	
-0.382202	
-0.382446	
-0.382446	
-0.382324	
-0.382629	
-0.382263	
-0.383118	
-0.38147	
-0.38147	
-0.380493	
-0.38147	
-0.381531	
-0.381165	
-0.381653	
-0.381592	
-0.38208	
-0.383118	
-0.381836	
-0.381714	
-0.380798	
-0.382385	
-0.382446	
-0.381897	
-0.382019	
-0.38208	
-0.382935	
-0.383606	
-0.382202	
-0.381958	
-0.380554	
-0.382446	
-0.381592	
-0.381287	
-0.382019	
-0.38147	
-0.381897	
-0.382568	
-0.380615	
-0.380371	
-0.379089	
-0.380493	
-0.380188	
-0.380066	
-0.380066	
-0.380127	
-0.380859	
-0.381287	
-0.380005	
-0.379761	
-0.378479	
-0.380615	
-0.381042	
-0.38092	
-0.381104	
-0.381653	
-0.381897	
-0.382935	
-0.381897	
-0.381287	
-0.380066	
-0.381653	
-0.381958	
-0.381836	
-0.381958	
-0.382141	
-0.382629	
-0.384216	
-0.381958	
-0.381531	
-0.380371	
-0.382385	
-0.382263	
-0.38208	
-0.382568	
-0.382813	
-0.382996	
-0.384644	
-0.382019	
-0.382263	
-0.38147	
-0.38324	
-0.383423	
-0.383057	
-0.383545	
-0.384155	
-0.384216	
-0.385437	
-0.383179	
-0.383545	
-0.382568	
-0.383972	
-0.383362	
-0.383179	
-0.383179	
-0.382996	
-0.382935	
-0.384399	
-0.382568	
-0.382202	
-0.38092	
-0.38208	
-0.381897	
-0.381409	
-0.381531	
-0.381714	
-0.38208	
-0.383789	
-0.381287	
-0.380615	
-0.379822	
-0.381409	
-0.381348	
-0.381348	
-0.381226	
-0.382141	
-0.382263	
-0.383911	
-0.381958	
-0.381226	
-0.379822	
-0.381409	
-0.381958	
-0.381165	
-0.381958	
-0.382202	
-0.38208	
-0.383362	
-0.381104	
-0.381165	
-0.379822	
-0.38092	
-0.380859	
-0.380676	
-0.380859	
-0.381042	
-0.382202	
-0.383118	
-0.380615	
-0.380798	
-0.379822	
-0.381104	
-0.380798	
-0.380188	
-0.38092	
-0.381348	
-0.382446	
-0.382996	
-0.381104	
-0.380188	
-0.380066	
-0.381287	
-0.380798	
-0.379944	
-0.381348	
-0.381348	
-0.382019	
-0.382629	
-0.381409	
-0.380554	
-0.380615	
-0.381409	
-0.380798	
	
