C:\DOCUMENTS AND SETTINGS\JASON\DESKTOP\UFRJ\UFRJ EPHYS\RSCI-BM 12 WK SERIES\070806-RSCI-BM-16\RSCI-BM-16-LEMG\070806-RSCI-BM-16-LEMG-0009.ACQ
0.025000 msec/sample
1 channel
Analog input
Volts
CH1	
2000	
-0.382996	
-0.380615	
-0.381531	
-0.381348	
-0.381775	
-0.382568	
-0.381897	
-0.381897	
-0.382446	
-0.382202	
-0.383118	
-0.381958	
-0.381897	
-0.381592	
-0.382507	
-0.382813	
-0.382874	
-0.383179	
-0.382385	
-0.38385	
-0.384033	
-0.384399	
-0.382813	
-0.383179	
-0.383118	
-0.384583	
-0.384094	
-0.384155	
-0.383911	
-0.384705	
-0.384338	
-0.385376	
-0.384644	
-0.384399	
-0.384094	
-0.385071	
-0.385254	
-0.385498	
-0.385681	
-0.385498	
-0.385681	
-0.386658	
-0.385742	
-0.385803	
-0.385742	
-0.386475	
-0.386902	
-0.386536	
-0.387451	
-0.387695	
-0.387329	
-0.388123	
-0.385925	
-0.387756	
-0.386963	
-0.388306	
-0.388245	
-0.387329	
-0.387756	
-0.388123	
-0.388245	
-0.388062	
-0.38623	
-0.38739	
-0.386841	
-0.387451	
-0.387695	
-0.386963	
-0.387268	
-0.386963	
-0.388062	
-0.386902	
-0.38678	
-0.385437	
-0.386047	
-0.385559	
-0.387024	
-0.387268	
-0.386597	
-0.386841	
-0.387451	
-0.387146	
-0.38739	
-0.385742	
-0.386536	
-0.386047	
-0.386536	
-0.386108	
-0.385986	
-0.38562	
-0.385925	
-0.385376	
-0.385681	
-0.384888	
-0.385925	
-0.383972	
-0.385742	
-0.385437	
-0.38562	
-0.384766	
-0.385681	
-0.385437	
-0.386719	
-0.385376	
-0.385132	
-0.383789	
-0.38501	
-0.385803	
-0.385376	
-0.385559	
-0.385071	
-0.38562	
-0.386169	
-0.385254	
-0.385254	
-0.385315	
-0.385437	
-0.386353	
-0.385803	
-0.38562	
-0.386047	
-0.386414	
-0.385986	
-0.38562	
-0.38501	
-0.385986	
-0.385132	
-0.386841	
-0.386292	
-0.386414	
-0.386292	
-0.387146	
-0.386963	
-0.38623	
-0.385864	
-0.387329	
-0.386414	
-0.386841	
-0.38678	
-0.387146	
-0.388123	
-0.388062	
-0.387878	
-0.388062	
-0.38739	
-0.387939	
-0.388184	
-0.388184	
-0.388184	
-0.388489	
-0.388428	
-0.388977	
-0.388794	
-0.388977	
-0.387573	
-0.387451	
-0.387085	
-0.388245	
-0.388123	
-0.388	
-0.387817	
-0.387939	
-0.387878	
-0.388733	
-0.387085	
-0.387268	
-0.386475	
-0.387024	
-0.387695	
-0.386902	
-0.386902	
-0.386658	
-0.386841	
-0.386902	
-0.384888	
-0.385071	
-0.383972	
-0.384644	
-0.385803	
-0.384766	
-0.385071	
-0.385132	
-0.38562	
-0.38501	
-0.384644	
-0.383179	
-0.383362	
-0.383362	
-0.384216	
-0.384216	
-0.38446	
-0.38446	
-0.38446	
-0.383911	
-0.384033	
-0.383606	
-0.383789	
-0.365417	
-0.363708	
-0.366089	
-0.366821	
-0.367432	
-0.367737	
-0.391418	
-0.38855	
-0.385498	
-0.384888	
-0.385071	
-0.385986	
-0.385437	
-0.385376	
-0.386047	
-0.386597	
-0.387085	
-0.386841	
-0.385254	
-0.384888	
-0.385803	
-0.386902	
-0.386475	
-0.386658	
-0.386719	
-0.387756	
-0.387695	
-0.387939	
-0.385986	
-0.386902	
-0.385925	
-0.388	
-0.387878	
-0.387878	
-0.387817	
-0.388916	
-0.388	
-0.388306	
-0.387695	
-0.387634	
-0.387024	
-0.386292	
-0.387451	
-0.386719	
-0.38678	
-0.385986	
-0.387024	
-0.387695	
-0.387939	
-0.387817	
-0.388428	
-0.389526	
-0.372131	
-0.373108	
-0.37793	
-0.381104	
-0.385376	
-0.389587	
-0.41687	
-0.417419	
-0.418091	
-0.421814	
-0.427124	
-0.430969	
-0.436584	
-0.443848	
-0.449097	
-0.455811	
-0.459534	
-0.464905	
-0.468567	
-0.471069	
-0.474304	
-0.475769	
-0.476379	
-0.477783	
-0.478149	
-0.479065	
-0.478943	
-0.478882	
-0.47876	
-0.478394	
-0.479187	
-0.477844	
-0.477112	
-0.476074	
-0.474854	
-0.473511	
-0.472046	
-0.471191	
-0.470215	
-0.469849	
-0.470703	
-0.46991	
-0.469788	
-0.470276	
-0.470764	
-0.471741	
-0.471497	
-0.471863	
-0.472473	
-0.474487	
-0.477417	
-0.47821	
-0.479858	
-0.479858	
-0.481323	
-0.482483	
-0.481079	
-0.480835	
-0.479492	
-0.479675	
-0.481201	
-0.480591	
-0.480469	
-0.480774	
-0.481079	
-0.482117	
-0.481689	
-0.481567	
-0.481445	
-0.482605	
-0.483826	
-0.483765	
-0.484375	
-0.483765	
-0.485168	
-0.487	
-0.487183	
-0.487427	
-0.487244	
-0.487061	
-0.487976	
-0.485962	
-0.484436	
-0.482239	
-0.480408	
-0.478088	
-0.475098	
-0.470947	
-0.466553	
-0.462585	
-0.459229	
-0.454895	
-0.4505	
-0.445618	
-0.44043	
-0.434753	
-0.429382	
-0.422058	
-0.414124	
-0.40564	
-0.397461	
-0.389404	
-0.380005	
-0.370605	
-0.361084	
-0.350037	
-0.340088	
-0.330444	
-0.320313	
-0.311523	
-0.304199	
-0.299438	
-0.292786	
-0.289368	
-0.285706	
-0.284912	
-0.284546	
-0.283875	
-0.283508	
-0.28363	
-0.284668	
-0.286926	
-0.287048	
-0.288208	
-0.289917	
-0.292603	
-0.295349	
-0.297119	
-0.299988	
-0.302673	
-0.305054	
-0.310059	
-0.313843	
-0.317932	
-0.321716	
-0.326294	
-0.331482	
-0.335938	
-0.340271	
-0.343994	
-0.349915	
-0.354675	
-0.359375	
-0.363892	
-0.368835	
-0.374451	
-0.378479	
-0.381958	
-0.384949	
-0.389404	
-0.394104	
-0.396973	
-0.399597	
-0.402588	
-0.403992	
-0.406738	
-0.40686	
-0.408325	
-0.408569	
-0.409973	
-0.412292	
-0.413025	
-0.413757	
-0.41449	
-0.414612	
-0.415588	
-0.414368	
-0.414063	
-0.413147	
-0.413086	
-0.41394	
-0.413513	
-0.412964	
-0.41333	
-0.411621	
-0.411438	
-0.408875	
-0.40686	
-0.402832	
-0.400574	
-0.397949	
-0.393738	
-0.389587	
-0.386902	
-0.381958	
-0.37793	
-0.37262	
-0.367676	
-0.361389	
-0.356628	
-0.353699	
-0.348206	
-0.344177	
-0.340149	
-0.335144	
-0.331909	
-0.327637	
-0.322632	
-0.318176	
-0.313965	
-0.31073	
-0.306091	
-0.301697	
-0.296631	
-0.292419	
-0.288269	
-0.283691	
-0.279663	
-0.274902	
-0.272461	
-0.271179	
-0.269775	
-0.26825	
-0.268127	
-0.267822	
-0.268677	
-0.268799	
-0.270203	
-0.272095	
-0.274841	
-0.277954	
-0.28125	
-0.284607	
-0.288879	
-0.292358	
-0.295593	
-0.299683	
-0.302429	
-0.305969	
-0.308533	
-0.313232	
-0.315857	
-0.318726	
-0.321045	
-0.324463	
-0.326843	
-0.328125	
-0.329346	
-0.331604	
-0.333984	
-0.336182	
-0.337341	
-0.339233	
-0.339783	
-0.341858	
-0.342712	
-0.344177	
-0.345093	
-0.346375	
-0.348022	
-0.348877	
-0.349426	
-0.350952	
-0.351868	
-0.353149	
-0.353638	
-0.354614	
-0.354919	
-0.355591	
-0.3573	
-0.357483	
-0.358704	
-0.358276	
-0.359619	
-0.360352	
-0.361145	
-0.360474	
-0.361023	
-0.361328	
-0.36322	
-0.362915	
-0.363281	
-0.36261	
-0.364136	
-0.364563	
-0.364929	
-0.364502	
-0.364868	
-0.364929	
-0.366394	
-0.366028	
-0.365967	
-0.364807	
-0.366089	
-0.36615	
-0.366821	
-0.36676	
-0.366272	
-0.365356	
-0.366577	
-0.366516	
-0.367126	
-0.364868	
-0.365295	
-0.364807	
-0.365967	
-0.364563	
-0.364441	
-0.364014	
-0.364807	
-0.36438	
-0.36554	
-0.364075	
-0.364807	
-0.363525	
-0.364929	
-0.36377	
-0.36438	
-0.36377	
-0.364258	
-0.364197	
-0.364197	
-0.364014	
-0.364014	
-0.36499	
-0.364624	
-0.364258	
-0.364197	
-0.364807	
-0.366028	
-0.365967	
-0.365723	
-0.365417	
-0.366577	
-0.367676	
-0.367615	
-0.367432	
-0.367188	
-0.367859	
-0.369202	
-0.36853	
-0.367859	
-0.366577	
-0.367798	
-0.368835	
-0.368652	
-0.368347	
-0.368042	
-0.368469	
-0.36908	
-0.36908	
-0.368896	
-0.368713	
-0.370789	
-0.370544	
-0.370605	
-0.368652	
-0.368774	
-0.369873	
-0.370422	
-0.370422	
-0.369812	
-0.368896	
-0.370483	
-0.370605	
-0.370117	
-0.370178	
-0.369873	
-0.370972	
-0.3703	
-0.3703	
-0.36969	
-0.371399	
-0.371277	
-0.371826	
-0.371094	
-0.371399	
-0.372375	
-0.372375	
-0.372375	
-0.372253	
-0.372437	
-0.372742	
-0.373474	
-0.373535	
-0.372314	
-0.372559	
-0.372925	
-0.37384	
-0.373291	
-0.372681	
-0.372986	
-0.374146	
-0.374451	
-0.374146	
-0.373047	
-0.373169	
-0.375	
-0.375305	
-0.37439	
-0.373779	
-0.373901	
-0.375305	
-0.375549	
-0.375061	
-0.374695	
-0.375305	
-0.375427	
-0.375671	
-0.375244	
-0.37561	
-0.375977	
-0.376343	
-0.376404	
-0.375916	
-0.375732	
-0.376099	
-0.376038	
-0.376709	
-0.37561	
-0.376648	
-0.376587	
-0.376343	
-0.376831	
-0.375244	
-0.375305	
-0.374634	
-0.375427	
-0.374878	
-0.375244	
-0.375061	
-0.374939	
-0.375793	
-0.376282	
-0.375	
-0.375671	
-0.375061	
-0.376343	
-0.375977	
-0.376343	
-0.375732	
-0.376526	
-0.377502	
-0.377319	
-0.376648	
-0.376709	
-0.377197	
-0.377808	
-0.377563	
-0.377808	
-0.377991	
-0.378601	
-0.378845	
-0.3797	
-0.378723	
-0.378296	
-0.378723	
-0.379272	
-0.379333	
-0.378845	
-0.379456	
-0.379761	
-0.380127	
-0.380798	
-0.379944	
-0.380005	
-0.381226	
-0.381531	
-0.381042	
-0.380737	
-0.38092	
-0.381531	
-0.382324	
-0.382324	
-0.382324	
-0.382385	
-0.382751	
-0.383423	
-0.382629	
-0.383179	
-0.382507	
-0.38324	
-0.384216	
-0.383606	
-0.38385	
-0.383118	
-0.384216	
-0.384583	
-0.38446	
-0.383667	
-0.383423	
-0.383911	
-0.385254	
-0.383545	
-0.383423	
-0.381775	
-0.383972	
-0.383667	
-0.383301	
-0.383179	
-0.383423	
-0.384094	
-0.385681	
-0.383423	
-0.382263	
-0.382629	
-0.383972	
-0.383972	
-0.383545	
-0.383362	
-0.383362	
-0.384583	
-0.383484	
-0.383362	
-0.381409	
-0.383057	
-0.383972	
-0.382629	
-0.382385	
-0.382019	
-0.382568	
-0.383484	
-0.382263	
-0.382446	
-0.381287	
-0.382507	
-0.384033	
-0.382751	
-0.382935	
-0.381226	
-0.38269	
-0.383362	
-0.382813	
-0.382507	
-0.382324	
-0.383179	
-0.384094	
-0.382629	
-0.382996	
-0.38147	
-0.383484	
-0.38385	
-0.383118	
-0.382446	
-0.38269	
-0.383606	
-0.384644	
-0.383301	
-0.38324	
-0.382507	
-0.383789	
-0.385071	
-0.383911	
-0.384155	
-0.383972	
-0.384216	
-0.385376	
-0.385132	
-0.384094	
-0.383301	
-0.384827	
-0.385681	
-0.384766	
-0.38501	
-0.384827	
-0.385376	
-0.387207	
-0.38562	
-0.385437	
-0.384949	
-0.386169	
-0.38678	
-0.386536	
-0.386047	
-0.386108	
-0.38678	
-0.387878	
-0.38678	
-0.386902	
-0.385681	
-0.386963	
-0.387451	
-0.386414	
-0.386475	
-0.38562	
-0.386292	
-0.387207	
-0.386414	
-0.386414	
-0.385071	
-0.386597	
-0.386963	
-0.386597	
-0.385803	
-0.384766	
-0.385742	
-0.386963	
-0.386047	
-0.385742	
-0.38385	
-0.385071	
-0.385559	
-0.384399	
-0.384033	
-0.382751	
-0.384155	
-0.38501	
-0.383911	
-0.383545	
-0.382629	
-0.38385	
-0.383911	
-0.383118	
-0.382751	
-0.382446	
-0.383057	
-0.385132	
-0.383057	
-0.383057	
-0.381409	
-0.383545	
-0.383911	
-0.383362	
-0.382751	
-0.382568	
-0.383362	
-0.385376	
-0.383545	
-0.38324	
-0.382263	
-0.38446	
-0.384827	
-0.383423	
-0.384521	
-0.384338	
-0.385132	
-0.386414	
-0.385315	
-0.385071	
-0.383667	
-0.385986	
-0.385803	
-0.385437	
-0.385559	
-0.385925	
-0.386108	
-0.387207	
-0.386414	
-0.386292	
-0.385376	
-0.387024	
-0.386536	
-0.387817	
-0.387024	
-0.388367	
-0.387695	
-0.389099	
-0.387573	
-0.388245	
-0.386902	
-0.388367	
-0.387756	
-0.387207	
-0.386414	
-0.387451	
-0.387451	
-0.388	
-0.38739	
-0.386475	
-0.386047	
-0.387146	
-0.388	
-0.387451	
-0.387329	
-0.387085	
-0.387817	
-0.388184	
-0.388	
-0.38739	
-0.388123	
-0.388062	
-0.388794	
-0.387939	
-0.387573	
-0.387695	
-0.388489	
-0.388611	
-0.388367	
-0.387756	
-0.387512	
-0.388733	
-0.388855	
-0.388062	
-0.388245	
-0.387817	
-0.387817	
-0.389465	
-0.388245	
-0.388123	
-0.387268	
-0.388062	
-0.388672	
-0.387939	
-0.387512	
-0.386963	
-0.388245	
-0.388062	
-0.387451	
-0.38739	
-0.386658	
-0.387634	
-0.387573	
-0.386353	
-0.385559	
-0.384766	
-0.386169	
-0.387024	
-0.386597	
-0.385864	
-0.385803	
-0.386353	
-0.387207	
-0.386047	
-0.385437	
-0.384705	
-0.385925	
-0.386719	
-0.38623	
-0.385986	
-0.385742	
-0.386169	
-0.386536	
-0.38623	
-0.385864	
-0.385803	
-0.385986	
-0.387329	
-0.385986	
-0.386169	
-0.385437	
-0.386658	
-0.387329	
-0.387329	
-0.386536	
-0.386169	
-0.386353	
-0.387512	
-0.386414	
-0.386108	
-0.385254	
-0.387146	
-0.387146	
-0.386169	
-0.386719	
-0.386414	
-0.387329	
-0.387695	
-0.387878	
-0.387939	
-0.388	
-0.388306	
-0.388855	
-0.388184	
-0.388184	
-0.387634	
-0.388611	
-0.388977	
-0.389282	
-0.388611	
-0.388184	
-0.388855	
-0.388916	
-0.38855	
-0.387634	
-0.388123	
-0.387695	
-0.388489	
-0.387939	
-0.387756	
-0.387268	
-0.388062	
-0.387573	
-0.387512	
-0.386414	
-0.386108	
-0.38623	
-0.386475	
-0.386963	
-0.386414	
-0.386353	
-0.385986	
-0.385925	
-0.386353	
-0.386108	
-0.385437	
-0.385986	
-0.38562	
-0.386536	
-0.385071	
-0.385498	
-0.383423	
-0.384888	
-0.384827	
-0.384094	
-0.384338	
-0.38446	
-0.384155	
-0.385193	
-0.383423	
-0.383423	
-0.382874	
-0.384094	
-0.383972	
-0.383179	
-0.383179	
-0.382507	
-0.38385	
-0.384583	
-0.383362	
-0.383057	
-0.383667	
-0.38324	
-0.384705	
-0.382996	
-0.383667	
-0.382996	
-0.384827	
-0.384399	
-0.384094	
-0.383484	
-0.383789	
-0.384338	
-0.385376	
-0.382996	
-0.383789	
-0.383545	
-0.383789	
-0.385437	
-0.383911	
-0.384277	
-0.383789	
-0.384338	
-0.385559	
-0.383484	
-0.383667	
-0.382324	
-0.384705	
-0.385742	
-0.38446	
-0.385681	
-0.384338	
-0.385559	
-0.387146	
-0.385681	
-0.38562	
-0.383423	
-0.385742	
-0.385925	
-0.385803	
-0.385437	
-0.384766	
-0.385254	
-0.386414	
-0.384949	
-0.385376	
-0.384155	
-0.386047	
-0.385925	
-0.385559	
-0.384766	
-0.385193	
-0.385254	
-0.386414	
-0.385193	
-0.385315	
-0.38385	
-0.385071	
-0.385742	
-0.385193	
-0.385254	
-0.384705	
-0.385437	
-0.386353	
-0.384521	
-0.38446	
-0.384338	
-0.384521	
-0.385742	
-0.385254	
-0.384827	
-0.383362	
-0.384399	
-0.384949	
-0.384094	
-0.384033	
-0.383484	
-0.384399	
-0.385071	
-0.384644	
-0.383667	
-0.382446	
-0.382629	
-0.38385	
-0.382446	
-0.382874	
-0.382874	
-0.382935	
-0.384033	
-0.384033	
-0.382751	
-0.381775	
-0.381531	
-0.383362	
-0.382813	
-0.383057	
-0.382385	
-0.382996	
-0.383789	
-0.383972	
-0.382751	
-0.382568	
-0.38324	
-0.383911	
-0.383545	
-0.383484	
-0.383667	
-0.383545	
-0.384399	
-0.384277	
-0.384338	
-0.384155	
-0.385132	
-0.384888	
-0.385498	
-0.384399	
-0.386169	
-0.385681	
-0.386047	
-0.386719	
-0.386292	
-0.385742	
-0.386902	
-0.387207	
-0.386719	
-0.385315	
-0.386536	
-0.38678	
-0.386597	
-0.386963	
-0.386658	
-0.386536	
-0.38739	
-0.387817	
-0.387085	
-0.385864	
-0.386719	
-0.387512	
-0.387207	
-0.387085	
-0.387756	
-0.387146	
-0.388184	
-0.387451	
-0.387268	
-0.385986	
-0.386902	
-0.386963	
-0.386841	
-0.386108	
-0.38678	
-0.385132	
-0.385925	
-0.384888	
-0.38562	
-0.383911	
-0.384827	
-0.385071	
-0.385315	
-0.384338	
-0.38501	
-0.38446	
-0.384949	
-0.383728	
-0.38446	
-0.383545	
-0.38385	
-0.383911	
-0.383972	
-0.383728	
-0.384399	
-0.384155	
-0.383789	
-0.383972	
-0.384399	
-0.384094	
-0.382874	
-0.383728	
-0.384277	
-0.384766	
-0.385376	
-0.384399	
-0.384705	
-0.385315	
-0.385132	
-0.384277	
-0.383362	
-0.383667	
-0.384399	
-0.384033	
-0.384583	
-0.383484	
-0.383911	
-0.384399	
-0.38446	
-0.383667	
-0.382385	
-0.38385	
-0.384521	
-0.383789	
-0.384094	
-0.382874	
-0.383057	
-0.385315	
-0.385071	
-0.383972	
-0.381653	
-0.383484	
-0.383423	
-0.383545	
-0.384094	
-0.383362	
-0.383606	
-0.385315	
-0.38385	
-0.383484	
-0.381104	
-0.383057	
-0.383972	
-0.384033	
-0.384094	
-0.384094	
-0.384216	
-0.385986	
-0.385803	
-0.384583	
-0.383179	
-0.384216	
-0.385681	
-0.385925	
-0.385803	
-0.385193	
-0.385376	
-0.386902	
-0.385986	
-0.385376	
-0.384583	
-0.385071	
-0.385803	
-0.387085	
-0.386414	
-0.385803	
-0.38446	
-0.386475	
-0.385986	
-0.386047	
-0.384949	
-0.385742	
-0.385803	
-0.386536	
-0.386108	
-0.385681	
-0.384888	
-0.386414	
-0.385681	
-0.385681	
-0.384888	
-0.384705	
-0.385071	
-0.386108	
-0.385864	
-0.385925	
-0.385315	
-0.386292	
-0.385986	
-0.385254	
-0.384888	
-0.385498	
-0.385376	
-0.385803	
-0.385498	
-0.384277	
-0.384277	
-0.384216	
-0.384216	
-0.383972	
-0.383484	
-0.383423	
-0.384094	
-0.384216	
-0.383972	
-0.384155	
-0.383728	
-0.383789	
-0.384216	
-0.384766	
-0.383789	
-0.384094	
-0.384399	
-0.385071	
-0.38446	
-0.385498	
-0.385376	
-0.38678	
-0.385803	
-0.385986	
-0.385437	
-0.385864	
-0.385925	
-0.386536	
-0.386902	
-0.386475	
-0.386597	
-0.385498	
-0.386169	
-0.386658	
-0.386414	
-0.387024	
-0.38678	
-0.386902	
-0.388245	
-0.387329	
-0.387268	
-0.386902	
-0.387573	
-0.387878	
-0.388	
-0.388062	
-0.388367	
-0.388184	
-0.389893	
-0.389404	
-0.389526	
-0.388855	
-0.389832	
-0.390381	
-0.389526	
-0.388977	
-0.38916	
-0.389893	
-0.390381	
-0.391113	
-0.389954	
-0.389954	
-0.390381	
-0.390869	
-0.389465	
-0.388977	
-0.389404	
-0.390503	
-0.390015	
-0.390381	
-0.388977	
-0.389221	
-0.389343	
-0.390198	
-0.389221	
-0.387634	
-0.388245	
-0.389709	
-0.388672	
-0.389954	
-0.389038	
-0.388977	
-0.389587	
-0.389832	
-0.388672	
-0.386536	
-0.387756	
-0.388794	
-0.389038	
-0.389709	
-0.38855	
-0.387695	
-0.387939	
-0.388672	
-0.387634	
-0.385864	
-0.386841	
-0.387939	
-0.387756	
-0.389099	
-0.388	
-0.387878	
-0.387146	
-0.387939	
-0.387146	
-0.386475	
-0.386841	
-0.387939	
-0.387512	
-0.388794	
-0.38678	
-0.387512	
-0.387939	
-0.388489	
-0.387878	
-0.387024	
-0.387512	
-0.388245	
-0.387878	
-0.388306	
-0.388306	
-0.388245	
-0.38855	
-0.388489	
-0.388428	
-0.387024	
-0.388123	
-0.388428	
-0.388733	
-0.388855	
-0.389221	
-0.388367	
-0.388977	
-0.388123	
-0.389282	
-0.388489	
-0.389038	
-0.389648	
-0.390015	
-0.389954	
-0.389465	
-0.389343	
-0.389282	
-0.390381	
-0.390015	
-0.389771	
-0.390381	
-0.390686	
-0.390198	
-0.391479	
-0.39093	
-0.391296	
-0.39032	
-0.390808	
-0.390747	
-0.390442	
-0.390259	
-0.390015	
-0.390076	
-0.390686	
-0.391418	
-0.390137	
-0.389893	
-0.390381	
-0.390259	
-0.389832	
-0.389343	
-0.388672	
-0.390015	
-0.389282	
-0.391357	
-0.389343	
-0.389587	
-0.389404	
-0.389343	
-0.388306	
-0.387146	
-0.387085	
-0.387695	
-0.387634	
-0.389099	
-0.387024	
-0.387085	
-0.387268	
-0.387451	
-0.386353	
-0.384583	
-0.386108	
-0.386169	
-0.386597	
-0.388245	
-0.386292	
-0.386353	
-0.385803	
-0.386658	
-0.386292	
-0.384216	
-0.385864	
-0.386292	
-0.386536	
-0.388062	
-0.386597	
-0.386292	
-0.386475	
-0.386963	
-0.386475	
-0.385681	
-0.386963	
-0.387512	
-0.38678	
-0.388977	
-0.387756	
-0.387695	
-0.388123	
-0.388428	
-0.388855	
-0.387085	
-0.388367	
-0.388977	
-0.388794	
-0.389832	
-0.38916	
-0.389587	
-0.389587	
-0.389038	
-0.389954	
-0.388855	
-0.389954	
-0.38916	
-0.389832	
-0.390808	
-0.39032	
-0.390198	
-0.390259	
-0.390137	
-0.390991	
-0.389221	
-0.389954	
-0.38855	
-0.389832	
-0.390198	
-0.389648	
-0.388977	
-0.389771	
-0.389709	
-0.390259	
-0.388611	
-0.389465	
-0.388977	
-0.390198	
-0.390259	
-0.390198	
-0.389954	
-0.390076	
-0.390503	
-0.390259	
-0.389893	
-0.39032	
-0.389648	
-0.390076	
-0.390137	
-0.390503	
-0.390503	
-0.390137	
-0.389771	
-0.390625	
-0.389771	
-0.390015	
-0.390076	
-0.390137	
-0.390869	
-0.391663	
-0.390015	
-0.390503	
-0.389771	
-0.390503	
-0.389954	
-0.389587	
-0.389648	
-0.390137	
-0.389832	
-0.391602	
-0.389954	
-0.390442	
-0.388794	
-0.389587	
-0.388977	
-0.388062	
-0.388977	
-0.388794	
-0.38916	
-0.389526	
-0.388428	
-0.388184	
-0.387939	
-0.388	
-0.388672	
-0.386902	
-0.387695	
-0.387329	
-0.388306	
-0.388672	
-0.387817	
-0.387756	
-0.388367	
-0.387756	
-0.388977	
-0.387329	
-0.388306	
-0.386963	
-0.388245	
-0.389038	
-0.387573	
-0.388306	
-0.388916	
-0.388	
-0.389038	
-0.386536	
-0.388123	
-0.387939	
-0.388245	
-0.388794	
-0.387817	
-0.388123	
-0.389221	
-0.388245	
-0.388123	
-0.387512	
-0.388977	
-0.388245	
-0.38916	
-0.389343	
-0.389404	
-0.389709	
-0.390442	
-0.389771	
-0.390503	
-0.389587	
-0.390198	
-0.390564	
-0.390991	
-0.390259	
-0.391113	
-0.389954	
-0.390442	
-0.391357	
-0.390808	
-0.389404	
-0.388794	
-0.389648	
-0.389282	
-0.389771	
-0.390564	
-0.389771	
-0.389038	
-0.389221	
-0.388916	
-0.389465	
-0.38739	
-0.38855	
-0.388245	
-0.388611	
-0.389404	
-0.387329	
-0.387756	
-0.387146	
-0.388123	
-0.387878	
-0.386475	
-0.386902	
-0.386841	
-0.387024	
-0.388489	
-0.386963	
-0.386902	
-0.386108	
-0.38623	
-0.386719	
-0.385559	
-0.385376	
-0.384644	
-0.385742	
-0.38678	
-0.38562	
-0.384888	
-0.384705	
-0.384705	
-0.385559	
-0.383667	
-0.38501	
-0.383423	
-0.38501	
-0.38562	
-0.384827	
-0.384766	
-0.385071	
-0.383972	
-0.385681	
-0.383484	
-0.385254	
-0.384277	
-0.384888	
-0.385803	
-0.385071	
-0.384766	
-0.384888	
-0.385315	
-0.385132	
-0.384155	
-0.385071	
-0.385681	
-0.385437	
-0.387024	
-0.385315	
-0.385986	
-0.384521	
-0.385742	
-0.38501	
-0.385315	
-0.385559	
-0.386292	
-0.385437	
-0.386963	
-0.386292	
-0.385986	
-0.386169	
-0.386414	
-0.385925	
-0.386353	
-0.387268	
-0.386963	
-0.388367	
-0.387756	
-0.388367	
-0.386658	
-0.387695	
-0.386963	
-0.388489	
-0.387512	
-0.388062	
-0.387024	
-0.38678	
-0.386719	
-0.387268	
-0.387085	
-0.387329	
-0.386963	
-0.386963	
-0.38739	
-0.38623	
-0.387329	
-0.385864	
-0.387085	
-0.387573	
-0.38678	
-0.386292	
-0.387695	
-0.386169	
-0.386963	
-0.384521	
-0.387146	
-0.385437	
-0.387085	
-0.386902	
-0.386108	
-0.385254	
-0.387451	
-0.38562	
-0.386902	
-0.384277	
-0.386658	
-0.385315	
-0.385437	
-0.385559	
-0.384827	
-0.385864	
-0.386108	
-0.385254	
-0.384521	
-0.384033	
-0.384338	
-0.385071	
-0.384583	
-0.385193	
-0.384338	
-0.383728	
-0.38562	
-0.384888	
-0.384583	
-0.382813	
-0.383545	
-0.383362	
-0.384827	
-0.38385	
-0.383972	
-0.383606	
-0.385437	
-0.383972	
-0.385437	
-0.382568	
-0.385315	
-0.384338	
-0.385437	
-0.384827	
-0.385498	
-0.384033	
-0.384888	
-0.384583	
-0.385742	
-0.38562	
-0.385864	
-0.385681	
-0.386169	
-0.388306	
-0.386597	
-0.387146	
-0.38501	
-0.386719	
-0.38623	
-0.388428	
-0.387207	
-0.388306	
-0.386719	
-0.388123	
-0.387085	
-0.387817	
-0.386658	
-0.388184	
-0.387024	
-0.387817	
-0.387024	
-0.387573	
-0.386902	
-0.387573	
-0.387451	
-0.386719	
-0.386475	
-0.387695	
-0.386719	
-0.386536	
-0.385071	
-0.385559	
-0.385681	
-0.386169	
-0.385803	
-0.385559	
-0.385803	
-0.38623	
-0.384521	
-0.384949	
-0.38269	
-0.384583	
-0.383911	
-0.384827	
-0.384827	
-0.384216	
-0.383789	
-0.384338	
-0.383606	
-0.383972	
-0.382202	
-0.383606	
-0.382813	
-0.384216	
-0.383789	
-0.383911	
-0.383057	
-0.384338	
-0.38324	
-0.383057	
-0.383057	
-0.383362	
-0.38385	
-0.383789	
-0.383789	
-0.384399	
-0.384033	
-0.384277	
-0.382874	
-0.383728	
-0.383911	
-0.383606	
-0.383606	
-0.382751	
-0.384277	
-0.383789	
-0.382751	
-0.382263	
-0.382446	
-0.383118	
-0.383362	
-0.382874	
-0.383118	
-0.381836	
-0.384216	
-0.383362	
-0.38324	
-0.382141	
-0.382935	
-0.382568	
-0.383484	
-0.381348	
-0.382751	
-0.382019	
-0.383179	
-0.383118	
-0.382874	
-0.382141	
-0.384094	
-0.382507	
-0.382874	
-0.380737	
-0.382996	
-0.382935	
-0.383484	
-0.383301	
-0.383362	
-0.382874	
-0.384949	
-0.383789	
-0.385559	
-0.383301	
-0.385071	
-0.384521	
-0.384338	
-0.384766	
-0.38501	
-0.38446	
-0.385376	
-0.384705	
-0.385132	
-0.384583	
-0.384949	
-0.385132	
-0.385132	
-0.386597	
-0.385498	
-0.38623	
-0.384766	
-0.385132	
-0.385071	
-0.38446	
-0.384705	
-0.385254	
-0.385315	
-0.386108	
-0.38623	
-0.385437	
-0.384033	
-0.385559	
-0.385376	
-0.385132	
-0.385132	
-0.384827	
-0.385132	
-0.384949	
-0.38623	
-0.38501	
-0.385071	
-0.384033	
-0.385193	
-0.385193	
-0.384338	
-0.384338	
-0.383911	
-0.383972	
-0.384094	
-0.382996	
-0.383057	
-0.384216	
	
