C:\DOCUMENTS AND SETTINGS\JASON\DESKTOP\UFRJ\UFRJ EPHYS\RSCI-BM 12 WK SERIES\070806-RSCI-BM-16\RSCI-BM-16-LEMG\070806-RSCI-BM-16-LEMG-0018.ACQ
0.025000 msec/sample
1 channel
Analog input
Volts
CH1	
2000	
-0.386292	
-0.385742	
-0.385986	
-0.386047	
-0.38678	
-0.386292	
-0.386108	
-0.38562	
-0.386963	
-0.387207	
-0.386536	
-0.385864	
-0.386169	
-0.385986	
-0.386475	
-0.385681	
-0.385925	
-0.385315	
-0.386047	
-0.385803	
-0.386047	
-0.385254	
-0.385071	
-0.384277	
-0.384827	
-0.384521	
-0.384521	
-0.383301	
-0.38385	
-0.383423	
-0.384827	
-0.383667	
-0.383972	
-0.383362	
-0.38446	
-0.383667	
-0.383667	
-0.382874	
-0.384216	
-0.383911	
-0.384521	
-0.383545	
-0.383728	
-0.382751	
-0.384827	
-0.383728	
-0.383606	
-0.382568	
-0.383911	
-0.384521	
-0.384949	
-0.383972	
-0.383545	
-0.382813	
-0.384399	
-0.383972	
-0.383606	
-0.382446	
-0.383972	
-0.383789	
-0.384399	
-0.383118	
-0.383728	
-0.383423	
-0.385254	
-0.383728	
-0.383606	
-0.382141	
-0.38446	
-0.384094	
-0.384277	
-0.383972	
-0.383972	
-0.382629	
-0.384277	
-0.383423	
-0.38385	
-0.382568	
-0.384277	
-0.383545	
-0.38446	
-0.383789	
-0.384338	
-0.38324	
-0.384338	
-0.383362	
-0.383118	
-0.382141	
-0.383057	
-0.382996	
-0.383545	
-0.382568	
-0.382813	
-0.382568	
-0.383789	
-0.383118	
-0.382874	
-0.382385	
-0.383057	
-0.383118	
-0.384338	
-0.38324	
-0.383423	
-0.38324	
-0.384216	
-0.383484	
-0.383362	
-0.382446	
-0.383118	
-0.383118	
-0.383484	
-0.383301	
-0.382996	
-0.382385	
-0.382935	
-0.382568	
-0.382324	
-0.381714	
-0.382446	
-0.382568	
-0.382202	
-0.382141	
-0.382202	
-0.382263	
-0.382813	
-0.382507	
-0.382141	
-0.382141	
-0.382568	
-0.382629	
-0.382507	
-0.38269	
-0.382751	
-0.383728	
-0.382751	
-0.38324	
-0.38324	
-0.383179	
-0.38324	
-0.383118	
-0.383545	
-0.383423	
-0.38324	
-0.383789	
-0.384155	
-0.384094	
-0.383911	
-0.383911	
-0.384399	
-0.384766	
-0.384705	
-0.384888	
-0.385193	
-0.385498	
-0.386047	
-0.385925	
-0.385437	
-0.385925	
-0.38623	
-0.386536	
-0.386108	
-0.386292	
-0.386047	
-0.385803	
-0.386597	
-0.38678	
-0.385742	
-0.385498	
-0.386047	
-0.385742	
-0.385132	
-0.38501	
-0.384399	
-0.38385	
-0.38446	
-0.384094	
-0.383118	
-0.382446	
-0.382568	
-0.383423	
-0.382446	
-0.382385	
-0.382202	
-0.382141	
-0.382629	
-0.382507	
-0.381897	
-0.380371	
-0.381226	
-0.381897	
-0.381409	
-0.381226	
-0.381287	
-0.381165	
-0.381958	
-0.381714	
-0.381104	
-0.365601	
-0.36145	
-0.363892	
-0.363586	
-0.363708	
-0.36438	
-0.382935	
-0.383301	
-0.380798	
-0.380737	
-0.380798	
-0.381165	
-0.380981	
-0.380371	
-0.380432	
-0.380981	
-0.381592	
-0.381775	
-0.380798	
-0.381165	
-0.381287	
-0.381836	
-0.382446	
-0.382202	
-0.382019	
-0.382935	
-0.383057	
-0.383423	
-0.382019	
-0.382751	
-0.382568	
-0.382935	
-0.383728	
-0.38269	
-0.382813	
-0.383118	
-0.383179	
-0.38324	
-0.382813	
-0.382629	
-0.382629	
-0.382385	
-0.382935	
-0.381836	
-0.381226	
-0.381042	
-0.381226	
-0.381836	
-0.382141	
-0.382202	
-0.382751	
-0.385376	
-0.386841	
-0.388428	
-0.390015	
-0.393372	
-0.398132	
-0.401978	
-0.406128	
-0.410217	
-0.414734	
-0.419556	
-0.4245	
-0.430176	
-0.437073	
-0.443848	
-0.4505	
-0.454956	
-0.460449	
-0.465698	
-0.470398	
-0.474182	
-0.476135	
-0.478394	
-0.480835	
-0.482239	
-0.483398	
-0.48407	
-0.485107	
-0.485596	
-0.48645	
-0.486206	
-0.485352	
-0.48468	
-0.484253	
-0.483826	
-0.48291	
-0.481628	
-0.481506	
-0.480957	
-0.481384	
-0.482178	
-0.482056	
-0.481873	
-0.483337	
-0.485046	
-0.485962	
-0.486755	
-0.488037	
-0.48999	
-0.492188	
-0.494629	
-0.495544	
-0.496094	
-0.496765	
-0.498474	
-0.498169	
-0.498108	
-0.497681	
-0.497009	
-0.497681	
-0.496826	
-0.49585	
-0.493958	
-0.494385	
-0.494629	
-0.493652	
-0.493347	
-0.492432	
-0.493225	
-0.494629	
-0.493408	
-0.492493	
-0.49176	
-0.49176	
-0.491638	
-0.490173	
-0.489258	
-0.487366	
-0.486938	
-0.485474	
-0.482056	
-0.479248	
-0.475769	
-0.472412	
-0.469116	
-0.464722	
-0.459717	
-0.454773	
-0.448975	
-0.445251	
-0.438538	
-0.432068	
-0.425415	
-0.417542	
-0.409912	
-0.401001	
-0.391235	
-0.380493	
-0.369812	
-0.360657	
-0.348816	
-0.338257	
-0.325684	
-0.315796	
-0.30481	
-0.293213	
-0.282837	
-0.272461	
-0.263672	
-0.257446	
-0.250244	
-0.244873	
-0.239441	
-0.237488	
-0.236023	
-0.234436	
-0.232849	
-0.232544	
-0.233215	
-0.236084	
-0.237122	
-0.23877	
-0.241028	
-0.24469	
-0.248596	
-0.252808	
-0.25647	
-0.260742	
-0.266052	
-0.27124	
-0.275024	
-0.279358	
-0.284729	
-0.289185	
-0.292908	
-0.295654	
-0.300293	
-0.30426	
-0.308533	
-0.311279	
-0.314209	
-0.317932	
-0.320984	
-0.323669	
-0.325867	
-0.328064	
-0.330872	
-0.333252	
-0.334961	
-0.335999	
-0.337036	
-0.34021	
-0.341492	
-0.342712	
-0.343872	
-0.344849	
-0.345459	
-0.34729	
-0.347595	
-0.348328	
-0.349426	
-0.350586	
-0.350403	
-0.351563	
-0.351685	
-0.352783	
-0.352966	
-0.353943	
-0.353333	
-0.353577	
-0.354797	
-0.355652	
-0.35553	
-0.354553	
-0.355225	
-0.356323	
-0.357605	
-0.356934	
-0.356934	
-0.35614	
-0.358032	
-0.357422	
-0.358582	
-0.357422	
-0.358154	
-0.357239	
-0.358765	
-0.358521	
-0.358032	
-0.358521	
-0.359558	
-0.359009	
-0.359497	
-0.358582	
-0.359558	
-0.359985	
-0.360229	
-0.359619	
-0.35907	
-0.361084	
-0.360168	
-0.360474	
-0.359497	
-0.360291	
-0.360962	
-0.361023	
-0.36084	
-0.360962	
-0.361633	
-0.362305	
-0.361389	
-0.362305	
-0.361755	
-0.362305	
-0.362183	
-0.362549	
-0.362366	
-0.361633	
-0.362427	
-0.362	
-0.362366	
-0.362488	
-0.362976	
-0.362854	
-0.361267	
-0.363464	
-0.362366	
-0.362366	
-0.36261	
-0.362122	
-0.362061	
-0.361572	
-0.362183	
-0.362427	
-0.362427	
-0.362732	
-0.361145	
-0.362976	
-0.361694	
-0.361572	
-0.361084	
-0.361206	
-0.361389	
-0.361572	
-0.361877	
-0.361877	
-0.361511	
-0.361877	
-0.362061	
-0.362244	
-0.362854	
-0.36261	
-0.363403	
-0.363098	
-0.364502	
-0.363953	
-0.365967	
-0.363953	
-0.365356	
-0.364258	
-0.366333	
-0.367493	
-0.367798	
-0.367493	
-0.368103	
-0.36731	
-0.368652	
-0.368896	
-0.368652	
-0.369873	
-0.369324	
-0.369507	
-0.369507	
-0.370728	
-0.369995	
-0.371582	
-0.369995	
-0.370605	
-0.370483	
-0.371277	
-0.37146	
-0.371582	
-0.371643	
-0.372864	
-0.371765	
-0.373108	
-0.372131	
-0.372559	
-0.372375	
-0.372803	
-0.372986	
-0.373169	
-0.373718	
-0.37384	
-0.374023	
-0.374939	
-0.373657	
-0.373779	
-0.374023	
-0.374207	
-0.373718	
-0.373108	
-0.373901	
-0.373413	
-0.374207	
-0.37323	
-0.373718	
-0.372314	
-0.373596	
-0.37323	
-0.373291	
-0.372375	
-0.37323	
-0.373596	
-0.374817	
-0.373718	
-0.374268	
-0.373047	
-0.375061	
-0.374695	
-0.37439	
-0.374084	
-0.374756	
-0.375366	
-0.376099	
-0.374512	
-0.375061	
-0.374451	
-0.376709	
-0.375305	
-0.37561	
-0.376221	
-0.376709	
-0.37616	
-0.376404	
-0.375183	
-0.375793	
-0.375916	
-0.376709	
-0.376526	
-0.376221	
-0.377686	
-0.378052	
-0.37738	
-0.376221	
-0.376465	
-0.377075	
-0.37677	
-0.377319	
-0.375366	
-0.35968	
-0.362671	
-0.36261	
-0.362549	
-0.363403	
-0.370361	
-0.38147	
-0.378906	
-0.379333	
-0.379028	
-0.377991	
-0.378906	
-0.379456	
-0.379395	
-0.379456	
-0.378601	
-0.378906	
-0.37915	
-0.378296	
-0.378174	
-0.378662	
-0.378845	
-0.378174	
-0.378479	
-0.377197	
-0.37738	
-0.377258	
-0.377808	
-0.377808	
-0.377869	
-0.379028	
-0.378967	
-0.378296	
-0.378235	
-0.377869	
-0.377625	
-0.377075	
-0.377808	
-0.377502	
-0.376465	
-0.378296	
-0.37738	
-0.376892	
-0.376526	
-0.376526	
-0.376465	
-0.37738	
-0.377319	
-0.378235	
-0.379456	
-0.381714	
-0.382996	
-0.386047	
-0.388428	
-0.392151	
-0.396057	
-0.40094	
-0.405273	
-0.408875	
-0.415771	
-0.419617	
-0.425049	
-0.430603	
-0.437744	
-0.444397	
-0.451477	
-0.458008	
-0.46405	
-0.470032	
-0.474731	
-0.476868	
-0.479309	
-0.480652	
-0.482544	
-0.483093	
-0.483948	
-0.483887	
-0.483337	
-0.482971	
-0.481934	
-0.480835	
-0.480713	
-0.479492	
-0.478638	
-0.476868	
-0.476624	
-0.476624	
-0.476013	
-0.477234	
-0.476807	
-0.477539	
-0.47937	
-0.479919	
-0.48114	
-0.481506	
-0.484985	
-0.487183	
-0.488403	
-0.492371	
-0.493286	
-0.494873	
-0.496033	
-0.496155	
-0.496582	
-0.496338	
-0.497131	
-0.496704	
-0.49585	
-0.497864	
-0.495605	
-0.496338	
-0.495911	
-0.49762	
-0.497681	
-0.498657	
-0.49884	
-0.498535	
-0.498352	
-0.49884	
-0.49646	
-0.495117	
-0.493591	
-0.491943	
-0.489929	
-0.488281	
-0.485474	
-0.482178	
-0.479614	
-0.475647	
-0.471741	
-0.467712	
-0.46283	
-0.457825	
-0.451782	
-0.445557	
-0.438293	
-0.43103	
-0.424683	
-0.416138	
-0.406799	
-0.397095	
-0.386475	
-0.375366	
-0.363586	
-0.350769	
-0.338074	
-0.3255	
-0.312866	
-0.300171	
-0.286621	
-0.275574	
-0.263733	
-0.254395	
-0.244934	
-0.236755	
-0.229492	
-0.223938	
-0.219604	
-0.217224	
-0.214905	
-0.214722	
-0.21521	
-0.216492	
-0.219299	
-0.222778	
-0.226501	
-0.229919	
-0.236267	
-0.240662	
-0.24469	
-0.249939	
-0.254883	
-0.25946	
-0.264221	
-0.269958	
-0.275269	
-0.279724	
-0.285461	
-0.289124	
-0.293945	
-0.297729	
-0.301147	
-0.30426	
-0.307739	
-0.310791	
-0.31311	
-0.318237	
-0.319763	
-0.322388	
-0.324402	
-0.328064	
-0.329956	
-0.33252	
-0.3349	
-0.336365	
-0.337952	
-0.340027	
-0.341797	
-0.343079	
-0.343933	
-0.344727	
-0.345703	
-0.347046	
-0.348328	
-0.348999	
-0.351135	
-0.350708	
-0.35199	
-0.351379	
-0.352661	
-0.352966	
-0.35376	
-0.354492	
-0.354675	
-0.355469	
-0.35675	
-0.356873	
-0.357849	
-0.357483	
-0.357971	
-0.358276	
-0.359558	
-0.359924	
-0.359741	
-0.361328	
-0.36145	
-0.361633	
-0.362427	
-0.362549	
-0.36261	
-0.362854	
-0.362915	
-0.363159	
-0.363342	
-0.365051	
-0.363586	
-0.364807	
-0.361572	
-0.363159	
-0.362854	
-0.363281	
-0.362244	
-0.361206	
-0.362122	
-0.362122	
-0.361694	
-0.361267	
-0.360901	
-0.360718	
-0.362122	
-0.361206	
-0.360535	
-0.360596	
-0.361145	
-0.361328	
-0.361389	
-0.360535	
-0.361206	
-0.360718	
-0.36084	
-0.361145	
-0.360901	
-0.36145	
-0.36261	
-0.361877	
-0.362549	
-0.360474	
-0.361694	
-0.361877	
-0.361877	
-0.362122	
-0.361877	
-0.362976	
-0.363892	
-0.362854	
-0.363403	
-0.363037	
-0.363159	
-0.363892	
-0.363586	
-0.363708	
-0.364441	
-0.365845	
-0.365417	
-0.366394	
-0.36438	
-0.365356	
-0.365845	
-0.366699	
-0.366821	
-0.366272	
-0.367676	
-0.368347	
-0.368164	
-0.368347	
-0.368408	
-0.36792	
-0.368103	
-0.368469	
-0.368469	
-0.368835	
-0.369751	
-0.368713	
-0.369568	
-0.368713	
-0.369141	
-0.369202	
-0.368835	
-0.36908	
-0.36853	
-0.369446	
-0.369751	
-0.369385	
-0.369507	
-0.369629	
-0.369385	
-0.36969	
-0.36969	
-0.369995	
-0.370483	
-0.370361	
-0.3703	
-0.371216	
-0.370117	
-0.369934	
-0.370178	
-0.3703	
-0.370422	
-0.369934	
-0.371155	
-0.371765	
-0.371277	
-0.370239	
-0.36908	
-0.3703	
-0.371033	
-0.371216	
-0.370667	
-0.370728	
-0.371155	
-0.371399	
-0.371643	
-0.371765	
-0.371643	
-0.37146	
-0.371948	
-0.371704	
-0.371582	
-0.372437	
-0.373169	
-0.372864	
-0.373657	
-0.373352	
-0.373718	
-0.372864	
-0.373901	
-0.373535	
-0.37384	
-0.375061	
-0.37561	
-0.374695	
-0.375427	
-0.374512	
-0.375305	
-0.374756	
-0.375488	
-0.375549	
-0.376282	
-0.376831	
-0.377808	
-0.376953	
-0.377625	
-0.37561	
-0.377014	
-0.376221	
-0.377319	
-0.376831	
-0.378357	
-0.378113	
-0.377991	
-0.377563	
-0.378601	
-0.377686	
-0.378174	
-0.377625	
-0.377808	
-0.377869	
-0.378845	
-0.37793	
-0.377502	
-0.378235	
-0.377441	
-0.378296	
-0.376892	
-0.377014	
-0.377075	
-0.377136	
-0.376587	
-0.37677	
-0.375977	
-0.376831	
-0.374878	
-0.376282	
-0.374939	
-0.37561	
-0.375244	
-0.376099	
-0.375488	
-0.375366	
-0.375183	
-0.37616	
-0.37561	
-0.375183	
-0.375061	
-0.375732	
-0.376221	
-0.375916	
-0.376587	
-0.376343	
-0.377441	
-0.376282	
-0.377686	
-0.376953	
-0.377563	
-0.377991	
-0.378418	
-0.377991	
-0.378784	
-0.377747	
-0.379211	
-0.378662	
-0.378479	
-0.377686	
-0.378906	
-0.378906	
-0.379517	
-0.379395	
-0.378601	
-0.380249	
-0.379089	
-0.380249	
-0.378357	
-0.379639	
-0.379272	
-0.379883	
-0.379395	
-0.380249	
-0.379761	
-0.380493	
-0.379822	
-0.379333	
-0.378723	
-0.380005	
-0.379944	
-0.380981	
-0.380493	
-0.380005	
-0.380249	
-0.38031	
-0.380737	
-0.379761	
-0.380371	
-0.379761	
-0.38031	
-0.381287	
-0.380859	
-0.379944	
-0.379456	
-0.379517	
-0.380981	
-0.380127	
-0.379883	
-0.380005	
-0.380554	
-0.380676	
-0.380859	
-0.38092	
-0.381104	
-0.380127	
-0.380188	
-0.379761	
-0.380676	
-0.380981	
-0.380981	
-0.381042	
-0.381348	
-0.380981	
-0.381836	
-0.381775	
-0.381165	
-0.380554	
-0.381226	
-0.381714	
-0.381958	
-0.382263	
-0.381775	
-0.382019	
-0.382629	
-0.382874	
-0.381165	
-0.381104	
-0.380615	
-0.381531	
-0.381958	
-0.381592	
-0.381714	
-0.382141	
-0.381653	
-0.382385	
-0.380676	
-0.381836	
-0.382385	
-0.382507	
-0.382446	
-0.382874	
-0.382507	
-0.383179	
-0.382202	
-0.382324	
-0.381897	
-0.381836	
-0.382996	
-0.382629	
-0.383484	
-0.383301	
-0.383118	
-0.382751	
-0.383362	
-0.382324	
-0.38208	
-0.383057	
-0.382629	
-0.382568	
-0.38324	
-0.382751	
-0.382507	
-0.381836	
-0.382141	
-0.381592	
-0.381836	
-0.381897	
-0.381958	
-0.381897	
-0.382263	
-0.381897	
-0.382446	
-0.381531	
-0.381531	
-0.379761	
-0.380554	
-0.380981	
-0.380798	
-0.380859	
-0.381531	
-0.380371	
-0.380188	
-0.379395	
-0.379211	
-0.379761	
-0.379089	
-0.379639	
-0.379517	
-0.380249	
-0.379578	
-0.379272	
-0.378418	
-0.379028	
-0.379089	
-0.37915	
-0.379456	
-0.380005	
-0.380432	
-0.381592	
-0.380737	
-0.382446	
-0.381348	
-0.381592	
-0.380859	
-0.382324	
-0.382629	
-0.38269	
-0.383118	
-0.383606	
-0.382935	
-0.384583	
-0.383545	
-0.383484	
-0.382385	
-0.382507	
-0.384277	
-0.383728	
-0.38385	
-0.384949	
-0.384216	
-0.384766	
-0.383301	
-0.383728	
-0.38385	
-0.384155	
-0.384705	
-0.384583	
-0.385315	
-0.385559	
-0.385498	
-0.384827	
-0.38385	
-0.38446	
-0.384521	
-0.385193	
-0.385498	
-0.385254	
-0.386597	
-0.385986	
-0.385803	
-0.384033	
-0.384705	
-0.384094	
-0.384277	
-0.384888	
-0.384277	
-0.383728	
-0.384583	
-0.384094	
-0.384155	
-0.382751	
-0.383057	
-0.38208	
-0.382751	
-0.382874	
-0.382874	
-0.383667	
-0.384216	
-0.38385	
-0.384521	
-0.383911	
-0.383484	
-0.382019	
-0.382324	
-0.383484	
-0.383728	
-0.384155	
-0.384338	
-0.384338	
-0.385071	
-0.384949	
-0.384033	
-0.383362	
-0.384094	
-0.38385	
-0.384583	
-0.384705	
-0.384766	
-0.384277	
-0.385193	
-0.38446	
-0.384155	
-0.383301	
-0.384949	
-0.384827	
-0.38501	
-0.384949	
-0.385498	
-0.385315	
-0.385376	
-0.384216	
-0.385193	
-0.384338	
-0.385315	
-0.385681	
-0.385559	
-0.38678	
-0.386536	
-0.386963	
-0.38623	
-0.385559	
-0.384705	
-0.384033	
-0.38562	
-0.385803	
-0.385925	
-0.386292	
-0.385681	
-0.386292	
-0.386414	
-0.385071	
-0.384155	
-0.383606	
-0.384521	
-0.384338	
-0.384155	
-0.384338	
-0.384583	
-0.383545	
-0.38385	
-0.383362	
-0.383179	
-0.383667	
-0.383728	
-0.383362	
-0.383423	
-0.383423	
-0.383179	
-0.382446	
-0.382385	
-0.382446	
-0.38269	
-0.382385	
-0.382568	
-0.382202	
-0.38324	
-0.382813	
-0.383057	
-0.381592	
-0.382019	
-0.381653	
-0.381836	
-0.382324	
-0.382446	
-0.382935	
-0.383789	
-0.382996	
-0.383484	
-0.382263	
-0.382019	
-0.382874	
-0.382263	
-0.383179	
-0.383362	
-0.384338	
-0.384583	
-0.385376	
-0.384827	
-0.385742	
-0.384033	
-0.385132	
-0.383972	
-0.385437	
-0.385925	
-0.385925	
-0.386108	
-0.38678	
-0.385925	
-0.387695	
-0.385315	
-0.38562	
-0.385315	
-0.386414	
-0.386047	
-0.385681	
-0.38562	
-0.386719	
-0.385498	
-0.38678	
-0.384827	
-0.385376	
-0.384521	
-0.385193	
-0.38446	
-0.384338	
-0.384583	
-0.384949	
-0.38385	
-0.38501	
-0.382568	
-0.383301	
-0.382507	
-0.383789	
-0.383545	
-0.384277	
-0.384094	
-0.384583	
-0.383301	
-0.383789	
-0.383179	
-0.383728	
-0.382324	
-0.383118	
-0.383484	
-0.384888	
-0.38385	
-0.383423	
-0.382202	
-0.383728	
-0.383789	
-0.383301	
-0.382935	
-0.383423	
-0.383484	
-0.384033	
-0.383972	
-0.383545	
-0.38385	
-0.383789	
-0.383606	
-0.382629	
-0.383484	
-0.383728	
-0.383728	
-0.384155	
-0.384705	
-0.383911	
-0.384338	
-0.382629	
-0.382996	
-0.383179	
-0.383911	
-0.383606	
-0.38385	
-0.383545	
-0.385071	
-0.383362	
-0.38446	
-0.381592	
-0.38324	
-0.381897	
-0.383484	
-0.383972	
-0.384216	
-0.383911	
-0.38501	
-0.382751	
-0.384033	
-0.382751	
-0.38269	
-0.381165	
-0.382202	
-0.382446	
-0.384033	
-0.38324	
-0.383362	
-0.381836	
-0.383484	
-0.382629	
-0.383606	
-0.382935	
-0.382874	
-0.383545	
-0.384033	
-0.383667	
-0.383057	
-0.382813	
-0.38385	
-0.383057	
-0.383057	
-0.381653	
-0.382874	
-0.383057	
-0.383545	
-0.383484	
-0.381958	
-0.382751	
-0.382568	
-0.382446	
-0.381775	
-0.381226	
-0.382446	
-0.382507	
-0.382385	
-0.383118	
-0.382019	
-0.382568	
-0.381958	
-0.382202	
-0.38208	
-0.381592	
-0.382324	
-0.38324	
-0.38269	
-0.383484	
-0.382629	
-0.383057	
-0.382202	
-0.383423	
-0.382324	
-0.383118	
-0.383362	
-0.384155	
-0.383484	
-0.385132	
-0.382813	
-0.384644	
-0.382263	
-0.383789	
-0.383606	
-0.384583	
-0.384094	
-0.385254	
-0.384949	
-0.386963	
-0.38562	
-0.386597	
-0.384766	
-0.385864	
-0.38446	
-0.386108	
-0.386597	
-0.386658	
-0.38623	
-0.387878	
-0.385986	
-0.386841	
-0.385925	
-0.385925	
-0.384644	
-0.385437	
-0.385437	
-0.384827	
-0.384949	
-0.384338	
-0.383545	
-0.38385	
-0.382996	
-0.383118	
-0.381348	
-0.382141	
-0.382874	
-0.382385	
-0.382629	
-0.381836	
-0.381897	
-0.382141	
-0.38147	
-0.381775	
-0.381042	
-0.381409	
-0.38147	
-0.381348	
-0.381653	
-0.380676	
-0.381287	
-0.380859	
-0.381287	
-0.380493	
-0.38031	
-0.38092	
-0.380981	
-0.380615	
-0.381714	
-0.379761	
-0.380737	
-0.380188	
-0.380737	
-0.38031	
-0.38031	
-0.380615	
-0.381287	
-0.380493	
-0.381836	
-0.379761	
-0.381653	
-0.380676	
-0.381409	
-0.381042	
-0.381042	
-0.381836	
-0.383118	
-0.382385	
-0.383179	
-0.381897	
-0.383118	
-0.383118	
-0.38269	
-0.381836	
-0.381348	
-0.382324	
-0.383606	
-0.382629	
-0.383301	
-0.381653	
-0.38324	
-0.382568	
-0.382141	
-0.381226	
-0.380798	
-0.382263	
-0.382751	
-0.38208	
-0.38208	
-0.38147	
-0.382324	
-0.381287	
-0.381165	
-0.381226	
-0.381775	
-0.381653	
-0.381836	
-0.382141	
-0.381958	
-0.381348	
-0.381897	
-0.381287	
-0.381165	
-0.381348	
-0.381409	
-0.381531	
-0.381165	
-0.381653	
-0.38092	
-0.380798	
-0.380066	
-0.380554	
-0.380676	
-0.380432	
-0.380676	
-0.380188	
-0.380127	
-0.381348	
-0.380493	
-0.380615	
-0.379089	
-0.380432	
-0.380554	
-0.379395	
-0.380554	
-0.381226	
-0.381226	
-0.381775	
-0.380676	
-0.381775	
-0.381104	
-0.381531	
-0.381409	
-0.381409	
-0.382324	
-0.382629	
-0.382813	
-0.38269	
-0.381836	
-0.382996	
-0.38324	
-0.382751	
-0.38208	
-0.382019	
-0.38324	
-0.384033	
-0.383728	
-0.384583	
-0.383179	
-0.383789	
-0.383057	
-0.38385	
-0.383118	
-0.383301	
-0.383606	
-0.384766	
-0.384399	
-0.385193	
-0.38385	
-0.384338	
-0.383484	
-0.383728	
-0.382568	
-0.383545	
-0.383606	
-0.384155	
-0.38385	
-0.384094	
-0.383301	
-0.383789	
-0.383118	
-0.382996	
-0.381531	
-0.382141	
-0.381958	
-0.38208	
-0.38147	
-0.380981	
-0.380676	
-0.381226	
-0.380493	
-0.380188	
-0.3797	
-0.379761	
-0.380554	
-0.38031	
-0.380554	
-0.379944	
-0.379944	
-0.379883	
-0.379822	
-0.379456	
-0.379578	
-0.380249	
-0.380371	
-0.380371	
-0.381348	
-0.380249	
-0.381104	
-0.380554	
-0.381226	
-0.381348	
-0.380981	
-0.381958	
-0.381531	
-0.382019	
-0.382568	
-0.381958	
-0.382446	
-0.381409	
-0.382568	
-0.382263	
-0.381836	
-0.382874	
-0.38269	
-0.382507	
-0.383484	
-0.382385	
-0.382935	
-0.382385	
-0.382629	
-0.382568	
-0.381775	
-0.382019	
-0.382935	
-0.383362	
-0.383545	
-0.382568	
-0.38269	
-0.382751	
-0.382874	
-0.382141	
-0.38269	
-0.38269	
-0.38324	
-0.383118	
-0.383179	
-0.382385	
-0.383972	
-0.383179	
-0.38269	
-0.381592	
-0.382385	
-0.38269	
-0.382751	
-0.382507	
-0.383484	
-0.382507	
-0.38324	
-0.382385	
-0.381958	
-0.382446	
-0.382813	
-0.382813	
-0.383423	
-0.38324	
-0.383789	
-0.382385	
-0.383301	
-0.382324	
-0.383484	
-0.382751	
-0.382935	
-0.383423	
-0.383972	
-0.384033	
-0.384766	
-0.382751	
-0.383728	
-0.38269	
-0.383789	
-0.383911	
-0.383728	
-0.38385	
-0.384521	
-0.384521	
-0.384399	
-0.382629	
-0.382385	
-0.382996	
-0.383179	
-0.383057	
-0.383667	
-0.383362	
-0.384155	
-0.384399	
-0.384094	
-0.383789	
-0.383606	
-0.38385	
-0.382874	
-0.383545	
-0.383911	
-0.383728	
-0.384644	
-0.384827	
-0.384827	
-0.384705	
-0.384216	
-0.384338	
-0.382874	
-0.38385	
-0.384216	
-0.384705	
-0.384766	
-0.384338	
-0.384094	
-0.384766	
-0.38501	
-0.384033	
-0.382507	
-0.383484	
-0.383728	
-0.383545	
-0.383972	
-0.383667	
-0.383301	
-0.383728	
-0.384033	
-0.382629	
-0.383362	
-0.38208	
-0.382446	
-0.383301	
-0.382507	
-0.382507	
-0.382446	
-0.382263	
-0.382813	
-0.381958	
-0.381836	
-0.381775	
-0.381531	
-0.381104	
-0.381042	
-0.380493	
-0.380127	
-0.380493	
-0.380127	
-0.379822	
-0.380493	
-0.380005	
-0.380127	
-0.380432	
-0.380249	
-0.380554	
-0.380615	
-0.380432	
-0.380188	
-0.38031	
-0.380981	
-0.381653	
-0.382263	
-0.38269	
-0.383423	
-0.383362	
-0.383423	
-0.382935	
-0.382874	
-0.382507	
-0.383545	
-0.383911	
-0.384155	
-0.384644	
-0.385376	
-0.385193	
-0.384155	
-0.383423	
-0.383423	
-0.383911	
-0.384888	
-0.384705	
-0.384827	
-0.385925	
-0.385437	
-0.385864	
-0.384644	
-0.384216	
-0.384277	
-0.38501	
-0.385376	
-0.385315	
-0.385437	
-0.386536	
-0.386292	
-0.386353	
-0.384827	
-0.385193	
-0.385254	
-0.385864	
-0.385559	
-0.386047	
-0.386353	
-0.386536	
-0.386169	
-0.38623	
-0.384338	
-0.38446	
-0.384277	
-0.384216	
-0.383179	
-0.384155	
-0.383911	
-0.384155	
-0.38446	
-0.383789	
-0.382996	
-0.383484	
-0.384155	
-0.383911	
-0.382874	
-0.384277	
-0.384399	
-0.384705	
-0.384644	
-0.383789	
-0.384338	
-0.384094	
-0.383972	
-0.384338	
-0.383606	
-0.385071	
-0.384888	
-0.38501	
-0.385254	
-0.384705	
-0.384827	
-0.384888	
-0.384583	
-0.384766	
-0.383728	
-0.384827	
-0.385254	
-0.385376	
-0.385132	
-0.384949	
-0.384827	
-0.385315	
-0.384827	
-0.384644	
-0.384583	
-0.385193	
-0.385803	
-0.385803	
-0.386047	
-0.385559	
-0.385681	
-0.386414	
-0.386169	
-0.385986	
-0.385864	
-0.386108	
-0.386292	
-0.386597	
-0.386536	
-0.385986	
-0.386108	
-0.385681	
-0.385254	
-0.38501	
-0.385376	
-0.385498	
-0.385742	
-0.384888	
-0.385681	
-0.384766	
-0.38446	
-0.383179	
-0.384094	
-0.384033	
-0.383606	
-0.384033	
-0.384216	
-0.383789	
-0.384827	
-0.383362	
-0.383362	
-0.382446	
-0.38324	
-0.382874	
-0.382935	
-0.382813	
-0.383057	
-0.383057	
-0.383362	
-0.382507	
-0.382446	
-0.382202	
-0.382568	
-0.381897	
-0.381958	
-0.381958	
-0.382324	
-0.382813	
-0.383118	
-0.382446	
-0.382019	
-0.382751	
-0.382141	
-0.382324	
-0.382874	
-0.382996	
-0.383545	
-0.383545	
-0.382813	
-0.383606	
-0.383423	
-0.384338	
-0.384094	
-0.384827	
-0.384949	
-0.385071	
-0.385559	
	
