C:\DOCUMENTS AND SETTINGS\JASON\DESKTOP\UFRJ\UFRJ EPHYS\RSCI-BM 12 WK SERIES\070806-RSCI-BM-16\RSCI-BM-16-LEMG\070806-RSCI-BM-16-LEMG-0021.ACQ
0.025000 msec/sample
1 channel
Analog input
Volts
CH1	
2000	
-0.384705	
-0.38501	
-0.385376	
-0.386047	
-0.385254	
-0.384705	
-0.384155	
-0.385254	
-0.385437	
-0.384216	
-0.383789	
-0.383057	
-0.384216	
-0.385071	
-0.384399	
-0.383789	
-0.383606	
-0.383789	
-0.384094	
-0.383423	
-0.383057	
-0.382385	
-0.383362	
-0.384094	
-0.383789	
-0.382629	
-0.382629	
-0.382446	
-0.382996	
-0.381042	
-0.380554	
-0.380493	
-0.381287	
-0.381775	
-0.381897	
-0.380798	
-0.381409	
-0.380371	
-0.381348	
-0.379333	
-0.3797	
-0.380188	
-0.38031	
-0.381104	
-0.381775	
-0.380859	
-0.381775	
-0.380615	
-0.381958	
-0.379883	
-0.380432	
-0.380737	
-0.381653	
-0.381897	
-0.382446	
-0.382263	
-0.382996	
-0.382629	
-0.38324	
-0.381592	
-0.382507	
-0.382996	
-0.383972	
-0.383972	
-0.384338	
-0.38385	
-0.384949	
-0.385132	
-0.384705	
-0.383484	
-0.38385	
-0.384399	
-0.38501	
-0.385376	
-0.385803	
-0.385193	
-0.386475	
-0.38678	
-0.386292	
-0.385254	
-0.384705	
-0.386108	
-0.386108	
-0.387207	
-0.386414	
-0.386414	
-0.38678	
-0.387329	
-0.387024	
-0.385376	
-0.385437	
-0.386658	
-0.386902	
-0.387695	
-0.386841	
-0.386963	
-0.387207	
-0.387695	
-0.388	
-0.385437	
-0.38678	
-0.38623	
-0.38739	
-0.38739	
-0.38623	
-0.386353	
-0.386902	
-0.38678	
-0.386902	
-0.384583	
-0.385742	
-0.385193	
-0.385498	
-0.385986	
-0.384949	
-0.384949	
-0.384766	
-0.385132	
-0.385071	
-0.38324	
-0.38446	
-0.383667	
-0.384216	
-0.385376	
-0.384521	
-0.384338	
-0.383057	
-0.383911	
-0.384094	
-0.382446	
-0.383118	
-0.382874	
-0.383362	
-0.384949	
-0.383423	
-0.38269	
-0.38269	
-0.382263	
-0.382996	
-0.381836	
-0.382202	
-0.380859	
-0.381958	
-0.383362	
-0.382141	
-0.382263	
-0.382751	
-0.382019	
-0.382568	
-0.381104	
-0.381409	
-0.380798	
-0.381653	
-0.381897	
-0.381104	
-0.381104	
-0.382141	
-0.381592	
-0.382385	
-0.38147	
-0.382019	
-0.380798	
-0.382324	
-0.381958	
-0.38147	
-0.381653	
-0.382019	
-0.381653	
-0.382202	
-0.38092	
-0.381775	
-0.380188	
-0.381592	
-0.381409	
-0.382141	
-0.38147	
-0.383118	
-0.382324	
-0.382385	
-0.380859	
-0.382507	
-0.381836	
-0.383179	
-0.382751	
-0.382629	
-0.382385	
-0.383667	
-0.382507	
-0.383362	
-0.382324	
-0.383057	
-0.382629	
-0.384277	
-0.383606	
-0.383057	
-0.382019	
-0.384216	
-0.368347	
-0.383484	
-0.384216	
-0.384094	
-0.382874	
-0.38446	
-0.384094	
-0.383362	
-0.383057	
-0.384399	
-0.383911	
-0.383972	
-0.382507	
-0.384033	
-0.382996	
-0.384827	
-0.384521	
-0.384155	
-0.384277	
-0.385193	
-0.384521	
-0.384949	
-0.382996	
-0.383545	
-0.383423	
-0.385376	
-0.384216	
-0.384033	
-0.384033	
-0.385742	
-0.384827	
-0.385254	
-0.384338	
-0.385254	
-0.385254	
-0.386536	
-0.386108	
-0.386169	
-0.385925	
-0.387024	
-0.386169	
-0.386169	
-0.384827	
-0.385986	
-0.385376	
-0.387024	
-0.38623	
-0.386108	
-0.385681	
-0.38739	
-0.38678	
-0.387268	
-0.387451	
-0.389099	
-0.390564	
-0.394531	
-0.396362	
-0.39917	
-0.403748	
-0.407532	
-0.411011	
-0.415466	
-0.420349	
-0.425049	
-0.430725	
-0.437622	
-0.443298	
-0.449524	
-0.457092	
-0.462463	
-0.468506	
-0.4729	
-0.476868	
-0.479553	
-0.483032	
-0.483704	
-0.485046	
-0.48584	
-0.488464	
-0.488525	
-0.488892	
-0.487915	
-0.488831	
-0.488037	
-0.488525	
-0.486938	
-0.485901	
-0.48584	
-0.484924	
-0.483826	
-0.482849	
-0.482117	
-0.483337	
-0.484131	
-0.48468	
-0.48468	
-0.485657	
-0.487366	
-0.48877	
-0.489319	
-0.490479	
-0.492676	
-0.494324	
-0.495728	
-0.498535	
-0.498901	
-0.499207	
-0.499268	
-0.499573	
-0.499756	
-0.498657	
-0.498413	
-0.49707	
-0.49707	
-0.496155	
-0.494507	
-0.493713	
-0.493347	
-0.493164	
-0.492615	
-0.492004	
-0.492004	
-0.491394	
-0.491943	
-0.490967	
-0.489807	
-0.488708	
-0.488953	
-0.488647	
-0.487793	
-0.485962	
-0.484558	
-0.482117	
-0.481689	
-0.477539	
-0.474731	
-0.470398	
-0.468018	
-0.463379	
-0.45929	
-0.454407	
-0.448669	
-0.44281	
-0.438782	
-0.431152	
-0.423584	
-0.414795	
-0.407776	
-0.39856	
-0.388672	
-0.377075	
-0.366455	
-0.355591	
-0.345764	
-0.333008	
-0.321777	
-0.30896	
-0.298096	
-0.286743	
-0.276855	
-0.267578	
-0.260132	
-0.253052	
-0.248901	
-0.244507	
-0.240967	
-0.238281	
-0.237732	
-0.236755	
-0.237793	
-0.237244	
-0.238892	
-0.239807	
-0.24353	
-0.246338	
-0.249817	
-0.254578	
-0.258972	
-0.262939	
-0.266663	
-0.27002	
-0.275391	
-0.280579	
-0.284973	
-0.288513	
-0.292542	
-0.297729	
-0.301025	
-0.305054	
-0.307434	
-0.310974	
-0.313721	
-0.317444	
-0.319519	
-0.321838	
-0.325439	
-0.328125	
-0.330017	
-0.331787	
-0.33374	
-0.335815	
-0.338867	
-0.340027	
-0.341003	
-0.342407	
-0.34436	
-0.345459	
-0.346008	
-0.346802	
-0.347473	
-0.348999	
-0.350098	
-0.350403	
-0.350281	
-0.350952	
-0.352661	
-0.352417	
-0.352173	
-0.352051	
-0.352661	
-0.354431	
-0.354126	
-0.353821	
-0.353638	
-0.354858	
-0.354797	
-0.355225	
-0.355103	
-0.355469	
-0.355957	
-0.356018	
-0.356201	
-0.35614	
-0.356873	
-0.357483	
-0.357605	
-0.357056	
-0.356384	
-0.35675	
-0.358704	
-0.359009	
-0.358398	
-0.35791	
-0.358582	
-0.359436	
-0.359131	
-0.359436	
-0.359497	
-0.359985	
-0.360352	
-0.360535	
-0.360779	
-0.361694	
-0.361145	
-0.360718	
-0.360535	
-0.361572	
-0.361206	
-0.362061	
-0.362366	
-0.362	
-0.361816	
-0.361938	
-0.362854	
-0.362976	
-0.362427	
-0.362122	
-0.362244	
-0.363831	
-0.363037	
-0.363159	
-0.362427	
-0.364746	
-0.364929	
-0.364929	
-0.364502	
-0.363586	
-0.363831	
-0.365601	
-0.36499	
-0.364868	
-0.364014	
-0.365356	
-0.365723	
-0.365417	
-0.365601	
-0.365601	
-0.366394	
-0.366455	
-0.366943	
-0.366211	
-0.367554	
-0.366577	
-0.367371	
-0.365845	
-0.366699	
-0.366638	
-0.368896	
-0.367859	
-0.367371	
-0.366638	
-0.36853	
-0.369507	
-0.368835	
-0.369019	
-0.368591	
-0.369507	
-0.369934	
-0.370239	
-0.369507	
-0.370911	
-0.370239	
-0.370667	
-0.369141	
-0.369934	
-0.36969	
-0.37085	
-0.369141	
-0.36969	
-0.369202	
-0.370667	
-0.370239	
-0.370911	
-0.370178	
-0.370056	
-0.370544	
-0.3703	
-0.370422	
-0.369812	
-0.370972	
-0.371033	
-0.371948	
-0.370667	
-0.370728	
-0.369995	
-0.371826	
-0.371277	
-0.371033	
-0.370972	
-0.372681	
-0.37146	
-0.372192	
-0.371155	
-0.371643	
-0.371643	
-0.372742	
-0.371643	
-0.37146	
-0.370728	
-0.37146	
-0.371643	
-0.37262	
-0.371887	
-0.371887	
-0.372498	
-0.373474	
-0.372192	
-0.370972	
-0.371338	
-0.372192	
-0.373047	
-0.37262	
-0.372314	
-0.371582	
-0.372437	
-0.373291	
-0.372375	
-0.371887	
-0.371704	
-0.372559	
-0.372681	
-0.371033	
-0.372437	
-0.372131	
-0.372314	
-0.372986	
-0.371765	
-0.372192	
-0.371948	
-0.37207	
-0.372681	
-0.371155	
-0.37207	
-0.371094	
-0.372009	
-0.37384	
-0.37262	
-0.373657	
-0.373413	
-0.374268	
-0.375488	
-0.374512	
-0.374634	
-0.374207	
-0.375061	
-0.375183	
-0.374939	
-0.376404	
-0.375793	
-0.376526	
-0.37616	
-0.376709	
-0.376221	
-0.376831	
-0.377747	
-0.376648	
-0.377319	
-0.377869	
-0.377502	
-0.37854	
-0.378052	
-0.378662	
-0.378113	
-0.378418	
-0.378967	
-0.378357	
-0.379089	
-0.378174	
-0.379456	
-0.380554	
-0.379211	
-0.379333	
-0.378357	
-0.380005	
-0.38031	
-0.379883	
-0.380432	
-0.379211	
-0.380615	
-0.379456	
-0.380127	
-0.379395	
-0.379944	
-0.3797	
-0.379578	
-0.379822	
-0.379272	
-0.379517	
-0.380371	
-0.379395	
-0.379456	
-0.378601	
-0.380188	
-0.380066	
-0.379089	
-0.380676	
-0.380188	
-0.380554	
-0.379944	
-0.380188	
-0.380066	
-0.381104	
-0.380676	
-0.381592	
-0.381409	
-0.381897	
-0.380493	
-0.381836	
-0.381165	
-0.381226	
-0.380981	
-0.381653	
-0.381226	
-0.381958	
-0.381531	
-0.380798	
-0.380981	
-0.381775	
-0.380737	
-0.380188	
-0.379456	
-0.380737	
-0.38092	
-0.379517	
-0.380493	
-0.380981	
-0.380737	
-0.380493	
-0.380432	
-0.379944	
-0.380371	
-0.379761	
-0.380249	
-0.3797	
-0.380249	
-0.379517	
-0.379761	
-0.378906	
-0.379944	
-0.37915	
-0.379761	
-0.379028	
-0.379456	
-0.37915	
-0.379578	
-0.378296	
-0.379456	
-0.377502	
-0.377563	
-0.377258	
-0.377747	
-0.377502	
-0.377869	
-0.376953	
-0.377686	
-0.375977	
-0.378174	
-0.376953	
-0.37677	
-0.376526	
-0.376404	
-0.376892	
-0.377319	
-0.377563	
-0.377197	
-0.376221	
-0.378357	
-0.377075	
-0.377014	
-0.376465	
-0.377502	
-0.37738	
-0.378418	
-0.378967	
-0.378601	
-0.379089	
-0.378967	
-0.379028	
-0.379211	
-0.379272	
-0.379822	
-0.380432	
-0.380615	
-0.380615	
-0.380493	
-0.38147	
-0.380554	
-0.381226	
-0.381165	
-0.381165	
-0.381287	
-0.381348	
-0.382202	
-0.382629	
-0.381592	
-0.383972	
-0.381714	
-0.382446	
-0.382629	
-0.383057	
-0.383118	
-0.384033	
-0.383179	
-0.38385	
-0.382935	
-0.38446	
-0.383423	
-0.383728	
-0.383057	
-0.384277	
-0.384277	
-0.383911	
-0.384277	
-0.384216	
-0.385132	
-0.383972	
-0.384277	
-0.383545	
-0.383972	
-0.383667	
-0.383606	
-0.384155	
-0.384216	
-0.383606	
-0.385315	
-0.383423	
-0.384216	
-0.383423	
-0.383728	
-0.383667	
-0.382996	
-0.382874	
-0.383179	
-0.382813	
-0.383667	
-0.38208	
-0.382141	
-0.381409	
-0.38208	
-0.381836	
-0.38269	
-0.382263	
-0.382568	
-0.381165	
-0.381775	
-0.380249	
-0.381042	
-0.381287	
-0.381348	
-0.38147	
-0.382202	
-0.381165	
-0.381653	
-0.38031	
-0.380676	
-0.380066	
-0.380493	
-0.38031	
-0.380249	
-0.379822	
-0.380737	
-0.38031	
-0.380432	
-0.38092	
-0.380249	
-0.379639	
-0.379211	
-0.379883	
-0.379456	
-0.378601	
-0.379395	
-0.379089	
-0.379211	
-0.380859	
-0.379089	
-0.379333	
-0.378601	
-0.379333	
-0.37915	
-0.3797	
-0.379272	
-0.379822	
-0.379456	
-0.380859	
-0.379211	
-0.379578	
-0.378906	
-0.379395	
-0.37915	
-0.379395	
-0.379395	
-0.380127	
-0.379883	
-0.38031	
-0.378906	
-0.379456	
-0.379578	
-0.380188	
-0.380554	
-0.381165	
-0.380798	
-0.381775	
-0.380371	
-0.381165	
-0.380371	
-0.380981	
-0.380859	
-0.381531	
-0.381042	
-0.38208	
-0.381042	
-0.382019	
-0.381409	
-0.381104	
-0.381226	
-0.381409	
-0.381531	
-0.381775	
-0.381348	
-0.382141	
-0.381348	
-0.381897	
-0.382141	
-0.381226	
-0.381958	
-0.382202	
-0.381714	
-0.381775	
-0.382263	
-0.382385	
-0.382751	
-0.382446	
-0.382874	
-0.38208	
-0.382935	
-0.382263	
-0.383118	
-0.382568	
-0.38269	
-0.382629	
-0.383423	
-0.383423	
-0.383301	
-0.382568	
-0.382935	
-0.382507	
-0.383057	
-0.382935	
-0.38446	
-0.383545	
-0.384155	
-0.384033	
-0.384644	
-0.382996	
-0.383545	
-0.383423	
-0.384583	
-0.383789	
-0.38562	
-0.384216	
-0.38562	
-0.38501	
-0.385864	
-0.383789	
-0.384827	
-0.384033	
-0.385193	
-0.384949	
-0.385071	
-0.38446	
-0.384888	
-0.383728	
-0.38446	
-0.383301	
-0.383972	
-0.382019	
-0.382996	
-0.381653	
-0.382385	
-0.382507	
-0.383179	
-0.382019	
-0.382141	
-0.381409	
-0.382385	
-0.381836	
-0.381592	
-0.381226	
-0.381104	
-0.381348	
-0.381287	
-0.381226	
-0.380981	
-0.379822	
-0.381226	
-0.380127	
-0.380554	
-0.380493	
-0.380615	
-0.380432	
-0.379822	
-0.380432	
-0.379578	
-0.380676	
-0.38031	
-0.38031	
-0.379883	
-0.380981	
-0.380066	
-0.380127	
-0.378967	
-0.379822	
-0.379517	
-0.380371	
-0.379944	
-0.380432	
-0.380493	
-0.38092	
-0.38092	
-0.381592	
-0.381042	
-0.381653	
-0.379517	
-0.38092	
-0.379639	
-0.380737	
-0.380859	
-0.380981	
-0.381165	
-0.382385	
-0.38092	
-0.38147	
-0.379578	
-0.38092	
-0.380249	
-0.380432	
-0.380554	
-0.380188	
-0.380066	
-0.38147	
-0.379822	
-0.379822	
-0.380188	
-0.379822	
-0.380066	
-0.379883	
-0.380676	
-0.380737	
-0.380676	
-0.380066	
-0.380859	
-0.38031	
-0.381409	
-0.382019	
-0.381165	
-0.381165	
-0.381348	
-0.381653	
-0.38208	
-0.380127	
-0.381958	
-0.38147	
-0.38208	
-0.382568	
-0.382263	
-0.38208	
-0.381775	
-0.382324	
-0.383667	
-0.382507	
-0.383789	
-0.382629	
-0.383179	
-0.382751	
-0.383728	
-0.383972	
-0.383728	
-0.384033	
-0.385437	
-0.383972	
-0.385193	
-0.382385	
-0.385498	
-0.38446	
-0.385315	
-0.385742	
-0.38562	
-0.385986	
-0.387268	
-0.386414	
-0.386719	
-0.385376	
-0.386353	
-0.386292	
-0.386353	
-0.385864	
-0.385742	
-0.38623	
-0.386841	
-0.386536	
-0.385742	
-0.385925	
-0.385925	
-0.385437	
-0.385437	
-0.385193	
-0.385376	
-0.385071	
-0.384521	
-0.384644	
-0.383911	
-0.38446	
-0.383972	
-0.383789	
-0.383728	
-0.383362	
-0.383057	
-0.383179	
-0.38208	
-0.382507	
-0.381836	
-0.383118	
-0.382874	
-0.381958	
-0.382141	
-0.38269	
-0.381592	
-0.382019	
-0.380127	
-0.381348	
-0.380981	
-0.381409	
-0.381042	
-0.380859	
-0.380554	
-0.381104	
-0.380432	
-0.381165	
-0.380249	
-0.380737	
-0.378845	
-0.379944	
-0.379456	
-0.379944	
-0.379883	
-0.38031	
-0.379944	
-0.380798	
-0.379883	
-0.38092	
-0.379761	
-0.379944	
-0.378662	
-0.379883	
-0.380737	
-0.380066	
-0.380127	
-0.380798	
-0.380371	
-0.381409	
-0.380066	
-0.381165	
-0.38092	
-0.381592	
-0.381592	
-0.381897	
-0.382141	
-0.38208	
-0.382019	
-0.381714	
-0.381531	
-0.383057	
-0.382324	
-0.382324	
-0.38208	
-0.382629	
-0.383423	
-0.382996	
-0.382935	
-0.382385	
-0.38208	
-0.38385	
-0.383423	
-0.383362	
-0.383301	
-0.383667	
-0.38446	
-0.383667	
-0.384277	
-0.383057	
-0.383606	
-0.384521	
-0.384277	
-0.384583	
-0.38446	
-0.384277	
-0.385498	
-0.385498	
-0.385315	
-0.383911	
-0.385193	
-0.385071	
-0.385315	
-0.385437	
-0.38562	
-0.385681	
-0.385803	
-0.38562	
-0.385437	
-0.385559	
-0.385315	
-0.384583	
-0.385498	
-0.385315	
-0.385864	
-0.385193	
-0.385376	
-0.38562	
-0.386353	
-0.385132	
-0.385498	
-0.384888	
-0.385742	
-0.385437	
-0.386047	
-0.385803	
-0.386169	
-0.385437	
-0.385315	
-0.385315	
-0.384827	
-0.385193	
-0.384399	
-0.384216	
-0.384888	
-0.384583	
-0.384827	
-0.384277	
-0.384033	
-0.383423	
-0.384216	
-0.384094	
-0.383606	
-0.383606	
-0.383728	
-0.383972	
-0.384216	
-0.383789	
-0.382996	
-0.382446	
-0.384155	
-0.38324	
-0.383301	
-0.382568	
-0.383606	
-0.384216	
-0.383911	
-0.38385	
-0.381958	
-0.38208	
-0.383972	
-0.382935	
-0.383057	
-0.382446	
-0.382751	
-0.38385	
-0.383301	
-0.383179	
-0.381042	
-0.38269	
-0.381958	
-0.382141	
-0.382263	
-0.382813	
-0.382751	
-0.383118	
-0.382385	
-0.383179	
-0.381836	
-0.381897	
-0.380737	
-0.381958	
-0.38147	
-0.382202	
-0.381653	
-0.381958	
-0.381042	
-0.381958	
-0.381592	
-0.381531	
-0.381409	
-0.381226	
-0.380676	
-0.38147	
-0.381165	
-0.380981	
-0.379395	
-0.380066	
-0.380371	
-0.380005	
-0.38031	
-0.38031	
-0.379822	
-0.381897	
-0.382019	
-0.381592	
-0.381531	
-0.381714	
-0.381897	
-0.382629	
-0.382507	
-0.382629	
-0.381775	
-0.383606	
-0.383179	
-0.383972	
-0.38385	
-0.383301	
-0.38269	
-0.383362	
-0.383667	
-0.383789	
-0.384277	
-0.384399	
-0.384521	
-0.385315	
-0.384888	
-0.384338	
-0.382996	
-0.383545	
-0.384705	
-0.384705	
-0.385437	
-0.385376	
-0.385376	
-0.385437	
-0.385742	
-0.384766	
-0.38501	
-0.384705	
-0.385071	
-0.385315	
-0.385376	
-0.385498	
-0.386414	
-0.385925	
-0.385559	
-0.383972	
-0.385193	
-0.384216	
-0.384521	
-0.384033	
-0.384705	
-0.384644	
-0.385437	
-0.385071	
-0.384949	
-0.383362	
-0.385559	
-0.384827	
-0.385254	
-0.383728	
-0.38501	
-0.384888	
-0.386108	
-0.38501	
-0.384888	
-0.384094	
-0.385498	
-0.385498	
-0.385193	
-0.385071	
-0.385681	
-0.385742	
-0.386597	
-0.386047	
-0.385803	
-0.385315	
-0.385437	
-0.385254	
-0.385315	
-0.384949	
-0.385254	
-0.384949	
-0.385803	
-0.384399	
-0.384338	
-0.384155	
-0.384338	
-0.384155	
-0.383972	
-0.384766	
-0.384521	
-0.384094	
-0.385071	
-0.383667	
-0.38324	
-0.383362	
-0.38324	
-0.383606	
-0.382568	
-0.38324	
-0.383545	
-0.382935	
-0.38385	
-0.382629	
-0.382446	
-0.382324	
-0.38147	
-0.382385	
-0.381042	
-0.381775	
-0.382568	
-0.381897	
-0.382019	
-0.381165	
-0.380737	
-0.380859	
-0.3797	
-0.380249	
-0.380371	
-0.380371	
-0.380676	
-0.38031	
-0.380188	
-0.379639	
-0.379944	
-0.380005	
-0.38031	
-0.379944	
-0.3797	
-0.380005	
-0.381226	
-0.380249	
-0.379639	
-0.380249	
-0.379639	
-0.380371	
-0.38092	
-0.380798	
-0.380493	
-0.381042	
-0.381836	
-0.381531	
-0.381714	
-0.381531	
-0.381958	
-0.382263	
-0.38269	
-0.38269	
-0.382996	
-0.38324	
-0.383484	
-0.383972	
-0.383728	
-0.383301	
-0.383789	
-0.384094	
-0.384033	
-0.382996	
-0.38446	
-0.384888	
-0.384521	
-0.385925	
-0.385376	
-0.385437	
-0.384705	
-0.384705	
-0.385254	
-0.384583	
-0.38562	
-0.385986	
-0.385742	
-0.386597	
-0.38623	
-0.386108	
-0.385376	
-0.384766	
-0.386414	
-0.385986	
-0.386475	
-0.386414	
-0.386353	
-0.386963	
-0.38678	
-0.38623	
-0.385925	
-0.385254	
-0.385681	
-0.385681	
-0.385986	
-0.386047	
-0.385986	
-0.386597	
-0.386414	
-0.385254	
-0.383972	
-0.384583	
-0.384644	
-0.384521	
-0.384399	
-0.384766	
-0.384155	
-0.384277	
-0.383911	
-0.383423	
-0.383118	
-0.38324	
-0.383362	
-0.383606	
-0.383362	
-0.38385	
-0.383118	
-0.383484	
-0.38269	
-0.382935	
-0.382202	
-0.382568	
-0.382629	
-0.382324	
-0.382385	
-0.382629	
-0.382263	
-0.38269	
-0.38147	
-0.381348	
-0.381531	
-0.381348	
-0.381226	
-0.381592	
-0.381348	
-0.381531	
-0.382019	
-0.381287	
-0.379822	
-0.380188	
-0.380371	
-0.380798	
-0.380005	
-0.380737	
-0.380615	
-0.381165	
-0.382141	
-0.381165	
-0.379944	
-0.380249	
-0.380432	
-0.381042	
-0.380798	
-0.381165	
-0.381348	
-0.382019	
-0.382141	
-0.380859	
-0.380676	
-0.380737	
-0.381042	
-0.380798	
-0.380859	
-0.381226	
-0.380737	
-0.381775	
-0.381897	
-0.381775	
-0.381592	
-0.380676	
-0.381531	
-0.381287	
-0.381287	
-0.381653	
-0.382446	
-0.382446	
-0.383057	
-0.382874	
-0.382568	
-0.381104	
-0.382019	
-0.382446	
-0.382568	
-0.382446	
-0.383118	
-0.383179	
-0.38324	
-0.383423	
-0.38269	
-0.381531	
-0.382019	
-0.381714	
-0.382507	
-0.383057	
-0.383789	
-0.383667	
-0.383606	
-0.383545	
-0.383301	
-0.382446	
-0.382019	
-0.382202	
-0.383423	
-0.383972	
-0.384338	
-0.384583	
-0.384399	
-0.384216	
-0.383789	
-0.382568	
-0.38324	
-0.384094	
-0.383972	
-0.383667	
-0.384766	
-0.384888	
-0.385193	
-0.383911	
-0.384033	
-0.382935	
-0.384033	
-0.384583	
-0.384644	
-0.384644	
-0.385742	
-0.38562	
-0.386292	
-0.384705	
-0.38562	
-0.384155	
-0.385132	
-0.386108	
-0.38562	
-0.386169	
-0.386658	
-0.386292	
-0.38678	
-0.386169	
-0.385925	
-0.385132	
-0.385437	
-0.384949	
-0.385071	
-0.38501	
-0.384399	
-0.384338	
-0.384644	
-0.383728	
-0.383057	
-0.383484	
-0.382874	
-0.382874	
-0.383179	
-0.383118	
-0.383301	
-0.383057	
-0.382568	
-0.38269	
-0.382446	
-0.382385	
-0.381592	
-0.382324	
-0.382141	
-0.382324	
-0.38208	
-0.381409	
-0.381836	
-0.381714	
-0.38092	
-0.380798	
-0.380127	
-0.381165	
-0.381592	
-0.38208	
-0.381409	
-0.38147	
-0.380493	
-0.380554	
-0.380798	
-0.380676	
-0.379883	
-0.381226	
-0.380859	
-0.381897	
-0.381897	
-0.381592	
-0.380859	
-0.381653	
-0.381287	
-0.381104	
-0.380615	
-0.381226	
-0.381531	
-0.382507	
-0.382568	
-0.382202	
-0.381958	
-0.381897	
-0.381592	
-0.380859	
-0.381226	
-0.381653	
-0.381897	
-0.38208	
-0.382446	
-0.38208	
-0.382263	
-0.381287	
-0.380676	
-0.380188	
-0.380554	
-0.380676	
-0.380615	
-0.380859	
-0.381287	
-0.381287	
-0.381958	
-0.380981	
-0.380554	
-0.38092	
-0.38147	
-0.382202	
-0.382263	
-0.381897	
-0.382446	
-0.382874	
-0.383179	
-0.382019	
-0.380798	
-0.381897	
-0.382385	
-0.382629	
-0.382568	
-0.382874	
-0.382446	
-0.38385	
-0.383911	
-0.382996	
-0.382751	
-0.382935	
-0.383667	
-0.383728	
-0.384399	
-0.384338	
-0.384705	
-0.384338	
-0.38446	
-0.383911	
-0.384644	
-0.384399	
-0.385437	
-0.385193	
-0.386902	
-0.385925	
-0.385864	
-0.385559	
-0.386597	
-0.386841	
-0.386597	
-0.385681	
-0.386597	
-0.386536	
-0.387817	
-0.387085	
-0.386902	
-0.385681	
-0.38739	
-0.386658	
-0.386475	
-0.386292	
-0.386902	
-0.386902	
-0.387939	
-0.386841	
-0.386536	
-0.385986	
-0.386169	
-0.385498	
-0.385437	
-0.38562	
-0.385315	
-0.385559	
-0.384888	
-0.384888	
-0.384949	
-0.384583	
-0.383667	
-0.383179	
-0.383423	
-0.383423	
-0.38385	
-0.383545	
-0.383118	
-0.383606	
-0.383728	
-0.383423	
-0.381958	
-0.38092	
-0.381592	
-0.382202	
-0.381897	
-0.381653	
-0.381226	
-0.381958	
-0.381836	
-0.382019	
-0.380249	
-0.380554	
-0.380371	
-0.380798	
-0.380615	
-0.380493	
-0.380615	
-0.381653	
-0.38092	
-0.381531	
-0.379272	
-0.38031	
-0.37854	
-0.380615	
-0.380737	
-0.38092	
-0.380371	
-0.381592	
-0.380676	
-0.382202	
-0.379883	
-0.380554	
-0.379456	
-0.381104	
-0.380737	
-0.381897	
-0.381531	
-0.38208	
-0.381531	
-0.382935	
-0.381775	
-0.382141	
-0.381409	
-0.383118	
-0.383179	
-0.383484	
-0.382874	
-0.383728	
-0.382202	
-0.383545	
-0.382629	
-0.382751	
-0.382996	
-0.383911	
-0.383301	
-0.384521	
-0.383545	
-0.384521	
-0.383118	
-0.383911	
-0.384033	
-0.383728	
-0.384277	
-0.384338	
-0.384644	
-0.385254	
-0.384644	
-0.385193	
-0.384277	
-0.384766	
-0.384644	
-0.384949	
-0.385132	
-0.385193	
-0.385864	
-0.385803	
-0.385803	
-0.38562	
-0.385925	
-0.385803	
-0.385559	
-0.385254	
-0.38562	
-0.385925	
-0.385559	
-0.385986	
-0.38623	
-0.385986	
-0.387085	
-0.385315	
-0.385071	
-0.384521	
-0.385437	
-0.385559	
-0.385803	
-0.38623	
-0.385803	
-0.386414	
-0.38739	
-0.385925	
-0.385254	
-0.38501	
-0.385803	
-0.385498	
-0.385681	
-0.385681	
-0.385437	
-0.385864	
-0.385437	
-0.384521	
-0.383423	
-0.38385	
-0.38501	
-0.384338	
-0.38501	
-0.384033	
-0.384583	
-0.384033	
-0.384766	
-0.383484	
-0.382263	
-0.383179	
-0.383728	
-0.383789	
-0.385071	
-0.383484	
-0.384033	
-0.383911	
-0.384583	
-0.382935	
-0.382385	
-0.382507	
-0.383118	
-0.383606	
-0.384644	
-0.383545	
-0.383972	
-0.383179	
-0.384155	
-0.382385	
-0.381897	
-0.382446	
-0.382629	
-0.382874	
-0.382996	
-0.382874	
-0.383545	
-0.382813	
-0.382813	
-0.381409	
-0.381531	
-0.382324	
-0.382263	
-0.382507	
-0.382813	
-0.382141	
-0.382813	
-0.382874	
-0.381958	
-0.380249	
-0.381042	
-0.381409	
-0.381653	
-0.381531	
-0.381714	
-0.381531	
-0.381958	
-0.38147	
-0.380554	
-0.379822	
-0.380554	
-0.380432	
-0.38031	
-0.380554	
-0.380676	
-0.380066	
-0.38092	
-0.381287	
-0.380737	
-0.380859	
-0.381287	
-0.381714	
-0.38208	
-0.382446	
-0.382568	
-0.382751	
-0.38324	
-0.383362	
-0.382751	
-0.382568	
-0.382507	
-0.383362	
-0.38385	
-0.383789	
-0.383728	
-0.384644	
-0.384644	
-0.384949	
-0.384033	
-0.38385	
-0.383118	
-0.384949	
-0.384705	
-0.385254	
-0.385315	
-0.385193	
-0.38562	
-0.38562	
-0.384949	
-0.384399	
-0.385376	
-0.385193	
-0.385071	
-0.385498	
-0.385315	
-0.385803	
-0.38623	
-0.385559	
-0.385071	
-0.383789	
-0.385254	
-0.385376	
-0.385193	
-0.385132	
-0.384705	
-0.385376	
-0.385742	
-0.384644	
-0.384277	
-0.383911	
-0.384949	
-0.384338	
-0.384888	
-0.385071	
-0.384888	
-0.384644	
-0.385803	
-0.38562	
-0.384827	
-0.384705	
-0.384644	
-0.385071	
-0.385071	
-0.385254	
-0.384399	
-0.385742	
-0.387268	
-0.385681	
-0.385071	
-0.38446	
-0.385376	
-0.385437	
-0.385193	
-0.385437	
-0.385071	
-0.385498	
-0.386841	
-0.384705	
-0.384094	
-0.38208	
-0.38446	
	
