C:\DOCUMENTS AND SETTINGS\JASON\DESKTOP\UFRJ\UFRJ EPHYS\RSCI-BM 12 WK SERIES\070806-RSCI-BM-16\RSCI-BM-16-LEMG\070806-RSCI-BM-16-LEMG-0014.ACQ
0.025000 msec/sample
1 channel
Analog input
Volts
CH1	
2000	
-0.384338	
-0.383118	
-0.383057	
-0.382446	
-0.383484	
-0.38385	
-0.383179	
-0.383728	
-0.383484	
-0.38324	
-0.384766	
-0.384094	
-0.384155	
-0.383667	
-0.384277	
-0.384949	
-0.383728	
-0.384277	
-0.383423	
-0.383606	
-0.385498	
-0.384644	
-0.384766	
-0.38501	
-0.385193	
-0.386414	
-0.385193	
-0.385193	
-0.384094	
-0.384216	
-0.386047	
-0.385132	
-0.385864	
-0.386108	
-0.385864	
-0.386597	
-0.386475	
-0.386414	
-0.385376	
-0.385559	
-0.387024	
-0.386353	
-0.386536	
-0.386414	
-0.386658	
-0.387085	
-0.387085	
-0.38678	
-0.386169	
-0.386169	
-0.38678	
-0.386719	
-0.386658	
-0.386719	
-0.386536	
-0.386963	
-0.386108	
-0.385498	
-0.385803	
-0.384949	
-0.385986	
-0.385742	
-0.384705	
-0.385315	
-0.384338	
-0.38446	
-0.383667	
-0.383972	
-0.383484	
-0.383301	
-0.383972	
-0.384583	
-0.383301	
-0.383667	
-0.381714	
-0.383606	
-0.383301	
-0.38324	
-0.383606	
-0.383423	
-0.383423	
-0.384827	
-0.38385	
-0.383545	
-0.38147	
-0.384033	
-0.383972	
-0.383911	
-0.383728	
-0.384216	
-0.384155	
-0.385254	
-0.384766	
-0.385071	
-0.383423	
-0.384949	
-0.384766	
-0.385254	
-0.38446	
-0.384949	
-0.38446	
-0.386353	
-0.385254	
-0.385559	
-0.384766	
-0.385315	
-0.38501	
-0.38623	
-0.385193	
-0.385681	
-0.384644	
-0.386414	
-0.385803	
-0.386353	
-0.385559	
-0.385742	
-0.386353	
-0.386841	
-0.385742	
-0.386536	
-0.386353	
-0.387146	
-0.386658	
-0.386719	
-0.386414	
-0.387024	
-0.386841	
-0.386292	
-0.38623	
-0.386414	
-0.386475	
-0.386841	
-0.386475	
-0.386658	
-0.38623	
-0.387207	
-0.387207	
-0.387146	
-0.387085	
-0.386841	
-0.386963	
-0.387329	
-0.387268	
-0.387085	
-0.387024	
-0.38739	
-0.38739	
-0.387329	
-0.387329	
-0.387146	
-0.387512	
-0.387573	
-0.388611	
-0.387146	
-0.387146	
-0.38623	
-0.387512	
-0.387085	
-0.387085	
-0.386414	
-0.386597	
-0.387024	
-0.388794	
-0.38678	
-0.387329	
-0.38446	
-0.387451	
-0.386414	
-0.38739	
-0.385803	
-0.386169	
-0.385681	
-0.387939	
-0.386353	
-0.387329	
-0.384949	
-0.387512	
-0.385254	
-0.387268	
-0.385742	
-0.386597	
-0.38562	
-0.387817	
-0.386658	
-0.387756	
-0.38562	
-0.387024	
-0.385437	
-0.387451	
-0.385742	
-0.386597	
-0.385864	
-0.388	
-0.386841	
-0.387268	
-0.38562	
-0.387634	
-0.36969	
-0.368225	
-0.369202	
-0.3703	
-0.368713	
-0.3703	
-0.390381	
-0.389709	
-0.38678	
-0.387085	
-0.385986	
-0.38678	
-0.385376	
-0.385376	
-0.385559	
-0.386047	
-0.385437	
-0.385437	
-0.384644	
-0.38562	
-0.384705	
-0.385254	
-0.383301	
-0.383667	
-0.383545	
-0.384094	
-0.384705	
-0.384155	
-0.384277	
-0.384583	
-0.384094	
-0.384766	
-0.38324	
-0.384094	
-0.382996	
-0.384399	
-0.38562	
-0.384644	
-0.384338	
-0.383972	
-0.384338	
-0.384644	
-0.383362	
-0.38385	
-0.383301	
-0.383423	
-0.384888	
-0.383911	
-0.384033	
-0.384338	
-0.385132	
-0.387512	
-0.387817	
-0.390686	
-0.392944	
-0.397217	
-0.401794	
-0.404968	
-0.408447	
-0.41156	
-0.416565	
-0.421814	
-0.426086	
-0.431458	
-0.437683	
-0.444702	
-0.44989	
-0.456787	
-0.460938	
-0.465149	
-0.468994	
-0.472656	
-0.475037	
-0.475586	
-0.477417	
-0.47937	
-0.479919	
-0.481323	
-0.48053	
-0.481323	
-0.481018	
-0.48053	
-0.480286	
-0.479126	
-0.478943	
-0.478821	
-0.477234	
-0.476318	
-0.474365	
-0.473816	
-0.473816	
-0.474121	
-0.474365	
-0.474854	
-0.475586	
-0.476807	
-0.477478	
-0.47821	
-0.478516	
-0.48053	
-0.482605	
-0.483582	
-0.486023	
-0.487976	
-0.488953	
-0.490356	
-0.490356	
-0.490112	
-0.489197	
-0.489136	
-0.489258	
-0.488159	
-0.48877	
-0.48822	
-0.488708	
-0.489685	
-0.488647	
-0.488953	
-0.488464	
-0.488708	
-0.474976	
-0.469421	
-0.472107	
-0.471863	
-0.471802	
-0.472839	
-0.492004	
-0.491028	
-0.488342	
-0.486877	
-0.48645	
-0.483032	
-0.481812	
-0.478699	
-0.476318	
-0.473755	
-0.469482	
-0.464844	
-0.459656	
-0.454651	
-0.449768	
-0.442444	
-0.437439	
-0.430725	
-0.424011	
-0.416809	
-0.409363	
-0.400635	
-0.390869	
-0.379578	
-0.369446	
-0.359802	
-0.348938	
-0.337402	
-0.326294	
-0.314819	
-0.304199	
-0.293335	
-0.282532	
-0.27301	
-0.264099	
-0.256348	
-0.249695	
-0.244568	
-0.239685	
-0.236328	
-0.234192	
-0.232422	
-0.231445	
-0.231018	
-0.2323	
-0.234924	
-0.238281	
-0.243713	
-0.249084	
-0.255371	
-0.262329	
-0.26886	
-0.276001	
-0.282959	
-0.293518	
-0.300293	
-0.309631	
-0.317566	
-0.327637	
-0.336426	
-0.345886	
-0.354309	
-0.362366	
-0.370422	
-0.379211	
-0.386292	
-0.392212	
-0.398132	
-0.403015	
-0.406738	
-0.40918	
-0.41156	
-0.413147	
-0.41748	
-0.417664	
-0.419128	
-0.418335	
-0.419373	
-0.420166	
-0.419983	
-0.419067	
-0.418945	
-0.418701	
-0.420654	
-0.419434	
-0.421265	
-0.420837	
-0.422058	
-0.423462	
-0.423401	
-0.423096	
-0.423828	
-0.424255	
-0.427307	
-0.426941	
-0.42865	
-0.42865	
-0.429565	
-0.430115	
-0.430603	
-0.430359	
-0.431641	
-0.432495	
-0.433472	
-0.434021	
-0.435852	
-0.436829	
-0.438354	
-0.439453	
-0.441467	
-0.441467	
-0.442383	
-0.441895	
-0.44281	
-0.443298	
-0.443237	
-0.444702	
-0.444824	
-0.444458	
-0.444946	
-0.443176	
-0.442322	
-0.439636	
-0.438904	
-0.436401	
-0.43396	
-0.430603	
-0.426208	
-0.421753	
-0.416321	
-0.408752	
-0.4021	
-0.393372	
-0.38678	
-0.376526	
-0.368652	
-0.359924	
-0.350159	
-0.340698	
-0.330872	
-0.318909	
-0.308167	
-0.297058	
-0.288269	
-0.277771	
-0.26886	
-0.260559	
-0.254028	
-0.247498	
-0.241699	
-0.236084	
-0.230957	
-0.226868	
-0.224731	
-0.222839	
-0.221741	
-0.221985	
-0.222595	
-0.224731	
-0.227478	
-0.229553	
-0.234436	
-0.238098	
-0.243103	
-0.246948	
-0.252869	
-0.258789	
-0.263977	
-0.269226	
-0.273193	
-0.277832	
-0.282104	
-0.28717	
-0.289978	
-0.294495	
-0.297363	
-0.301514	
-0.305115	
-0.308533	
-0.310608	
-0.313049	
-0.314392	
-0.31781	
-0.319641	
-0.322449	
-0.324524	
-0.326904	
-0.329041	
-0.331177	
-0.332947	
-0.335083	
-0.337402	
-0.338806	
-0.339661	
-0.341125	
-0.34314	
-0.344971	
-0.346436	
-0.346008	
-0.345947	
-0.346436	
-0.349243	
-0.349304	
-0.349915	
-0.350647	
-0.351868	
-0.353516	
-0.35321	
-0.353088	
-0.353516	
-0.354248	
-0.355408	
-0.355347	
-0.356079	
-0.355469	
-0.3573	
-0.358765	
-0.357483	
-0.357727	
-0.358887	
-0.358521	
-0.35907	
-0.358337	
-0.359558	
-0.360291	
-0.360901	
-0.360718	
-0.360779	
-0.360046	
-0.36145	
-0.36145	
-0.361511	
-0.360779	
-0.361633	
-0.362488	
-0.363647	
-0.362305	
-0.362183	
-0.360901	
-0.362915	
-0.363342	
-0.363159	
-0.363098	
-0.363342	
-0.363708	
-0.364441	
-0.363281	
-0.36322	
-0.363831	
-0.363953	
-0.364929	
-0.364441	
-0.364685	
-0.364685	
-0.365906	
-0.365051	
-0.365112	
-0.365356	
-0.366333	
-0.366028	
-0.366699	
-0.365723	
-0.366333	
-0.365173	
-0.366516	
-0.365906	
-0.365784	
-0.365173	
-0.36676	
-0.366333	
-0.366516	
-0.365417	
-0.366333	
-0.367188	
-0.367737	
-0.366699	
-0.366028	
-0.367249	
-0.367615	
-0.367737	
-0.367554	
-0.368164	
-0.368591	
-0.369324	
-0.369812	
-0.369019	
-0.369385	
-0.370056	
-0.370056	
-0.370789	
-0.370361	
-0.37085	
-0.371216	
-0.372131	
-0.371216	
-0.370056	
-0.369934	
-0.371887	
-0.371887	
-0.371338	
-0.371338	
-0.371887	
-0.372314	
-0.372559	
-0.37207	
-0.372131	
-0.372742	
-0.371826	
-0.373474	
-0.372559	
-0.373047	
-0.37207	
-0.373779	
-0.372986	
-0.372498	
-0.372498	
-0.374634	
-0.373535	
-0.373962	
-0.372498	
-0.373718	
-0.37439	
-0.375427	
-0.374023	
-0.37384	
-0.373779	
-0.37439	
-0.374573	
-0.374146	
-0.37384	
-0.373474	
-0.374268	
-0.373901	
-0.37384	
-0.373535	
-0.374023	
-0.374023	
-0.374756	
-0.373962	
-0.374695	
-0.375305	
-0.37561	
-0.375	
-0.374084	
-0.374512	
-0.375427	
-0.375549	
-0.375305	
-0.375671	
-0.375549	
-0.376526	
-0.377686	
-0.376587	
-0.375244	
-0.375366	
-0.377075	
-0.377197	
-0.377502	
-0.377319	
-0.376709	
-0.378052	
-0.378967	
-0.377258	
-0.377014	
-0.376282	
-0.378906	
-0.377991	
-0.378296	
-0.378113	
-0.378662	
-0.380188	
-0.380005	
-0.37915	
-0.378357	
-0.378479	
-0.380188	
-0.380005	
-0.380249	
-0.3797	
-0.380493	
-0.381775	
-0.381775	
-0.380554	
-0.379639	
-0.380005	
-0.381714	
-0.381348	
-0.381409	
-0.380554	
-0.381104	
-0.382507	
-0.382385	
-0.381592	
-0.381104	
-0.380676	
-0.382202	
-0.382202	
-0.381592	
-0.380127	
-0.380554	
-0.382324	
-0.381531	
-0.38092	
-0.38031	
-0.38092	
-0.381104	
-0.380981	
-0.380127	
-0.380127	
-0.380188	
-0.38092	
-0.379395	
-0.378906	
-0.378906	
-0.379761	
-0.3797	
-0.379578	
-0.378723	
-0.378662	
-0.380432	
-0.379944	
-0.379028	
-0.378296	
-0.378662	
-0.380188	
-0.380554	
-0.379639	
-0.378601	
-0.37915	
-0.380859	
-0.379944	
-0.379944	
-0.379822	
-0.380859	
-0.381165	
-0.381042	
-0.380432	
-0.38092	
-0.381531	
-0.382385	
-0.381165	
-0.380859	
-0.380615	
-0.382019	
-0.381714	
-0.381531	
-0.381592	
-0.38208	
-0.382751	
-0.382996	
-0.381897	
-0.381042	
-0.381409	
-0.383118	
-0.382996	
-0.38269	
-0.381714	
-0.381897	
-0.383728	
-0.383606	
-0.383301	
-0.382629	
-0.383423	
-0.384399	
-0.384949	
-0.383423	
-0.383179	
-0.382874	
-0.384644	
-0.38385	
-0.383606	
-0.382996	
-0.383484	
-0.383362	
-0.384827	
-0.383789	
-0.383911	
-0.383423	
-0.384766	
-0.383911	
-0.383728	
-0.384155	
-0.384644	
-0.384644	
-0.385376	
-0.384216	
-0.384033	
-0.383728	
-0.385132	
-0.384766	
-0.384094	
-0.384338	
-0.38501	
-0.384949	
-0.385315	
-0.384399	
-0.383972	
-0.384216	
-0.385193	
-0.384644	
-0.384277	
-0.383667	
-0.384888	
-0.384216	
-0.384949	
-0.384277	
-0.384399	
-0.383423	
-0.384583	
-0.383972	
-0.383789	
-0.383667	
-0.384277	
-0.383972	
-0.384644	
-0.383423	
-0.384155	
-0.383301	
-0.384338	
-0.384277	
-0.383728	
-0.38385	
-0.384583	
-0.384033	
-0.384888	
-0.383423	
-0.38446	
-0.384033	
-0.385071	
-0.384338	
-0.384277	
-0.384338	
-0.385071	
-0.384583	
-0.384827	
-0.383972	
-0.384827	
-0.385925	
-0.385803	
-0.384399	
-0.383606	
-0.384155	
-0.385864	
-0.385132	
-0.384888	
-0.383545	
-0.384216	
-0.384888	
-0.385376	
-0.384216	
-0.384216	
-0.382996	
-0.384827	
-0.384338	
-0.383972	
-0.383545	
-0.383667	
-0.383728	
-0.384521	
-0.382813	
-0.382874	
-0.380981	
-0.383301	
-0.382507	
-0.382446	
-0.38269	
-0.382813	
-0.382568	
-0.383789	
-0.382568	
-0.382568	
-0.38147	
-0.382385	
-0.382507	
-0.382202	
-0.382202	
-0.382263	
-0.382263	
-0.38324	
-0.381958	
-0.382019	
-0.382324	
-0.382141	
-0.38269	
-0.382385	
-0.382507	
-0.382019	
-0.382385	
-0.38324	
-0.381714	
-0.382202	
-0.382629	
-0.382141	
-0.382385	
-0.382385	
-0.383179	
-0.383606	
-0.383667	
-0.383972	
-0.383118	
-0.383362	
-0.38446	
-0.384399	
-0.384827	
-0.38324	
-0.38446	
-0.384155	
-0.385132	
-0.384705	
-0.383667	
-0.384033	
-0.38501	
-0.384888	
-0.385071	
-0.383057	
-0.383789	
-0.383118	
-0.384155	
-0.383728	
-0.382874	
-0.382263	
-0.383972	
-0.383118	
-0.383545	
-0.381836	
-0.382751	
-0.382263	
-0.383606	
-0.382507	
-0.382385	
-0.381348	
-0.38324	
-0.382874	
-0.383789	
-0.381836	
-0.382385	
-0.382813	
-0.383789	
-0.383179	
-0.382263	
-0.38147	
-0.384155	
-0.382935	
-0.38385	
-0.382385	
-0.383362	
-0.383301	
-0.383789	
-0.383118	
-0.382568	
-0.38324	
-0.38446	
-0.383362	
-0.384094	
-0.38324	
-0.383972	
-0.38385	
-0.384644	
-0.384033	
-0.383362	
-0.383545	
-0.385254	
-0.384766	
-0.384949	
-0.383911	
-0.384949	
-0.385315	
-0.385559	
-0.384583	
-0.384338	
-0.384644	
-0.385132	
-0.385254	
-0.385071	
-0.384644	
-0.385193	
-0.385803	
-0.385315	
-0.384583	
-0.384094	
-0.384644	
-0.38501	
-0.384888	
-0.38446	
-0.384705	
-0.384277	
-0.384399	
-0.384094	
-0.383789	
-0.383484	
-0.383606	
-0.383911	
-0.383972	
-0.38385	
-0.383911	
-0.382935	
-0.38385	
-0.383362	
-0.383179	
-0.382446	
-0.383118	
-0.38324	
-0.382568	
-0.382507	
-0.382629	
-0.38269	
-0.382996	
-0.383118	
-0.382629	
-0.381592	
-0.381104	
-0.38208	
-0.382324	
-0.381775	
-0.38147	
-0.381653	
-0.382507	
-0.38208	
-0.381653	
-0.380737	
-0.380005	
-0.381409	
-0.381653	
-0.380737	
-0.381409	
-0.380981	
-0.381592	
-0.382202	
-0.381409	
-0.38092	
-0.381287	
-0.381897	
-0.382385	
-0.381165	
-0.381958	
-0.38147	
-0.382935	
-0.38324	
-0.382446	
-0.382141	
-0.383301	
-0.383667	
-0.383911	
-0.383789	
-0.384216	
-0.383789	
-0.385742	
-0.384949	
-0.384705	
-0.383423	
-0.384583	
-0.384827	
-0.385132	
-0.384766	
-0.384705	
-0.383972	
-0.385681	
-0.384827	
-0.384583	
-0.382629	
-0.384644	
-0.384399	
-0.385254	
-0.384033	
-0.383972	
-0.382996	
-0.385132	
-0.383728	
-0.383545	
-0.382446	
-0.38385	
-0.383423	
-0.38446	
-0.382996	
-0.382568	
-0.382263	
-0.383606	
-0.383118	
-0.382935	
-0.38208	
-0.382935	
-0.382568	
-0.38324	
-0.382568	
-0.382629	
-0.382141	
-0.383362	
-0.382629	
-0.381775	
-0.38147	
-0.381836	
-0.381897	
-0.382629	
-0.381653	
-0.381592	
-0.381042	
-0.382751	
-0.381836	
-0.38092	
-0.381409	
-0.382019	
-0.381714	
-0.382263	
-0.381592	
-0.381653	
-0.381226	
-0.38324	
-0.381714	
-0.381226	
-0.380981	
-0.381836	
-0.382019	
-0.381531	
-0.381165	
-0.381287	
-0.381775	
-0.382874	
-0.381592	
-0.38147	
-0.379517	
-0.381531	
-0.381775	
-0.381165	
-0.38092	
-0.380798	
-0.38147	
-0.382751	
-0.380798	
-0.380737	
-0.378723	
-0.381836	
-0.381653	
-0.381592	
-0.381409	
-0.381531	
-0.382141	
-0.383606	
-0.381897	
-0.381958	
-0.38092	
-0.382324	
-0.381958	
-0.382019	
-0.381836	
-0.382507	
-0.382385	
-0.38324	
-0.382385	
-0.382141	
-0.381287	
-0.382019	
-0.382629	
-0.382263	
-0.382019	
-0.381958	
-0.382568	
-0.383667	
-0.381836	
-0.381653	
-0.381287	
-0.382019	
-0.382629	
-0.381775	
-0.381653	
-0.381714	
-0.38269	
-0.383484	
-0.381775	
-0.381287	
-0.380676	
-0.382202	
-0.382324	
-0.381775	
-0.382019	
-0.381165	
-0.382324	
-0.382751	
-0.381897	
-0.38147	
-0.380859	
-0.38269	
-0.383179	
-0.382263	
-0.382385	
-0.381348	
-0.383057	
-0.383423	
-0.383118	
-0.382996	
-0.382385	
-0.383545	
-0.384766	
-0.384094	
-0.38324	
-0.383057	
-0.384888	
-0.38501	
-0.383972	
-0.383972	
-0.383118	
-0.384949	
-0.385437	
-0.384399	
-0.384155	
-0.384888	
-0.385193	
-0.385681	
-0.384949	
-0.384155	
-0.384155	
-0.38501	
-0.385254	
-0.385193	
-0.384338	
-0.38501	
-0.38562	
-0.386108	
-0.384766	
-0.384399	
-0.383911	
-0.385193	
-0.385681	
-0.384583	
-0.384338	
-0.384827	
-0.385559	
-0.386108	
-0.384827	
-0.384277	
-0.384216	
-0.384033	
-0.384399	
-0.383972	
-0.383789	
-0.383606	
-0.384155	
-0.384521	
-0.383057	
-0.382874	
-0.383118	
-0.383423	
-0.383545	
-0.383606	
-0.382813	
-0.383362	
-0.384155	
-0.38446	
-0.383728	
-0.383606	
-0.384155	
-0.384705	
-0.384766	
-0.384705	
-0.384399	
-0.385071	
-0.385315	
-0.385742	
-0.384827	
-0.384644	
-0.38501	
-0.38562	
-0.385498	
-0.385437	
-0.385132	
-0.385742	
-0.385803	
-0.38623	
-0.385193	
-0.385132	
-0.385315	
-0.385437	
-0.385742	
-0.385071	
-0.384827	
-0.384888	
-0.385193	
-0.386475	
-0.385132	
-0.384766	
-0.384705	
-0.385803	
-0.385742	
-0.385071	
-0.384705	
-0.384888	
-0.385803	
-0.386169	
-0.385132	
-0.384827	
-0.385315	
-0.385498	
-0.385315	
-0.384766	
-0.384644	
-0.384766	
-0.384888	
-0.384338	
-0.384216	
-0.383667	
-0.384216	
-0.384277	
-0.384521	
-0.383911	
-0.383423	
-0.383606	
-0.384521	
-0.384277	
-0.384155	
-0.383362	
-0.383789	
-0.384338	
-0.384644	
-0.384216	
-0.383789	
-0.383667	
-0.384644	
-0.384949	
-0.384277	
-0.384155	
-0.384827	
-0.385803	
-0.385681	
-0.384827	
-0.384033	
-0.38446	
-0.385559	
-0.385681	
-0.385193	
-0.385132	
-0.384521	
-0.386475	
-0.386658	
-0.385498	
-0.384766	
-0.385498	
-0.386475	
-0.386719	
-0.386169	
-0.386108	
-0.386719	
-0.387207	
-0.387451	
-0.386475	
-0.385803	
-0.386108	
-0.387878	
-0.387695	
-0.386963	
-0.387207	
-0.387085	
-0.388245	
-0.388916	
-0.38739	
-0.386475	
-0.386353	
-0.388489	
-0.388611	
-0.387878	
-0.387024	
-0.387024	
-0.388672	
-0.388306	
-0.387512	
-0.386597	
-0.386169	
-0.388062	
-0.387939	
-0.387085	
-0.386658	
-0.387146	
-0.387634	
-0.386963	
-0.386108	
-0.384888	
-0.384949	
-0.386414	
-0.386353	
-0.385254	
-0.384277	
-0.383972	
-0.385803	
-0.385254	
-0.38446	
-0.383911	
-0.383911	
-0.384949	
-0.385498	
-0.38446	
-0.383606	
-0.38446	
-0.385254	
-0.385376	
-0.384705	
-0.384766	
-0.383911	
-0.385254	
-0.385681	
-0.384888	
-0.384155	
-0.384766	
-0.386414	
-0.38678	
-0.385376	
-0.384766	
-0.384888	
-0.38623	
-0.386414	
-0.385925	
-0.384705	
-0.385559	
-0.387146	
-0.387207	
-0.385803	
-0.385193	
-0.385315	
-0.387146	
-0.38739	
-0.386353	
-0.386047	
-0.386475	
-0.38739	
-0.387573	
-0.386841	
-0.385986	
-0.386169	
-0.388184	
-0.388489	
-0.387146	
-0.387085	
-0.38678	
-0.388245	
-0.388611	
-0.387573	
-0.386292	
-0.386841	
-0.388184	
-0.389221	
-0.387573	
-0.387146	
-0.386292	
-0.387939	
-0.388184	
-0.387695	
-0.38678	
-0.387085	
-0.387695	
-0.388794	
-0.387451	
-0.387329	
-0.387146	
-0.388367	
-0.388672	
-0.387695	
-0.387695	
-0.38678	
-0.388428	
-0.389404	
-0.387878	
-0.387756	
-0.38678	
-0.388672	
-0.389343	
-0.388489	
-0.387329	
-0.386292	
-0.388306	
-0.389282	
-0.387756	
-0.387634	
-0.387207	
-0.388	
-0.388489	
-0.387756	
-0.387451	
-0.38678	
-0.388062	
-0.387939	
-0.387085	
-0.386597	
-0.386658	
-0.388	
-0.387939	
-0.387268	
-0.387024	
-0.386047	
-0.387024	
-0.387756	
-0.387695	
-0.387085	
-0.38623	
-0.387817	
-0.388	
-0.387085	
-0.387207	
-0.386353	
-0.387512	
-0.388123	
-0.387207	
-0.387024	
-0.386108	
-0.387573	
-0.388672	
-0.387512	
-0.387268	
-0.386475	
-0.387695	
-0.388428	
-0.387329	
-0.38678	
-0.386536	
-0.387817	
-0.388367	
-0.387573	
-0.386597	
-0.385925	
-0.387024	
-0.388367	
-0.387146	
-0.386536	
-0.385498	
-0.387451	
-0.387573	
-0.385986	
-0.38562	
-0.385071	
-0.385559	
-0.386841	
-0.38562	
-0.385376	
-0.384399	
-0.385803	
-0.385864	
-0.384766	
-0.384705	
-0.384033	
-0.385071	
-0.385559	
-0.385559	
-0.38446	
-0.383606	
-0.384644	
-0.384949	
-0.384583	
-0.383484	
-0.383057	
-0.384399	
-0.385498	
-0.385376	
-0.384155	
-0.383789	
-0.384399	
-0.385315	
-0.384521	
-0.383545	
-0.383484	
-0.384399	
-0.385986	
-0.385376	
-0.383972	
-0.382751	
-0.384033	
-0.385498	
-0.384644	
-0.384888	
-0.384521	
-0.385315	
-0.387207	
-0.386292	
-0.385315	
-0.383484	
-0.385681	
-0.386658	
-0.385559	
-0.385254	
-0.384827	
-0.38623	
-0.387512	
-0.385986	
-0.385559	
-0.382935	
-0.386047	
-0.385925	
-0.385315	
-0.384399	
-0.383423	
-0.384949	
-0.386597	
-0.384583	
-0.384033	
-0.382141	
-0.384827	
-0.384705	
-0.383972	
-0.38324	
-0.38269	
-0.383911	
-0.38562	
-0.384338	
-0.383667	
-0.381958	
-0.384399	
-0.38501	
-0.384155	
-0.383911	
-0.383545	
-0.384583	
-0.385376	
-0.384888	
-0.384277	
-0.383118	
-0.384094	
-0.385193	
-0.384766	
-0.384277	
-0.383911	
-0.384399	
-0.385437	
-0.384949	
-0.384583	
-0.384277	
-0.384644	
-0.385071	
-0.384705	
-0.384583	
-0.384644	
-0.385132	
-0.386047	
-0.38501	
-0.385498	
-0.385437	
-0.385559	
-0.385742	
-0.385559	
-0.385864	
-0.385437	
-0.386353	
-0.386536	
-0.385864	
-0.386047	
-0.385864	
-0.386292	
-0.386169	
-0.385986	
-0.386169	
-0.385376	
-0.385864	
-0.386169	
-0.385803	
-0.386169	
-0.384888	
-0.385315	
-0.384644	
-0.385376	
-0.38446	
-0.384094	
-0.385315	
-0.385193	
-0.384644	
-0.384888	
-0.38446	
-0.384399	
-0.384338	
-0.384277	
-0.383789	
-0.38324	
-0.384094	
-0.383789	
-0.384033	
-0.384338	
-0.38324	
-0.383362	
-0.383972	
-0.383301	
-0.38324	
-0.382996	
-0.383362	
-0.382935	
-0.382935	
-0.382996	
-0.382568	
-0.382568	
-0.38269	
-0.382446	
-0.381958	
-0.381226	
-0.382385	
-0.382324	
-0.381714	
-0.382263	
-0.381653	
-0.381836	
-0.381958	
-0.381958	
-0.381226	
-0.380554	
-0.382507	
-0.382263	
-0.382324	
-0.382751	
-0.382385	
-0.382446	
-0.38269	
-0.38208	
-0.382629	
-0.38208	
-0.383728	
-0.383606	
-0.384277	
-0.384033	
-0.383728	
-0.38446	
-0.384827	
-0.38446	
-0.384949	
-0.384155	
-0.384949	
-0.385376	
-0.385437	
-0.385254	
-0.384949	
-0.384888	
-0.385742	
-0.38562	
-0.384888	
-0.384705	
-0.385254	
-0.385315	
-0.385193	
-0.384827	
-0.384521	
-0.384583	
-0.385071	
-0.384399	
-0.383667	
-0.383362	
-0.384338	
-0.384521	
-0.384277	
-0.384155	
-0.38385	
-0.383362	
-0.383911	
-0.383484	
-0.38324	
-0.383423	
-0.383789	
-0.383972	
-0.38385	
-0.382874	
-0.382446	
-0.382507	
-0.382996	
-0.382446	
-0.38269	
-0.382446	
-0.382874	
-0.382874	
-0.383545	
-0.38269	
-0.381775	
-0.382019	
-0.382568	
-0.382385	
-0.382202	
-0.381958	
-0.381958	
-0.382568	
-0.382935	
-0.382019	
-0.381714	
-0.381775	
-0.382385	
-0.382019	
-0.381958	
-0.382446	
-0.382324	
-0.382813	
-0.38269	
-0.381958	
-0.38147	
-0.381165	
-0.381958	
-0.381592	
-0.380676	
-0.381165	
-0.381592	
-0.382507	
-0.381958	
-0.381897	
-0.381409	
-0.380554	
-0.381226	
-0.382019	
-0.38092	
-0.380737	
-0.380798	
-0.382202	
-0.382019	
-0.381836	
-0.380737	
-0.381592	
-0.382629	
-0.382874	
-0.382141	
-0.38208	
-0.381714	
-0.382874	
-0.382263	
-0.382751	
-0.381836	
-0.382385	
-0.382141	
-0.382446	
-0.382019	
-0.382019	
-0.381592	
-0.383118	
-0.382751	
-0.382507	
-0.381897	
-0.381958	
-0.381714	
-0.381897	
-0.381592	
-0.38208	
-0.381226	
-0.382996	
-0.382263	
-0.381714	
-0.381592	
-0.382019	
-0.381592	
-0.38269	
-0.381653	
-0.382019	
-0.380737	
-0.38269	
-0.382629	
-0.382019	
-0.38147	
-0.382263	
-0.382324	
-0.382446	
-0.381592	
-0.381836	
-0.380615	
-0.382751	
-0.382568	
-0.382568	
-0.381958	
-0.381897	
-0.382629	
-0.383545	
-0.382568	
-0.382629	
-0.382629	
-0.384155	
-0.383362	
-0.383545	
-0.382996	
-0.383606	
-0.383484	
-0.384399	
-0.383606	
-0.38385	
-0.384094	
-0.384583	
-0.38446	
-0.384705	
-0.384033	
-0.384521	
-0.38501	
-0.384521	
-0.384583	
-0.384766	
-0.384338	
-0.385254	
-0.384827	
-0.384827	
-0.385376	
-0.384888	
-0.384521	
-0.384033	
-0.384338	
-0.384888	
-0.384521	
-0.385071	
-0.38501	
-0.385437	
-0.385559	
-0.38501	
-0.384216	
-0.383301	
-0.384277	
-0.384705	
-0.384155	
-0.384216	
-0.383545	
-0.384277	
-0.38385	
-0.383362	
-0.38324	
-0.382813	
-0.383179	
-0.383362	
-0.38269	
-0.383179	
-0.38269	
-0.383179	
-0.383423	
-0.382996	
-0.383484	
-0.382996	
-0.383362	
-0.383057	
-0.383362	
-0.383728	
-0.383972	
-0.384155	
-0.384338	
-0.384583	
-0.384521	
-0.384338	
-0.384583	
-0.384338	
-0.384949	
-0.385193	
-0.385193	
-0.385193	
-0.38501	
-0.384827	
-0.384583	
-0.384705	
-0.385132	
-0.384155	
-0.384338	
-0.384766	
-0.384949	
-0.384766	
-0.384583	
-0.384827	
-0.383728	
-0.384338	
-0.385071	
-0.384827	
-0.384094	
-0.38324	
-0.384521	
-0.384827	
-0.384277	
-0.383972	
-0.383972	
-0.384399	
-0.385254	
-0.384888	
-0.384094	
-0.383362	
-0.384155	
-0.385132	
-0.384216	
-0.383667	
-0.383362	
-0.383423	
-0.383789	
-0.383057	
-0.383118	
-0.381958	
-0.382507	
-0.383728	
-0.383301	
-0.383362	
-0.382629	
-0.382507	
-0.383118	
-0.383057	
-0.383057	
-0.381958	
	
