C:\DOCUMENTS AND SETTINGS\JASON\DESKTOP\UFRJ\UFRJ EPHYS\RSCI-BM 12 WK SERIES\070806-RSCI-BM-16\RSCI-BM-16-LEMG\070806-RSCI-BM-16-LEMG-0001.ACQ
0.025000 msec/sample
1 channel
Analog input
Volts
CH1	
2000	
-0.385193	
-0.383484	
-0.383301	
-0.383057	
-0.383545	
-0.384155	
-0.384399	
-0.38446	
-0.384888	
-0.38562	
-0.384705	
-0.385376	
-0.384583	
-0.383972	
-0.382935	
-0.38501	
-0.38501	
-0.384766	
-0.384949	
-0.385071	
-0.387146	
-0.385925	
-0.385742	
-0.385742	
-0.385437	
-0.384583	
-0.384949	
-0.385559	
-0.385437	
-0.385742	
-0.386597	
-0.38739	
-0.387024	
-0.386292	
-0.384399	
-0.385986	
-0.386475	
-0.38562	
-0.386353	
-0.386353	
-0.386902	
-0.387085	
-0.387024	
-0.387512	
-0.38623	
-0.384827	
-0.385498	
-0.386475	
-0.386536	
-0.386047	
-0.386536	
-0.386108	
-0.387024	
-0.386475	
-0.387512	
-0.386536	
-0.385498	
-0.384949	
-0.385498	
-0.385864	
-0.385498	
-0.385925	
-0.385803	
-0.386719	
-0.385742	
-0.386414	
-0.385315	
-0.38501	
-0.384644	
-0.383911	
-0.384888	
-0.385071	
-0.384644	
-0.385254	
-0.386047	
-0.385925	
-0.386047	
-0.383057	
-0.384277	
-0.383911	
-0.384155	
-0.38501	
-0.385071	
-0.384766	
-0.384827	
-0.385559	
-0.384583	
-0.384766	
-0.383179	
-0.382751	
-0.382751	
-0.383301	
-0.383789	
-0.384033	
-0.383728	
-0.38324	
-0.383301	
-0.383423	
-0.383545	
-0.381531	
-0.382874	
-0.382324	
-0.382874	
-0.382996	
-0.382507	
-0.382507	
-0.383484	
-0.38324	
-0.382996	
-0.382935	
-0.382202	
-0.382446	
-0.381531	
-0.382568	
-0.382874	
-0.382813	
-0.382874	
-0.383789	
-0.383728	
-0.383301	
-0.381531	
-0.382324	
-0.382568	
-0.382996	
-0.383301	
-0.383606	
-0.383301	
-0.384094	
-0.384277	
-0.384033	
-0.384949	
-0.383545	
-0.382996	
-0.38324	
-0.384216	
-0.384216	
-0.384155	
-0.384216	
-0.385315	
-0.385498	
-0.384766	
-0.385193	
-0.384216	
-0.384583	
-0.384277	
-0.385132	
-0.384827	
-0.384888	
-0.384888	
-0.38623	
-0.387207	
-0.385864	
-0.385498	
-0.384155	
-0.385498	
-0.384949	
-0.385742	
-0.385925	
-0.385864	
-0.386475	
-0.387512	
-0.387268	
-0.387085	
-0.385132	
-0.38562	
-0.385986	
-0.38678	
-0.386841	
-0.386536	
-0.386719	
-0.387268	
-0.387939	
-0.386963	
-0.387695	
-0.386047	
-0.386658	
-0.386108	
-0.386719	
-0.386169	
-0.38678	
-0.386841	
-0.387573	
-0.388367	
-0.38739	
-0.387207	
-0.386108	
-0.386963	
-0.38562	
-0.386536	
-0.38678	
-0.386597	
-0.386414	
-0.387329	
-0.387573	
-0.386902	
-0.385803	
-0.384644	
-0.35675	
-0.395386	
-0.390076	
-0.386963	
-0.386353	
-0.386414	
-0.387512	
-0.386353	
-0.386108	
-0.384827	
-0.385376	
-0.385193	
-0.385681	
-0.38562	
-0.38562	
-0.385437	
-0.38562	
-0.386902	
-0.386536	
-0.386108	
-0.384094	
-0.38446	
-0.383423	
-0.38446	
-0.384705	
-0.384155	
-0.384094	
-0.384949	
-0.386047	
-0.384949	
-0.383606	
-0.382568	
-0.38269	
-0.383362	
-0.383423	
-0.38385	
-0.383911	
-0.383911	
-0.384949	
-0.385437	
-0.384033	
-0.383118	
-0.381287	
-0.382813	
-0.383423	
-0.383179	
-0.382996	
-0.383118	
-0.382996	
-0.384033	
-0.383118	
-0.384216	
-0.382568	
-0.384094	
-0.38562	
-0.387817	
-0.390442	
-0.392395	
-0.395569	
-0.399048	
-0.403442	
-0.406799	
-0.408386	
-0.410461	
-0.413086	
-0.417358	
-0.421082	
-0.425598	
-0.430054	
-0.434082	
-0.437866	
-0.440491	
-0.442444	
-0.442627	
-0.44281	
-0.442139	
-0.441711	
-0.440735	
-0.440186	
-0.439819	
-0.440247	
-0.440369	
-0.439026	
-0.436218	
-0.435364	
-0.434692	
-0.434326	
-0.433655	
-0.432678	
-0.430969	
-0.430298	
-0.429565	
-0.428894	
-0.429016	
-0.428162	
-0.427734	
-0.428406	
-0.428467	
-0.428589	
-0.429016	
-0.42865	
-0.430115	
-0.43158	
-0.432251	
-0.43219	
-0.433777	
-0.436462	
-0.437439	
-0.439148	
-0.440125	
-0.440857	
-0.441101	
-0.441162	
-0.44281	
-0.442505	
-0.44165	
-0.440125	
-0.441406	
-0.442627	
-0.442627	
-0.442322	
-0.4422	
-0.442444	
-0.442017	
-0.441711	
-0.44104	
-0.439819	
-0.439575	
-0.440491	
-0.441589	
-0.442078	
-0.443176	
-0.443542	
-0.443481	
-0.444214	
-0.443359	
-0.441345	
-0.43988	
-0.438049	
-0.436646	
-0.435242	
-0.432312	
-0.429565	
-0.426575	
-0.42218	
-0.419678	
-0.413147	
-0.409119	
-0.402344	
-0.397888	
-0.392334	
-0.386597	
-0.380066	
-0.372742	
-0.366699	
-0.357849	
-0.350464	
-0.340454	
-0.330872	
-0.318665	
-0.309692	
-0.298706	
-0.288208	
-0.277893	
-0.2677	
-0.258179	
-0.249878	
-0.243652	
-0.237366	
-0.232483	
-0.227966	
-0.227173	
-0.22644	
-0.225464	
-0.225769	
-0.226379	
-0.2276	
-0.230408	
-0.231323	
-0.233887	
-0.23645	
-0.240845	
-0.244446	
-0.249329	
-0.254211	
-0.259155	
-0.264221	
-0.270325	
-0.274475	
-0.278992	
-0.283081	
-0.288391	
-0.293762	
-0.298157	
-0.302185	
-0.306213	
-0.309509	
-0.313477	
-0.316528	
-0.318237	
-0.32019	
-0.322205	
-0.32605	
-0.328125	
-0.330383	
-0.332581	
-0.334717	
-0.337646	
-0.339539	
-0.340454	
-0.341309	
-0.341003	
-0.343872	
-0.345337	
-0.346924	
-0.347656	
-0.348511	
-0.348877	
-0.351563	
-0.350281	
-0.350952	
-0.351135	
-0.35144	
-0.352905	
-0.353699	
-0.353516	
-0.354736	
-0.354736	
-0.355774	
-0.355164	
-0.355835	
-0.355347	
-0.356445	
-0.356995	
-0.357483	
-0.35791	
-0.358398	
-0.358643	
-0.360046	
-0.359009	
-0.359558	
-0.358704	
-0.359558	
-0.360046	
-0.360107	
-0.360535	
-0.361084	
-0.361084	
-0.361816	
-0.361938	
-0.361511	
-0.361084	
-0.360413	
-0.360657	
-0.361084	
-0.361084	
-0.360962	
-0.362183	
-0.361511	
-0.361267	
-0.361023	
-0.360352	
-0.360535	
-0.359497	
-0.360657	
-0.360535	
-0.360901	
-0.361267	
-0.361145	
-0.361938	
-0.362427	
-0.360901	
-0.360352	
-0.360901	
-0.361267	
-0.361572	
-0.361938	
-0.361511	
-0.362793	
-0.362671	
-0.362	
-0.361267	
-0.361511	
-0.361938	
-0.36145	
-0.361511	
-0.362183	
-0.361938	
-0.362305	
-0.362183	
-0.362915	
-0.362427	
-0.361206	
-0.360352	
-0.361267	
-0.361694	
-0.362122	
-0.362366	
-0.362366	
-0.362305	
-0.36322	
-0.362732	
-0.362305	
-0.362	
-0.362427	
-0.363098	
-0.36322	
-0.363647	
-0.364014	
-0.364502	
-0.365417	
-0.364258	
-0.364136	
-0.36377	
-0.365112	
-0.365417	
-0.365295	
-0.365234	
-0.365723	
-0.366821	
-0.367004	
-0.366211	
-0.365051	
-0.365662	
-0.367065	
-0.367126	
-0.366943	
-0.367798	
-0.367676	
-0.36853	
-0.368774	
-0.369324	
-0.369202	
-0.368347	
-0.368042	
-0.368591	
-0.369873	
-0.369812	
-0.369995	
-0.370728	
-0.371094	
-0.372498	
-0.371704	
-0.370911	
-0.369812	
-0.37085	
-0.371765	
-0.371765	
-0.372314	
-0.372437	
-0.373169	
-0.373474	
-0.372192	
-0.371704	
-0.371704	
-0.372803	
-0.37323	
-0.37323	
-0.37384	
-0.374084	
-0.374146	
-0.37439	
-0.375854	
-0.374268	
-0.374573	
-0.374146	
-0.375427	
-0.375427	
-0.375549	
-0.375732	
-0.376038	
-0.376587	
-0.377136	
-0.376953	
-0.375305	
-0.375183	
-0.375061	
-0.376221	
-0.376343	
-0.376343	
-0.376709	
-0.37677	
-0.377075	
-0.37854	
-0.377136	
-0.376526	
-0.376526	
-0.37738	
-0.376953	
-0.377502	
-0.377808	
-0.377747	
-0.378052	
-0.378113	
-0.377747	
-0.376038	
-0.375916	
-0.375488	
-0.377319	
-0.37738	
-0.37738	
-0.377747	
-0.377502	
-0.378235	
-0.379578	
-0.377625	
-0.377258	
-0.376343	
-0.377441	
-0.377075	
-0.377808	
-0.377747	
-0.377441	
-0.378601	
-0.378418	
-0.377747	
-0.376709	
-0.377258	
-0.37793	
-0.37738	
-0.377747	
-0.377869	
-0.377747	
-0.377686	
-0.378479	
-0.379272	
-0.37616	
-0.37616	
-0.373962	
-0.377136	
-0.377319	
-0.37677	
-0.377075	
-0.376953	
-0.377686	
-0.378723	
-0.37616	
-0.37616	
-0.376343	
-0.377319	
-0.37677	
-0.376953	
-0.377258	
-0.377136	
-0.377808	
-0.377747	
-0.377075	
-0.377014	
-0.377014	
-0.377686	
-0.37793	
-0.37793	
-0.377808	
-0.377747	
-0.378662	
-0.378113	
-0.379822	
-0.377563	
-0.37793	
-0.376526	
-0.378662	
-0.378723	
-0.37915	
-0.379211	
-0.380371	
-0.380554	
-0.380127	
-0.378723	
-0.378906	
-0.378662	
-0.380066	
-0.380066	
-0.379517	
-0.380005	
-0.380432	
-0.380554	
-0.381531	
-0.38147	
-0.380737	
-0.38031	
-0.37854	
-0.38092	
-0.381226	
-0.380981	
-0.380981	
-0.381531	
-0.382385	
-0.381897	
-0.38147	
-0.380981	
-0.381714	
-0.382019	
-0.382385	
-0.38208	
-0.382385	
-0.38324	
-0.382751	
-0.383423	
-0.383423	
-0.382507	
-0.381897	
-0.381958	
-0.383423	
-0.383484	
-0.383789	
-0.383789	
-0.383789	
-0.384949	
-0.384155	
-0.384277	
-0.381958	
-0.383789	
-0.38269	
-0.383545	
-0.383667	
-0.384277	
-0.384399	
-0.38446	
-0.384338	
-0.383728	
-0.383911	
-0.384338	
-0.382813	
-0.384399	
-0.383972	
-0.383911	
-0.384033	
-0.384399	
-0.385193	
-0.383606	
-0.384583	
-0.382141	
-0.383545	
-0.383057	
-0.383301	
-0.383362	
-0.383667	
-0.383911	
-0.384521	
-0.383484	
-0.383484	
-0.382813	
-0.383301	
-0.38208	
-0.383423	
-0.383362	
-0.38324	
-0.383789	
-0.38324	
-0.384094	
-0.383606	
-0.383728	
-0.381897	
-0.382813	
-0.382935	
-0.383179	
-0.382568	
-0.38269	
-0.383057	
-0.383911	
-0.382446	
-0.382629	
-0.381897	
-0.382202	
-0.381287	
-0.381531	
-0.382141	
-0.381531	
-0.382263	
-0.382324	
-0.382263	
-0.381897	
-0.381775	
-0.380371	
-0.381714	
-0.381836	
-0.381836	
-0.381714	
-0.382202	
-0.382324	
-0.383179	
-0.38208	
-0.382813	
-0.380737	
-0.382263	
-0.381226	
-0.380981	
-0.381958	
-0.382568	
-0.382874	
-0.38324	
-0.382629	
-0.38269	
-0.383118	
-0.38269	
-0.38324	
-0.382751	
-0.383484	
-0.383545	
-0.383484	
-0.384094	
-0.38501	
-0.383423	
-0.384155	
-0.382874	
-0.38385	
-0.383667	
-0.383484	
-0.384033	
-0.384827	
-0.385559	
-0.385437	
-0.384705	
-0.384521	
-0.384705	
-0.384583	
-0.384888	
-0.384949	
-0.385193	
-0.384949	
-0.385437	
-0.386169	
-0.386658	
-0.385864	
-0.385803	
-0.384827	
-0.386108	
-0.385498	
-0.386047	
-0.385925	
-0.386108	
-0.387146	
-0.387024	
-0.386841	
-0.386963	
-0.387268	
-0.387146	
-0.386719	
-0.386108	
-0.386108	
-0.386902	
-0.387512	
-0.388306	
-0.388733	
-0.387085	
-0.386292	
-0.386047	
-0.387329	
-0.387329	
-0.386719	
-0.387268	
-0.387024	
-0.388123	
-0.387817	
-0.38739	
-0.387146	
-0.387573	
-0.387878	
-0.387573	
-0.386475	
-0.386475	
-0.387085	
-0.387451	
-0.387939	
-0.388062	
-0.386475	
-0.386902	
-0.385986	
-0.386292	
-0.386108	
-0.386414	
-0.386414	
-0.386414	
-0.386902	
-0.38739	
-0.38623	
-0.386169	
-0.386169	
-0.386841	
-0.386414	
-0.385803	
-0.386169	
-0.386108	
-0.386475	
-0.387451	
-0.387878	
-0.386108	
-0.386292	
-0.385742	
-0.385986	
-0.385254	
-0.38562	
-0.384583	
-0.38562	
-0.385193	
-0.385803	
-0.385681	
-0.385437	
-0.384766	
-0.38385	
-0.384521	
-0.38385	
-0.384399	
-0.384583	
-0.384644	
-0.385376	
-0.385681	
-0.384399	
-0.384766	
-0.384094	
-0.38562	
-0.384216	
-0.384644	
-0.384094	
-0.384949	
-0.385132	
-0.384888	
-0.386108	
-0.384888	
-0.384644	
-0.382935	
-0.384949	
-0.383606	
-0.384338	
-0.384216	
-0.385193	
-0.386108	
-0.386108	
-0.385315	
-0.385437	
-0.385132	
-0.386108	
-0.385742	
-0.386047	
-0.385254	
-0.385803	
-0.386169	
-0.38623	
-0.386902	
-0.385986	
-0.38678	
-0.385071	
-0.386658	
-0.385925	
-0.386902	
-0.385376	
-0.387146	
-0.387146	
-0.387573	
-0.387512	
-0.387024	
-0.387512	
-0.38623	
-0.387024	
-0.385803	
-0.387512	
-0.388123	
-0.388062	
-0.389038	
-0.388672	
-0.388245	
-0.387634	
-0.386963	
-0.389282	
-0.387939	
-0.388489	
-0.388062	
-0.389038	
-0.389099	
-0.389404	
-0.389465	
-0.388794	
-0.389282	
-0.388855	
-0.388855	
-0.388611	
-0.388672	
-0.388916	
-0.389099	
-0.389709	
-0.389343	
-0.389343	
-0.388733	
-0.388062	
-0.388367	
-0.388855	
-0.388184	
-0.388489	
-0.388916	
-0.388977	
-0.389893	
-0.389343	
-0.388855	
-0.387268	
-0.388428	
-0.388672	
-0.388428	
-0.387268	
-0.386902	
-0.388184	
-0.388367	
-0.388672	
-0.387939	
-0.387756	
-0.387695	
-0.387756	
-0.387573	
-0.387451	
-0.387634	
-0.387024	
-0.387207	
-0.38855	
-0.387878	
-0.388489	
-0.386414	
-0.38739	
-0.387512	
-0.387085	
-0.386475	
-0.387085	
-0.386963	
-0.38678	
-0.386658	
-0.38678	
-0.386475	
-0.385803	
-0.386292	
-0.385254	
-0.385803	
-0.385193	
-0.384888	
-0.385864	
-0.386047	
-0.386353	
-0.385193	
-0.384888	
-0.385254	
-0.385437	
-0.384766	
-0.385071	
-0.38501	
-0.385132	
-0.385498	
-0.38562	
-0.385437	
-0.385925	
-0.383667	
-0.38501	
-0.385742	
-0.385132	
-0.383789	
-0.383789	
-0.384521	
-0.385132	
-0.385071	
-0.384949	
-0.384827	
-0.384949	
-0.385254	
-0.383911	
-0.38501	
-0.384888	
-0.385498	
-0.385925	
-0.386292	
-0.386292	
-0.386475	
-0.384766	
-0.38623	
-0.386597	
-0.386292	
-0.385315	
-0.385742	
-0.385864	
-0.385986	
-0.386597	
-0.386902	
-0.38678	
-0.386108	
-0.38623	
-0.386536	
-0.386292	
-0.385681	
-0.385437	
-0.386292	
-0.387329	
-0.386536	
-0.386719	
-0.386475	
-0.387512	
-0.387573	
-0.386169	
-0.387085	
-0.387146	
-0.38739	
-0.387573	
-0.387573	
-0.388123	
-0.387878	
-0.387939	
-0.388245	
-0.388916	
-0.388062	
-0.387878	
-0.387878	
-0.388184	
-0.388977	
-0.388306	
-0.389038	
-0.388611	
-0.388916	
-0.388123	
-0.388672	
-0.387939	
-0.387146	
-0.387207	
-0.38855	
-0.388428	
-0.388916	
-0.388794	
-0.388	
-0.387878	
-0.388306	
-0.38739	
-0.387695	
-0.387085	
-0.387512	
-0.388	
-0.38739	
-0.387512	
-0.387512	
-0.387024	
-0.387207	
-0.387939	
-0.386658	
-0.386719	
-0.386414	
-0.386658	
-0.387451	
-0.386536	
-0.38678	
-0.386047	
-0.386658	
-0.385986	
-0.386292	
-0.385803	
-0.384827	
-0.38501	
-0.385742	
-0.385437	
-0.386047	
-0.385742	
-0.38623	
-0.385315	
-0.385071	
-0.38385	
-0.384705	
-0.384644	
-0.384399	
-0.385071	
-0.384277	
-0.385132	
-0.384094	
-0.384094	
-0.384766	
-0.384949	
-0.383789	
-0.383423	
-0.383545	
-0.38385	
-0.38324	
-0.384155	
-0.384277	
-0.383301	
-0.383057	
-0.383118	
-0.383728	
-0.383423	
-0.382996	
-0.382751	
-0.383667	
-0.383484	
-0.383484	
-0.383545	
-0.384094	
-0.382935	
-0.38385	
-0.382874	
-0.383118	
-0.382324	
-0.383301	
-0.383911	
-0.383301	
-0.38385	
-0.383057	
-0.383667	
-0.384033	
-0.384338	
-0.383301	
-0.383545	
-0.382813	
-0.384277	
-0.384155	
-0.384216	
-0.384705	
-0.384216	
-0.384033	
-0.383911	
-0.384094	
-0.384827	
-0.384033	
-0.384155	
-0.385376	
-0.384888	
-0.384705	
-0.384521	
-0.385376	
-0.384094	
-0.385742	
-0.384521	
-0.384033	
-0.383728	
-0.385071	
-0.385498	
-0.385498	
-0.385681	
-0.384583	
-0.385864	
-0.385315	
-0.385254	
-0.384644	
-0.385742	
-0.384583	
-0.385986	
-0.385986	
-0.386169	
-0.386597	
-0.386475	
-0.386292	
-0.385864	
-0.385925	
-0.385925	
-0.385559	
-0.38623	
-0.386597	
-0.386292	
-0.386108	
-0.385681	
-0.386719	
-0.386047	
-0.387695	
-0.385803	
-0.385925	
-0.384705	
-0.386169	
-0.386414	
-0.385803	
-0.386475	
-0.385864	
-0.386169	
-0.38562	
-0.385559	
-0.384277	
-0.385132	
-0.384338	
-0.385498	
-0.38501	
-0.385193	
-0.385193	
-0.384705	
-0.384705	
-0.384583	
-0.384216	
-0.384155	
-0.384216	
-0.384644	
-0.384827	
-0.384094	
-0.384705	
-0.383606	
-0.384888	
-0.38385	
-0.384583	
-0.383728	
-0.383789	
-0.382751	
-0.384338	
-0.383972	
-0.38324	
-0.38324	
-0.383484	
-0.383362	
-0.382935	
-0.383606	
-0.382019	
-0.382446	
-0.381409	
-0.383484	
-0.382202	
-0.382019	
-0.382568	
-0.38269	
-0.382141	
-0.382263	
-0.38147	
-0.381714	
-0.381531	
-0.381897	
-0.382019	
-0.381714	
-0.381836	
-0.381897	
-0.382446	
-0.381836	
-0.381958	
-0.381592	
-0.381653	
-0.380737	
-0.381897	
-0.381714	
-0.382385	
-0.381531	
-0.382935	
-0.381592	
-0.382385	
-0.38269	
-0.381958	
-0.38208	
-0.380859	
-0.382996	
-0.382385	
-0.382568	
-0.382263	
-0.382935	
-0.382996	
-0.382813	
-0.382629	
-0.382446	
-0.382507	
-0.383484	
-0.383118	
-0.383423	
-0.38324	
-0.384521	
-0.383057	
-0.383545	
-0.383972	
-0.383545	
-0.383423	
-0.382446	
-0.38446	
-0.384094	
-0.383667	
-0.383667	
-0.384583	
-0.384033	
-0.384521	
-0.383911	
-0.384155	
-0.383606	
-0.383423	
-0.384827	
-0.384705	
-0.384766	
-0.384521	
-0.384827	
-0.385437	
-0.385437	
-0.384888	
-0.385254	
-0.385071	
-0.385437	
-0.385437	
-0.385681	
-0.385559	
-0.387146	
-0.385376	
-0.385437	
-0.386047	
-0.385376	
-0.384827	
-0.384521	
-0.386047	
-0.385559	
-0.385681	
-0.384521	
-0.386108	
-0.385437	
-0.385376	
-0.384338	
-0.385437	
-0.38562	
-0.383179	
-0.384949	
-0.385132	
-0.384949	
-0.385193	
-0.384644	
-0.384827	
-0.384216	
-0.384399	
-0.384399	
-0.383972	
-0.384705	
-0.384521	
-0.383911	
-0.384399	
-0.385376	
-0.383911	
-0.383911	
-0.384766	
-0.384583	
-0.384155	
-0.383484	
-0.384399	
-0.384033	
-0.38385	
-0.383911	
-0.384827	
-0.383484	
-0.384094	
-0.382507	
-0.38324	
-0.383179	
-0.381104	
-0.383423	
-0.382813	
-0.383057	
-0.381897	
-0.382507	
-0.382324	
-0.381836	
-0.381897	
-0.382019	
-0.38208	
-0.38208	
-0.381653	
-0.381714	
-0.381653	
-0.383789	
-0.38147	
-0.38147	
-0.381653	
-0.381897	
-0.381775	
-0.38147	
-0.382568	
-0.381897	
-0.381348	
-0.381836	
-0.382446	
-0.38208	
-0.381653	
-0.381836	
-0.381592	
-0.381592	
-0.380554	
-0.382202	
-0.382385	
-0.381836	
-0.381531	
-0.382324	
-0.382141	
-0.382996	
-0.383057	
-0.382324	
-0.382751	
-0.382263	
-0.382629	
-0.38269	
-0.382935	
-0.384399	
-0.38324	
-0.383362	
-0.38324	
-0.382874	
-0.38324	
-0.382935	
-0.38446	
-0.383606	
-0.384033	
-0.383728	
-0.385132	
-0.383606	
-0.383667	
-0.383972	
-0.384094	
-0.384338	
-0.383545	
-0.38501	
-0.384766	
-0.384155	
-0.383911	
-0.384949	
-0.384644	
-0.385071	
-0.385193	
-0.385193	
-0.384766	
-0.38446	
-0.385193	
-0.385498	
-0.385681	
-0.386658	
-0.385498	
-0.38562	
-0.386414	
-0.385681	
-0.385254	
-0.385376	
-0.385681	
-0.385559	
-0.385803	
-0.385681	
-0.38678	
-0.385498	
-0.386169	
-0.38623	
-0.385681	
-0.38562	
-0.384155	
-0.386597	
-0.38562	
-0.385986	
-0.385071	
-0.386047	
-0.385132	
-0.385071	
-0.384705	
-0.384949	
-0.385376	
-0.384033	
-0.384521	
-0.385071	
-0.38446	
-0.385254	
-0.384521	
-0.384644	
-0.384766	
-0.384644	
-0.384155	
-0.383728	
-0.384888	
-0.384277	
-0.38446	
-0.384338	
-0.385132	
-0.384277	
-0.384277	
-0.385376	
-0.384155	
-0.384033	
-0.38324	
-0.385071	
-0.383972	
-0.383728	
-0.382446	
-0.384399	
-0.383179	
-0.38324	
-0.382202	
-0.383301	
-0.383301	
-0.381531	
-0.382935	
-0.382385	
-0.382629	
-0.381958	
-0.382568	
-0.382141	
-0.382324	
-0.381287	
-0.38208	
-0.381409	
-0.382385	
-0.381897	
-0.382019	
-0.382141	
-0.382874	
-0.382324	
-0.382446	
-0.383179	
-0.382019	
-0.381958	
-0.381165	
-0.38324	
-0.381958	
-0.381775	
-0.381958	
-0.383789	
-0.38208	
-0.38208	
-0.381714	
-0.38269	
-0.382324	
-0.381653	
-0.383362	
-0.382751	
-0.383118	
-0.381897	
-0.383545	
-0.383179	
-0.383057	
-0.382629	
-0.383606	
-0.382629	
-0.38269	
-0.383606	
-0.383484	
-0.383545	
-0.384399	
-0.383545	
-0.384277	
-0.384521	
-0.384094	
-0.383545	
-0.382751	
-0.38446	
-0.384277	
-0.383789	
-0.384155	
-0.386169	
-0.384277	
-0.384216	
-0.385254	
-0.384949	
-0.384766	
-0.383545	
-0.385742	
-0.385071	
-0.385193	
-0.384949	
-0.386108	
-0.385376	
-0.38562	
-0.38446	
-0.386169	
-0.385559	
-0.38501	
-0.386169	
-0.385864	
-0.385925	
-0.38623	
-0.38562	
-0.385498	
-0.38623	
-0.385864	
-0.385437	
-0.385559	
-0.385864	
-0.385742	
-0.385559	
-0.385193	
-0.38678	
-0.385803	
-0.385742	
-0.386047	
-0.38562	
-0.385193	
-0.384338	
-0.385986	
-0.385193	
-0.384644	
-0.384827	
-0.385315	
-0.384888	
-0.384583	
-0.384644	
-0.384338	
-0.384521	
-0.382996	
-0.384399	
-0.384277	
-0.384094	
-0.383667	
-0.384277	
-0.384094	
-0.384521	
-0.382813	
-0.383606	
-0.383179	
-0.384338	
-0.38385	
-0.383972	
-0.383606	
-0.383911	
-0.383789	
-0.38324	
-0.383972	
-0.381836	
-0.382813	
-0.382202	
-0.383301	
-0.382813	
-0.382507	
-0.382446	
-0.382568	
-0.382324	
-0.38269	
-0.381592	
-0.381836	
-0.381714	
-0.3797	
-0.382202	
-0.381409	
-0.381348	
-0.380493	
-0.382324	
-0.381592	
-0.38147	
-0.381165	
-0.38147	
-0.38092	
-0.381958	
-0.381165	
-0.381775	
-0.381042	
-0.382324	
-0.382141	
-0.381226	
-0.382263	
-0.380249	
-0.381287	
-0.380676	
-0.382202	
-0.381348	
-0.381226	
-0.381409	
-0.382385	
-0.382019	
-0.382263	
-0.382324	
-0.381653	
-0.381714	
-0.380127	
-0.382385	
-0.38269	
-0.382629	
-0.381165	
-0.382935	
-0.382385	
-0.382751	
-0.38147	
-0.382507	
-0.382202	
-0.382751	
-0.382874	
-0.382996	
-0.382935	
-0.382874	
-0.383545	
-0.383423	
-0.383789	
-0.382324	
-0.382935	
-0.38269	
-0.383545	
-0.38324	
-0.383606	
-0.383118	
-0.38446	
-0.383972	
-0.384338	
-0.384644	
-0.382751	
-0.383789	
-0.382935	
-0.384766	
-0.384338	
-0.383972	
-0.383789	
-0.384888	
-0.384583	
-0.384888	
-0.383423	
-0.384216	
-0.383606	
-0.383972	
-0.384155	
-0.38446	
-0.384338	
-0.384216	
-0.38446	
-0.384094	
-0.385254	
-0.383484	
-0.384277	
-0.383728	
-0.38446	
-0.384277	
-0.383911	
-0.384277	
-0.384155	
-0.384644	
-0.383667	
-0.384277	
-0.382935	
-0.382874	
-0.381836	
-0.384155	
-0.382874	
-0.382874	
-0.382629	
-0.383606	
-0.382996	
-0.382751	
-0.382751	
-0.38147	
-0.382263	
-0.381409	
-0.382874	
-0.382263	
-0.382446	
-0.381653	
-0.382751	
-0.382324	
-0.38269	
-0.380676	
-0.381775	
-0.381592	
-0.381775	
-0.381104	
-0.380981	
-0.381165	
-0.381653	
-0.381775	
-0.380859	
-0.38208	
-0.38031	
-0.380066	
-0.379944	
-0.38092	
-0.380249	
-0.380005	
-0.379578	
-0.38092	
-0.380737	
-0.380249	
-0.38031	
-0.378906	
-0.379333	
-0.378174	
-0.380127	
-0.379761	
-0.379456	
-0.379456	
-0.380859	
-0.379883	
-0.380066	
-0.378784	
-0.379333	
-0.379578	
-0.379333	
-0.379211	
-0.379639	
-0.37915	
-0.379822	
-0.38031	
-0.380066	
-0.380737	
-0.379578	
-0.380188	
-0.379211	
-0.381287	
-0.38031	
-0.380249	
-0.3797	
-0.381104	
-0.380737	
-0.380676	
-0.381897	
-0.3797	
-0.380493	
-0.378906	
-0.380737	
-0.380615	
-0.38092	
-0.380432	
-0.381897	
-0.381104	
-0.381653	
-0.380188	
-0.380554	
-0.381409	
-0.38092	
-0.381042	
-0.381348	
-0.381287	
-0.38208	
-0.382446	
-0.382385	
-0.382446	
-0.38147	
-0.381409	
-0.381897	
-0.382507	
-0.382263	
-0.382324	
-0.382629	
-0.38324	
-0.38324	
-0.382507	
-0.38446	
-0.382446	
-0.38269	
-0.382141	
-0.38385	
-0.382996	
-0.382935	
-0.382507	
-0.383423	
-0.383484	
-0.382751	
-0.382935	
-0.381592	
-0.382751	
-0.380737	
-0.382813	
-0.382874	
-0.382996	
-0.382507	
-0.383362	
-0.382629	
-0.383179	
-0.382324	
-0.382324	
-0.382263	
-0.381958	
-0.38208	
-0.381897	
-0.38208	
-0.382263	
-0.382568	
-0.381958	
-0.381897	
-0.381714	
-0.38147	
-0.381348	
-0.382019	
-0.381531	
-0.381348	
-0.381348	
-0.382202	
-0.382324	
-0.381531	
-0.382568	
-0.380432	
-0.380798	
-0.380371	
-0.382629	
-0.380981	
-0.38092	
-0.38031	
-0.381409	
-0.381409	
-0.38092	
-0.381042	
-0.379822	
-0.379883	
-0.378174	
-0.380188	
-0.379944	
-0.379639	
-0.379333	
-0.379944	
-0.379883	
-0.379822	
-0.379089	
-0.379028	
-0.378662	
-0.379211	
-0.37915	
-0.379028	
-0.378967	
-0.380127	
-0.379761	
-0.379395	
-0.379822	
-0.378906	
-0.379089	
-0.37854	
-0.380005	
-0.379272	
-0.379272	
-0.378784	
-0.379333	
-0.379333	
-0.379028	
-0.379822	
-0.378052	
-0.379761	
-0.378052	
-0.379578	
-0.379211	
-0.379517	
-0.379272	
-0.379883	
-0.379639	
-0.379822	
-0.380127	
-0.380066	
-0.379883	
-0.379578	
	
