C:\DOCUMENTS AND SETTINGS\JASON\DESKTOP\UFRJ\UFRJ EPHYS\RSCI-BM 12 WK SERIES\070806-RSCI-BM-16\RSCI-BM-16-LEMG\070806-RSCI-BM-16-LEMG-0000.ACQ
0.025000 msec/sample
1 channel
Analog input
Volts
CH1	
2000	
-0.386292	
-0.385559	
-0.386536	
-0.386414	
-0.385986	
-0.385864	
-0.384888	
-0.386536	
-0.386169	
-0.386475	
-0.385803	
-0.385803	
-0.385986	
-0.386536	
-0.386597	
-0.38678	
-0.386169	
-0.385132	
-0.38623	
-0.385681	
-0.385132	
-0.38562	
-0.385376	
-0.38562	
-0.386292	
-0.385315	
-0.385071	
-0.384949	
-0.384216	
-0.385376	
-0.384888	
-0.384949	
-0.38501	
-0.384949	
-0.384949	
-0.385376	
-0.385315	
-0.384888	
-0.384399	
-0.384399	
-0.385498	
-0.385254	
-0.385498	
-0.385132	
-0.384949	
-0.385437	
-0.385193	
-0.384583	
-0.384583	
-0.384094	
-0.384399	
-0.384399	
-0.383301	
-0.383789	
-0.383484	
-0.383972	
-0.383423	
-0.383911	
-0.383179	
-0.383423	
-0.382751	
-0.383301	
-0.382874	
-0.382263	
-0.382324	
-0.383545	
-0.382751	
-0.383179	
-0.382996	
-0.382996	
-0.382751	
-0.382568	
-0.383118	
-0.382751	
-0.382141	
-0.382507	
-0.382874	
-0.38269	
-0.38324	
-0.383972	
-0.382996	
-0.38324	
-0.383179	
-0.38385	
-0.383362	
-0.382202	
-0.383606	
-0.384338	
-0.38385	
-0.384216	
-0.384583	
-0.38385	
-0.383728	
-0.384583	
-0.384155	
-0.384827	
-0.383545	
-0.383789	
-0.385193	
-0.384766	
-0.385193	
-0.385742	
-0.384827	
-0.384949	
-0.385132	
-0.385376	
-0.38501	
-0.384827	
-0.385193	
-0.385437	
-0.385376	
-0.385925	
-0.385986	
-0.385986	
-0.385498	
-0.385437	
-0.386292	
-0.386108	
-0.385864	
-0.386475	
-0.386841	
-0.386963	
-0.387695	
-0.38678	
-0.387024	
-0.387207	
-0.386841	
-0.387329	
-0.387634	
-0.386902	
-0.387146	
-0.387939	
-0.387695	
-0.388245	
-0.387512	
-0.387268	
-0.387268	
-0.386719	
-0.387878	
-0.387634	
-0.386108	
-0.387024	
-0.388	
-0.387695	
-0.387756	
-0.386841	
-0.387329	
-0.386963	
-0.386597	
-0.387573	
-0.386902	
-0.385742	
-0.386658	
-0.387268	
-0.386658	
-0.387085	
-0.386047	
-0.386169	
-0.385925	
-0.385681	
-0.386658	
-0.385315	
-0.38501	
-0.385254	
-0.385742	
-0.385559	
-0.385803	
-0.384399	
-0.384583	
-0.383362	
-0.384399	
-0.384338	
-0.38385	
-0.383667	
-0.383667	
-0.384277	
-0.383606	
-0.384216	
-0.383362	
-0.383484	
-0.383667	
-0.383972	
-0.384399	
-0.383789	
-0.384277	
-0.383911	
-0.384888	
-0.384644	
-0.384644	
-0.383728	
-0.383728	
-0.384155	
-0.384094	
-0.384766	
-0.384521	
-0.383789	
-0.383667	
-0.354431	
-0.357483	
-0.362488	
-0.362793	
-0.363525	
-0.364136	
-0.402405	
-0.391357	
-0.386169	
-0.38385	
-0.384033	
-0.384766	
-0.384155	
-0.384155	
-0.382751	
-0.38385	
-0.383179	
-0.384583	
-0.384705	
-0.384033	
-0.383728	
-0.384033	
-0.385132	
-0.384277	
-0.384705	
-0.383118	
-0.384216	
-0.383484	
-0.385742	
-0.384827	
-0.384766	
-0.384155	
-0.384888	
-0.386292	
-0.385437	
-0.385071	
-0.383972	
-0.384949	
-0.384338	
-0.385681	
-0.385498	
-0.384583	
-0.384155	
-0.384827	
-0.385193	
-0.384766	
-0.383911	
-0.383362	
-0.384399	
-0.385254	
-0.38623	
-0.387451	
-0.388062	
-0.388245	
-0.391418	
-0.394653	
-0.397156	
-0.399841	
-0.401611	
-0.406189	
-0.409851	
-0.411926	
-0.415222	
-0.417358	
-0.420959	
-0.424011	
-0.428589	
-0.432556	
-0.434448	
-0.437439	
-0.438782	
-0.440552	
-0.440186	
-0.439026	
-0.437683	
-0.437439	
-0.437744	
-0.435608	
-0.434326	
-0.431641	
-0.432373	
-0.432495	
-0.432251	
-0.432739	
-0.430603	
-0.428955	
-0.428467	
-0.426819	
-0.426025	
-0.424072	
-0.423523	
-0.422974	
-0.423645	
-0.422913	
-0.422974	
-0.422607	
-0.42334	
-0.423828	
-0.424011	
-0.425049	
-0.422668	
-0.423462	
-0.424011	
-0.425842	
-0.42627	
-0.426514	
-0.427185	
-0.428101	
-0.428101	
-0.428223	
-0.427856	
-0.426025	
-0.42627	
-0.424133	
-0.425049	
-0.424133	
-0.424255	
-0.422913	
-0.4245	
-0.423523	
-0.423767	
-0.424072	
-0.423035	
-0.423279	
-0.422607	
-0.423584	
-0.423767	
-0.424072	
-0.422729	
-0.424011	
-0.423218	
-0.423889	
-0.421875	
-0.421021	
-0.420715	
-0.418884	
-0.417847	
-0.416504	
-0.414001	
-0.411926	
-0.40863	
-0.404785	
-0.402466	
-0.398865	
-0.394165	
-0.390625	
-0.387207	
-0.381958	
-0.37738	
-0.370667	
-0.365051	
-0.357849	
-0.350647	
-0.343689	
-0.335999	
-0.326843	
-0.318848	
-0.309753	
-0.299744	
-0.289368	
-0.278015	
-0.267761	
-0.256714	
-0.245422	
-0.237061	
-0.227905	
-0.22052	
-0.216187	
-0.212219	
-0.209106	
-0.207397	
-0.205872	
-0.206238	
-0.205872	
-0.206665	
-0.208679	
-0.209412	
-0.212036	
-0.214172	
-0.217529	
-0.221375	
-0.22644	
-0.22937	
-0.234741	
-0.239502	
-0.245422	
-0.250244	
-0.255493	
-0.261108	
-0.266785	
-0.270935	
-0.276428	
-0.279541	
-0.284546	
-0.288818	
-0.292603	
-0.29541	
-0.297729	
-0.301331	
-0.305359	
-0.307373	
-0.310425	
-0.312378	
-0.315979	
-0.317932	
-0.319702	
-0.321106	
-0.323303	
-0.325745	
-0.326599	
-0.329163	
-0.330444	
-0.33197	
-0.333496	
-0.334412	
-0.333496	
-0.335876	
-0.336243	
-0.337341	
-0.337769	
-0.338684	
-0.338745	
-0.339905	
-0.339355	
-0.341492	
-0.34137	
-0.34198	
-0.342346	
-0.342896	
-0.342896	
-0.344177	
-0.343872	
-0.344482	
-0.344666	
-0.345825	
-0.345459	
-0.345581	
-0.344299	
-0.345154	
-0.346558	
-0.346924	
-0.347046	
-0.347534	
-0.348389	
-0.347839	
-0.348389	
-0.347412	
-0.347717	
-0.347839	
-0.347961	
-0.34729	
-0.349182	
-0.347412	
-0.347778	
-0.347229	
-0.34845	
-0.347839	
-0.347473	
-0.346436	
-0.346924	
-0.346924	
-0.348145	
-0.348083	
-0.347839	
-0.348572	
-0.348572	
-0.349182	
-0.349487	
-0.348633	
-0.348816	
-0.348694	
-0.350037	
-0.351135	
-0.350525	
-0.350891	
-0.351257	
-0.352417	
-0.35321	
-0.351563	
-0.351196	
-0.351868	
-0.352783	
-0.353455	
-0.352722	
-0.353455	
-0.353027	
-0.353638	
-0.354065	
-0.354553	
-0.354065	
-0.354309	
-0.354065	
-0.355408	
-0.35498	
-0.355469	
-0.355896	
-0.357361	
-0.356812	
-0.358215	
-0.355957	
-0.356873	
-0.355957	
-0.358459	
-0.358704	
-0.359192	
-0.359741	
-0.360291	
-0.361267	
-0.362122	
-0.361267	
-0.360962	
-0.361572	
-0.362915	
-0.362183	
-0.362549	
-0.36322	
-0.363098	
-0.363708	
-0.363403	
-0.363098	
-0.362305	
-0.363586	
-0.362915	
-0.363953	
-0.364136	
-0.364319	
-0.364868	
-0.365784	
-0.365356	
-0.366394	
-0.365356	
-0.364868	
-0.365967	
-0.366211	
-0.366455	
-0.366638	
-0.36731	
-0.367676	
-0.368225	
-0.368164	
-0.367493	
-0.367676	
-0.368042	
-0.367859	
-0.368652	
-0.368774	
-0.368164	
-0.369324	
-0.370544	
-0.369568	
-0.370361	
-0.368896	
-0.369507	
-0.370239	
-0.370239	
-0.369751	
-0.368774	
-0.369568	
-0.370483	
-0.371033	
-0.37085	
-0.371521	
-0.370239	
-0.371582	
-0.369019	
-0.371155	
-0.370361	
-0.371338	
-0.37146	
-0.372742	
-0.371521	
-0.371887	
-0.370972	
-0.371704	
-0.371948	
-0.370789	
-0.372009	
-0.372375	
-0.372437	
-0.372437	
-0.373169	
-0.372375	
-0.373108	
-0.371399	
-0.372925	
-0.371704	
-0.371704	
-0.371765	
-0.371948	
-0.371826	
-0.372375	
-0.371887	
-0.372314	
-0.372559	
-0.371948	
-0.371399	
-0.370972	
-0.372009	
-0.371887	
-0.372131	
-0.372437	
-0.373169	
-0.372681	
-0.373413	
-0.370972	
-0.373291	
-0.37207	
-0.372559	
-0.372192	
-0.37323	
-0.372986	
-0.374878	
-0.373779	
-0.373779	
-0.373779	
-0.374512	
-0.373779	
-0.373657	
-0.374512	
-0.374512	
-0.374817	
-0.374817	
-0.374023	
-0.374817	
-0.375549	
-0.375061	
-0.376038	
-0.374634	
-0.37561	
-0.375305	
-0.376038	
-0.375916	
-0.37738	
-0.376587	
-0.376892	
-0.375793	
-0.377014	
-0.376831	
-0.37616	
-0.377197	
-0.377869	
-0.378052	
-0.380005	
-0.378784	
-0.379517	
-0.379639	
-0.3797	
-0.380432	
-0.378723	
-0.380371	
-0.380066	
-0.380798	
-0.380798	
-0.379883	
-0.380005	
-0.380371	
-0.380981	
-0.38092	
-0.380127	
-0.380615	
-0.380432	
-0.38031	
-0.380859	
-0.381348	
-0.380249	
-0.380615	
-0.380066	
-0.38092	
-0.38147	
-0.3797	
-0.38092	
-0.380737	
-0.380981	
-0.381836	
-0.380493	
-0.380798	
-0.380981	
-0.381165	
-0.381653	
-0.381897	
-0.38092	
-0.381104	
-0.38092	
-0.381714	
-0.382446	
-0.381653	
-0.381348	
-0.381042	
-0.38147	
-0.381653	
-0.381165	
-0.381226	
-0.381409	
-0.380737	
-0.381775	
-0.381348	
-0.381226	
-0.381226	
-0.381836	
-0.381226	
-0.381409	
-0.379761	
-0.381531	
-0.381226	
-0.381775	
-0.382385	
-0.381592	
-0.381897	
-0.379883	
-0.381714	
-0.381897	
-0.382568	
-0.382324	
-0.382019	
-0.381531	
-0.382141	
-0.381714	
-0.381531	
-0.381042	
-0.382751	
-0.381287	
-0.380981	
-0.380554	
-0.380676	
-0.380676	
-0.379517	
-0.382263	
-0.380127	
-0.380615	
-0.380371	
-0.380493	
-0.380188	
-0.379944	
-0.378662	
-0.379517	
-0.3797	
-0.380188	
-0.380859	
-0.380554	
-0.379822	
-0.379456	
-0.380005	
-0.380188	
-0.380615	
-0.380188	
-0.38031	
-0.379944	
-0.38147	
-0.380554	
-0.380554	
-0.380737	
-0.381775	
-0.381104	
-0.380981	
-0.379639	
-0.381409	
-0.381226	
-0.380981	
-0.382141	
-0.381714	
-0.381897	
-0.380981	
-0.382141	
-0.381775	
-0.382385	
-0.381775	
-0.382385	
-0.382324	
-0.38324	
-0.382629	
-0.38269	
-0.382751	
-0.383667	
-0.382996	
-0.382935	
-0.382019	
-0.383362	
-0.383118	
-0.382629	
-0.38501	
-0.383545	
-0.38385	
-0.382813	
-0.383911	
-0.384033	
-0.384094	
-0.384033	
-0.384888	
-0.384399	
-0.384399	
-0.385742	
-0.385193	
-0.384399	
-0.385864	
-0.385742	
-0.385559	
-0.385559	
-0.385864	
-0.385803	
-0.384949	
-0.386963	
-0.385803	
-0.385925	
-0.385925	
-0.386047	
-0.385803	
-0.385742	
-0.384583	
-0.385742	
-0.385986	
-0.384827	
-0.386597	
-0.386047	
-0.38562	
-0.384705	
-0.385986	
-0.385864	
-0.385925	
-0.385864	
-0.385376	
-0.385376	
-0.386047	
-0.386475	
-0.385254	
-0.384521	
-0.385986	
-0.385071	
-0.384949	
-0.38446	
-0.384705	
-0.38446	
-0.384277	
-0.384827	
-0.384766	
-0.384338	
-0.384338	
-0.383789	
-0.383667	
-0.383545	
-0.382019	
-0.383179	
-0.382996	
-0.381653	
-0.383911	
-0.382935	
-0.382568	
-0.382202	
-0.381165	
-0.38208	
-0.382324	
-0.382568	
-0.382996	
-0.382874	
-0.383362	
-0.383057	
-0.383301	
-0.383484	
-0.385071	
-0.38269	
-0.383057	
-0.382507	
-0.383545	
-0.383057	
-0.383423	
-0.383789	
-0.383972	
-0.38324	
-0.383484	
-0.382385	
-0.382507	
-0.382874	
-0.383423	
-0.382935	
-0.382874	
-0.381531	
-0.383728	
-0.383606	
-0.382568	
-0.382751	
-0.382324	
-0.382629	
-0.382324	
-0.38269	
-0.382629	
-0.382629	
-0.383545	
-0.383301	
-0.383423	
-0.383179	
-0.384827	
-0.38269	
-0.38385	
-0.382935	
-0.383972	
-0.383972	
-0.383301	
-0.385132	
-0.384583	
-0.383606	
-0.384277	
-0.384033	
-0.383728	
-0.38324	
-0.383362	
-0.383606	
-0.383606	
-0.382751	
-0.383789	
-0.384338	
-0.383118	
-0.383301	
-0.38324	
-0.383484	
-0.382996	
-0.383423	
-0.383545	
-0.383362	
-0.383484	
-0.384338	
-0.384583	
-0.384644	
-0.385254	
-0.384521	
-0.385071	
-0.385315	
-0.385315	
-0.384949	
-0.38501	
-0.386414	
-0.386475	
-0.385803	
-0.385803	
-0.386841	
-0.385864	
-0.386047	
-0.386902	
-0.386169	
-0.386414	
-0.386169	
-0.38739	
-0.387146	
-0.38678	
-0.386108	
-0.386292	
-0.385742	
-0.385437	
-0.386108	
-0.386108	
-0.385803	
-0.385376	
-0.385986	
-0.386536	
-0.38562	
-0.386108	
-0.385681	
-0.385803	
-0.385925	
-0.384644	
-0.385437	
-0.385193	
-0.386536	
-0.385864	
-0.386108	
-0.385437	
-0.38562	
-0.383545	
-0.384888	
-0.385437	
-0.384827	
-0.384583	
-0.384705	
-0.385376	
-0.384827	
-0.384521	
-0.384583	
-0.384583	
-0.383911	
-0.383362	
-0.384094	
-0.38324	
-0.382935	
-0.382202	
-0.383484	
-0.383118	
-0.38269	
-0.382385	
-0.383484	
-0.382996	
-0.381836	
-0.381897	
-0.382202	
-0.382324	
-0.382263	
-0.382751	
-0.383301	
-0.382813	
-0.382751	
-0.382935	
-0.382507	
-0.382996	
-0.381714	
-0.382568	
-0.383179	
-0.383179	
-0.383423	
-0.383606	
-0.383728	
-0.382874	
-0.382141	
-0.383057	
-0.383484	
-0.382996	
-0.383362	
-0.382751	
-0.383911	
-0.382996	
-0.383545	
-0.38269	
-0.383972	
-0.382263	
-0.382141	
-0.383484	
-0.383423	
-0.383606	
-0.382874	
-0.384033	
-0.384705	
-0.384338	
-0.383667	
-0.383728	
-0.383545	
-0.385071	
-0.383606	
-0.385681	
-0.384521	
-0.386292	
-0.38324	
-0.385437	
-0.384399	
-0.385559	
-0.385193	
-0.384949	
-0.38446	
-0.383179	
-0.383545	
-0.383789	
-0.384277	
-0.384644	
-0.385437	
-0.384216	
-0.384521	
-0.383362	
-0.383423	
-0.385254	
-0.385132	
-0.38501	
-0.385437	
-0.38501	
-0.385437	
-0.386108	
-0.386597	
-0.386292	
-0.38446	
-0.385986	
-0.387634	
-0.385986	
-0.386414	
-0.386902	
-0.385864	
-0.386169	
-0.386169	
-0.386047	
-0.386414	
-0.385986	
-0.385986	
-0.387024	
-0.386841	
-0.387451	
-0.385193	
-0.38623	
-0.38562	
-0.386597	
-0.386108	
-0.385803	
-0.38446	
-0.385681	
-0.385132	
-0.384888	
-0.385376	
-0.384155	
-0.386169	
-0.38623	
-0.385559	
-0.385193	
-0.385071	
-0.383362	
-0.384827	
-0.384888	
-0.384949	
-0.384766	
-0.383362	
-0.383728	
-0.38501	
-0.383972	
-0.385254	
-0.384033	
-0.384094	
-0.383972	
-0.384216	
-0.38385	
-0.38501	
-0.384338	
-0.383789	
-0.384766	
-0.383484	
-0.385071	
-0.382324	
-0.383423	
-0.382751	
-0.383667	
-0.38269	
-0.382996	
-0.382874	
-0.382996	
-0.383118	
-0.38208	
-0.382507	
-0.380066	
-0.381714	
-0.381409	
-0.381226	
-0.381897	
-0.381104	
-0.381042	
-0.381592	
-0.380676	
-0.381897	
-0.380737	
-0.380737	
-0.380798	
-0.381592	
-0.381165	
-0.382324	
-0.381104	
-0.380859	
-0.381287	
-0.381348	
-0.381836	
-0.381409	
-0.380737	
-0.381104	
-0.381836	
-0.381409	
-0.38147	
-0.381042	
-0.381409	
-0.38147	
-0.381897	
-0.382568	
-0.381531	
-0.382324	
-0.382141	
-0.382935	
-0.382324	
-0.382568	
-0.381897	
-0.382935	
-0.384094	
-0.382996	
-0.384155	
-0.38269	
-0.384216	
-0.383911	
-0.38446	
-0.38501	
-0.38446	
-0.383301	
-0.384521	
-0.386353	
-0.384583	
-0.385315	
-0.38385	
-0.384583	
-0.38446	
-0.384705	
-0.385071	
-0.383789	
-0.383179	
-0.38385	
-0.384521	
-0.384277	
-0.38562	
-0.383545	
-0.383606	
-0.383301	
-0.384338	
-0.384094	
-0.383606	
-0.384033	
-0.383484	
-0.385437	
-0.384583	
-0.384155	
-0.383606	
-0.383972	
-0.383423	
-0.384155	
-0.384277	
-0.384399	
-0.384155	
-0.385193	
-0.385315	
-0.384644	
-0.383667	
-0.383667	
-0.384521	
-0.384949	
-0.384521	
-0.384033	
-0.384033	
-0.384155	
-0.384216	
-0.383911	
-0.384399	
-0.382446	
-0.38269	
-0.383301	
-0.38446	
-0.383972	
-0.38324	
-0.382874	
-0.383789	
-0.383789	
-0.383179	
-0.38446	
-0.382996	
-0.383301	
-0.383118	
-0.384338	
-0.38446	
-0.383423	
-0.382751	
-0.383484	
-0.383972	
-0.383362	
-0.383423	
-0.383423	
-0.383057	
-0.382629	
-0.383972	
-0.383911	
-0.382874	
-0.381714	
-0.382202	
-0.383301	
-0.382202	
-0.381409	
-0.381348	
-0.381409	
-0.381653	
-0.382324	
-0.38147	
-0.380981	
-0.379883	
-0.380493	
-0.381592	
-0.381653	
-0.379639	
-0.379395	
-0.380432	
-0.380676	
-0.380798	
-0.380249	
-0.380432	
-0.379211	
-0.38031	
-0.38092	
-0.381958	
-0.379761	
-0.379578	
-0.38031	
-0.381775	
-0.381226	
-0.380615	
-0.381042	
-0.379883	
-0.381042	
-0.381042	
-0.381042	
-0.380554	
-0.380676	
-0.380188	
-0.381226	
-0.381042	
-0.380676	
-0.38092	
-0.381409	
-0.38147	
-0.381897	
-0.381592	
-0.38147	
-0.381653	
-0.38147	
-0.38269	
-0.382813	
-0.381958	
-0.382141	
-0.382813	
-0.383118	
-0.383057	
-0.382629	
-0.382996	
-0.383362	
-0.383667	
-0.384338	
-0.384949	
-0.38385	
-0.384094	
-0.384033	
-0.384338	
-0.384033	
-0.382996	
-0.383423	
-0.383484	
-0.38385	
-0.385132	
-0.38446	
-0.383972	
-0.383484	
-0.383057	
-0.383972	
-0.384399	
-0.382629	
-0.382568	
-0.383362	
-0.38385	
-0.384827	
-0.383789	
-0.383362	
-0.383118	
-0.383728	
-0.383606	
-0.384277	
-0.382202	
-0.383301	
-0.382446	
-0.383789	
-0.384827	
-0.383484	
-0.383423	
-0.382935	
-0.38385	
-0.383362	
-0.383545	
-0.382263	
-0.38324	
-0.381714	
-0.382568	
-0.38385	
-0.382629	
-0.382507	
-0.382507	
-0.383179	
-0.382202	
-0.382141	
-0.381775	
-0.382202	
-0.382446	
-0.382751	
-0.383606	
-0.382324	
-0.382019	
-0.381165	
-0.382935	
-0.382263	
-0.382202	
-0.381165	
-0.382263	
-0.382629	
-0.382996	
-0.383606	
-0.382019	
-0.381775	
-0.382324	
-0.382813	
-0.382141	
-0.380615	
-0.380066	
-0.380737	
-0.380859	
-0.381531	
-0.381287	
-0.380432	
-0.380432	
-0.380005	
-0.38031	
-0.380737	
-0.378967	
-0.379456	
-0.379761	
-0.379761	
-0.380371	
-0.379517	
-0.379761	
-0.379272	
-0.378723	
-0.379883	
-0.380554	
-0.378052	
-0.379089	
-0.378906	
-0.379883	
-0.380188	
-0.379944	
-0.379639	
-0.379333	
-0.380371	
-0.380249	
-0.381165	
-0.380005	
-0.380005	
-0.37915	
-0.380005	
-0.380798	
-0.379944	
-0.380249	
-0.380249	
-0.381042	
-0.380615	
-0.380615	
-0.380493	
-0.380859	
-0.380188	
-0.38147	
-0.382324	
-0.381165	
-0.38147	
-0.381531	
-0.382019	
-0.381775	
-0.381531	
-0.380798	
-0.381531	
-0.38147	
-0.381592	
-0.383362	
-0.38208	
-0.381775	
-0.381775	
-0.382874	
-0.382751	
-0.381409	
-0.381226	
-0.382141	
-0.382996	
-0.382507	
-0.384155	
-0.382935	
-0.382996	
-0.38269	
-0.383667	
-0.383667	
-0.382568	
-0.382202	
-0.38324	
-0.383545	
-0.384277	
-0.384705	
-0.383667	
-0.383972	
-0.382202	
-0.383606	
-0.384155	
-0.383057	
-0.38208	
-0.383179	
-0.383301	
-0.383362	
-0.38385	
-0.383118	
-0.383423	
-0.382324	
-0.382996	
-0.383789	
-0.382507	
-0.382568	
-0.382202	
-0.383118	
-0.383179	
-0.383301	
-0.382507	
-0.382629	
-0.38147	
-0.381958	
-0.381958	
-0.381775	
-0.381226	
-0.380432	
-0.381348	
-0.381897	
-0.381348	
-0.38092	
-0.381592	
-0.380005	
-0.380859	
-0.379456	
-0.3797	
-0.379822	
-0.3797	
-0.379883	
-0.380127	
-0.379761	
-0.379639	
-0.378601	
-0.379333	
-0.379761	
-0.378113	
-0.378845	
-0.379211	
-0.379822	
-0.379639	
-0.380676	
-0.380188	
-0.379456	
-0.379028	
-0.380615	
-0.380554	
-0.37915	
-0.379089	
-0.379089	
-0.379395	
-0.379761	
-0.380859	
-0.37915	
-0.379333	
-0.378967	
-0.380554	
-0.379333	
-0.379028	
-0.378113	
-0.377747	
-0.378906	
-0.379272	
-0.38031	
-0.379089	
-0.3797	
-0.378296	
-0.379395	
-0.378601	
-0.378662	
-0.377686	
-0.378967	
-0.379028	
-0.379456	
-0.380127	
-0.379333	
-0.379883	
-0.37854	
-0.379456	
-0.379578	
-0.379822	
-0.379089	
-0.379883	
-0.380249	
-0.380005	
-0.380676	
-0.379578	
-0.380554	
-0.378784	
-0.380737	
-0.379028	
-0.379089	
-0.378906	
-0.37915	
-0.379578	
-0.379272	
-0.380188	
-0.379211	
-0.38031	
-0.379333	
-0.379944	
-0.37915	
-0.379089	
-0.378845	
-0.379517	
-0.38031	
-0.38092	
-0.381104	
-0.38092	
-0.381165	
-0.381409	
-0.381592	
-0.380371	
-0.380554	
-0.380005	
-0.381409	
-0.380981	
-0.382141	
-0.382263	
-0.381531	
-0.381836	
-0.382507	
-0.381592	
-0.38092	
-0.381592	
-0.381714	
-0.382019	
-0.382874	
-0.382813	
-0.382751	
-0.382202	
-0.382263	
-0.38269	
-0.381775	
-0.380249	
-0.381165	
-0.381042	
-0.381042	
-0.381592	
-0.382324	
-0.382385	
-0.381409	
-0.380798	
-0.381042	
-0.381409	
-0.38092	
-0.380493	
-0.38147	
-0.380798	
-0.38092	
-0.381042	
-0.380371	
-0.380371	
-0.379395	
-0.380493	
-0.380066	
-0.379639	
-0.378723	
-0.379517	
-0.379639	
-0.379639	
-0.3797	
-0.37915	
-0.380249	
-0.378662	
-0.379761	
-0.378418	
-0.378418	
-0.376831	
-0.377808	
-0.377747	
-0.377991	
-0.378235	
-0.377991	
-0.378235	
-0.37738	
-0.378479	
-0.377075	
-0.377563	
-0.37677	
-0.37793	
-0.377808	
-0.37793	
-0.378784	
-0.377502	
-0.378418	
-0.37738	
-0.378723	
-0.376526	
-0.37738	
-0.377136	
-0.377808	
-0.37854	
-0.378052	
-0.378784	
-0.378113	
-0.377686	
-0.377991	
-0.378723	
-0.377014	
-0.377136	
-0.376953	
-0.377808	
-0.377991	
-0.378296	
-0.378784	
-0.377747	
-0.377686	
-0.377747	
-0.378601	
-0.378174	
-0.378418	
-0.377136	
-0.37854	
-0.378418	
-0.379517	
-0.3797	
-0.379211	
-0.378784	
-0.378723	
-0.378601	
-0.378601	
-0.378357	
-0.378296	
-0.378723	
-0.379211	
-0.379883	
-0.379578	
-0.379517	
-0.378296	
-0.378601	
-0.37793	
-0.378357	
-0.378357	
-0.377991	
-0.378845	
-0.37854	
-0.379272	
-0.379944	
-0.380493	
-0.378845	
-0.379456	
-0.379456	
-0.379883	
-0.379639	
-0.380371	
-0.3797	
-0.380554	
-0.380981	
-0.381042	
-0.381042	
-0.379517	
-0.381104	
-0.379639	
-0.380737	
-0.380432	
-0.380737	
-0.381104	
-0.381104	
-0.381348	
-0.38147	
-0.381775	
-0.380798	
-0.381104	
-0.379639	
-0.380981	
-0.380066	
-0.380737	
-0.381409	
-0.380859	
-0.380432	
-0.38031	
-0.38031	
-0.380005	
-0.381348	
-0.379517	
-0.380615	
-0.378113	
-0.379822	
-0.379944	
-0.380737	
-0.380005	
-0.379883	
-0.3797	
-0.379395	
-0.379822	
-0.37854	
-0.378906	
-0.376892	
-0.378784	
-0.379028	
-0.379822	
-0.379089	
-0.378967	
-0.378723	
-0.379028	
-0.378479	
-0.379089	
-0.378479	
-0.377014	
-0.378845	
-0.378357	
-0.378845	
-0.378723	
-0.378174	
-0.37738	
-0.377869	
-0.377747	
-0.377319	
-0.376526	
-0.376709	
-0.376953	
-0.377014	
-0.377136	
-0.377502	
-0.376831	
-0.375427	
-0.376465	
-0.375977	
-0.375732	
-0.375732	
-0.376282	
-0.376099	
-0.375977	
-0.376709	
-0.376709	
-0.377197	
-0.375488	
-0.37616	
-0.375977	
-0.376404	
-0.376404	
-0.376465	
-0.376709	
-0.37677	
-0.377075	
-0.376709	
-0.377441	
-0.376526	
-0.37793	
-0.376282	
-0.376526	
-0.376465	
-0.377441	
-0.377319	
-0.377991	
-0.377869	
-0.377441	
-0.377747	
-0.37738	
-0.380005	
-0.377991	
-0.37793	
-0.376587	
-0.378235	
-0.378601	
-0.378723	
-0.379578	
-0.3797	
-0.379883	
-0.379822	
-0.380432	
-0.379028	
-0.380493	
-0.378113	
-0.380249	
-0.380554	
-0.380859	
-0.380615	
-0.380615	
-0.380188	
-0.380432	
-0.379944	
-0.378784	
-0.379456	
-0.377563	
-0.379578	
-0.380066	
-0.380188	
-0.380249	
-0.379761	
-0.379517	
-0.379761	
-0.3797	
-0.378906	
-0.379456	
-0.379639	
-0.379944	
-0.379761	
-0.380432	
-0.380676	
-0.38031	
-0.379456	
-0.380615	
-0.380005	
-0.379822	
-0.3797	
-0.379761	
-0.380188	
-0.38031	
-0.381409	
-0.38092	
-0.380554	
-0.380188	
-0.380371	
-0.379883	
-0.379761	
-0.379272	
-0.379883	
-0.379822	
-0.379944	
-0.380371	
-0.380432	
-0.380005	
-0.378784	
-0.380615	
-0.379028	
-0.3797	
-0.378296	
-0.3797	
-0.380005	
-0.379333	
-0.380493	
-0.380676	
-0.380859	
-0.378906	
-0.38031	
-0.379578	
-0.3797	
-0.378357	
-0.379639	
-0.379578	
-0.379883	
-0.379944	
-0.380554	
-0.380249	
-0.379395	
-0.379822	
-0.378662	
-0.378662	
-0.378357	
-0.378662	
-0.37854	
-0.378357	
-0.377808	
-0.378662	
-0.378357	
-0.377991	
-0.377991	
-0.376892	
-0.377319	
-0.377075	
-0.377502	
-0.37738	
-0.377258	
-0.377319	
-0.377625	
-0.377258	
-0.377625	
-0.376648	
-0.375732	
-0.376648	
-0.376343	
-0.377136	
-0.377197	
-0.377808	
-0.377869	
-0.378418	
-0.377991	
-0.378357	
-0.376892	
-0.375977	
-0.376282	
-0.376038	
-0.377869	
-0.377869	
-0.378723	
-0.377747	
-0.377991	
-0.377563	
-0.378296	
-0.377014	
-0.377441	
-0.376892	
-0.378601	
-0.378296	
-0.378479	
-0.379578	
-0.378784	
-0.379517	
-0.37854	
-0.379517	
-0.378662	
-0.378784	
-0.378906	
-0.379944	
-0.380066	
-0.380493	
-0.381042	
-0.381042	
-0.381409	
-0.380676	
-0.382019	
-0.380066	
-0.380981	
-0.381042	
-0.380981	
-0.381409	
-0.381775	
-0.381165	
-0.381409	
-0.381897	
-0.38092	
-0.381836	
-0.380066	
-0.381104	
-0.380798	
-0.381165	
-0.381287	
-0.380981	
-0.381042	
-0.381348	
-0.381714	
	
