C:\DOCUMENTS AND SETTINGS\JASON\DESKTOP\UFRJ\UFRJ EPHYS\RSCI-BM 12 WK SERIES\070806-RSCI-BM-16\RSCI-BM-16-LEMG\070806-RSCI-BM-16-LEMG-0015.ACQ
0.025000 msec/sample
1 channel
Analog input
Volts
CH1	
2000	
-0.383179	
-0.384277	
-0.382813	
-0.383484	
-0.382568	
-0.384338	
-0.383484	
-0.38324	
-0.383118	
-0.383301	
-0.383118	
-0.383606	
-0.383301	
-0.383606	
-0.381348	
-0.384216	
-0.383484	
-0.384155	
-0.38324	
-0.383301	
-0.383423	
-0.384277	
-0.383972	
-0.383667	
-0.381897	
-0.384827	
-0.383728	
-0.384033	
-0.383423	
-0.383667	
-0.383423	
-0.384033	
-0.38385	
-0.383911	
-0.382751	
-0.384583	
-0.38385	
-0.383789	
-0.383728	
-0.383484	
-0.38324	
-0.383179	
-0.38324	
-0.383484	
-0.382813	
-0.384521	
-0.384399	
-0.38385	
-0.383911	
-0.383362	
-0.383118	
-0.382568	
-0.383057	
-0.382996	
-0.382507	
-0.383301	
-0.382629	
-0.382202	
-0.383118	
-0.382263	
-0.382202	
-0.381409	
-0.382324	
-0.38208	
-0.38147	
-0.382874	
-0.382263	
-0.382141	
-0.382507	
-0.382324	
-0.382629	
-0.381287	
-0.382263	
-0.382324	
-0.382202	
-0.383667	
-0.38269	
-0.382629	
-0.382874	
-0.383606	
-0.383179	
-0.382629	
-0.383789	
-0.383728	
-0.383423	
-0.38501	
-0.384338	
-0.384399	
-0.383728	
-0.384033	
-0.384216	
-0.383972	
-0.38446	
-0.384216	
-0.383911	
-0.385071	
-0.384583	
-0.384216	
-0.384094	
-0.384766	
-0.384644	
-0.384644	
-0.385132	
-0.384766	
-0.384644	
-0.385254	
-0.384888	
-0.384766	
-0.385437	
-0.385742	
-0.385864	
-0.385437	
-0.386658	
-0.386047	
-0.38562	
-0.385193	
-0.386169	
-0.386353	
-0.386841	
-0.386353	
-0.385986	
-0.385681	
-0.386719	
-0.38623	
-0.386047	
-0.385376	
-0.385742	
-0.386108	
-0.386963	
-0.386108	
-0.386292	
-0.385559	
-0.386597	
-0.385986	
-0.385803	
-0.38501	
-0.385681	
-0.385925	
-0.386597	
-0.386597	
-0.385986	
-0.386047	
-0.386963	
-0.385803	
-0.385376	
-0.384583	
-0.385681	
-0.385803	
-0.385315	
-0.385681	
-0.38562	
-0.385376	
-0.386597	
-0.385254	
-0.384949	
-0.383911	
-0.384644	
-0.384644	
-0.384338	
-0.385193	
-0.38385	
-0.383667	
-0.384766	
-0.383911	
-0.384033	
-0.382751	
-0.384155	
-0.384338	
-0.384583	
-0.385559	
-0.384277	
-0.384216	
-0.384583	
-0.384705	
-0.384705	
-0.383118	
-0.385559	
-0.385315	
-0.385742	
-0.386292	
-0.385376	
-0.385803	
-0.385498	
-0.385681	
-0.385925	
-0.384888	
-0.387451	
-0.386597	
-0.386841	
-0.38678	
-0.387024	
-0.387085	
-0.387573	
-0.38739	
-0.387695	
-0.386353	
-0.388245	
-0.371155	
-0.368408	
-0.37085	
-0.370789	
-0.37085	
-0.371582	
-0.391846	
-0.390442	
-0.388306	
-0.388855	
-0.388306	
-0.388184	
-0.388916	
-0.388489	
-0.388	
-0.387939	
-0.388977	
-0.388611	
-0.388306	
-0.389526	
-0.388245	
-0.388611	
-0.388611	
-0.388	
-0.388245	
-0.388062	
-0.388062	
-0.388428	
-0.387756	
-0.388733	
-0.388	
-0.388428	
-0.387695	
-0.388245	
-0.388123	
-0.388306	
-0.389282	
-0.388489	
-0.388062	
-0.388672	
-0.387939	
-0.388367	
-0.38739	
-0.387512	
-0.387207	
-0.387146	
-0.387756	
-0.386719	
-0.387268	
-0.387817	
-0.388428	
-0.390015	
-0.391418	
-0.393494	
-0.395752	
-0.399414	
-0.403931	
-0.406372	
-0.410339	
-0.415649	
-0.418884	
-0.423645	
-0.428223	
-0.4328	
-0.438843	
-0.446228	
-0.451355	
-0.457397	
-0.461975	
-0.467407	
-0.471741	
-0.47467	
-0.477295	
-0.479126	
-0.480347	
-0.482788	
-0.483337	
-0.484009	
-0.484436	
-0.486206	
-0.486389	
-0.486572	
-0.486023	
-0.485413	
-0.484863	
-0.486145	
-0.484375	
-0.483398	
-0.481445	
-0.482422	
-0.482483	
-0.482605	
-0.482605	
-0.483093	
-0.48407	
-0.48584	
-0.485046	
-0.486084	
-0.486267	
-0.488586	
-0.490417	
-0.49292	
-0.494019	
-0.495178	
-0.495789	
-0.498291	
-0.49762	
-0.497375	
-0.49646	
-0.49646	
-0.496155	
-0.495972	
-0.495483	
-0.495056	
-0.493774	
-0.495728	
-0.494263	
-0.493896	
-0.493958	
-0.494141	
-0.494141	
-0.494873	
-0.493896	
-0.493225	
-0.49176	
-0.493103	
-0.491333	
-0.490662	
-0.489868	
-0.488953	
-0.487915	
-0.486267	
-0.483398	
-0.479797	
-0.476013	
-0.474426	
-0.46991	
-0.46582	
-0.461548	
-0.456848	
-0.451233	
-0.446289	
-0.440186	
-0.433044	
-0.425537	
-0.419128	
-0.40979	
-0.40094	
-0.39032	
-0.381287	
-0.370422	
-0.360229	
-0.348206	
-0.337646	
-0.326294	
-0.31604	
-0.304077	
-0.292786	
-0.282288	
-0.27356	
-0.251099	
-0.237061	
-0.232727	
-0.227051	
-0.222046	
-0.220337	
-0.236694	
-0.237061	
-0.234314	
-0.234131	
-0.235779	
-0.238098	
-0.239014	
-0.242065	
-0.243896	
-0.249939	
-0.25293	
-0.256714	
-0.260132	
-0.265381	
-0.270325	
-0.274658	
-0.279297	
-0.283508	
-0.288757	
-0.293945	
-0.297729	
-0.301514	
-0.305481	
-0.308899	
-0.313232	
-0.315918	
-0.318726	
-0.321167	
-0.32605	
-0.327637	
-0.330139	
-0.332275	
-0.334961	
-0.337219	
-0.339905	
-0.341003	
-0.342529	
-0.34314	
-0.346191	
-0.346191	
-0.347473	
-0.348633	
-0.350403	
-0.352173	
-0.353882	
-0.356018	
-0.358398	
-0.362732	
-0.365662	
-0.369019	
-0.373474	
-0.377136	
-0.381348	
-0.386047	
-0.389954	
-0.394592	
-0.397766	
-0.406738	
-0.410706	
-0.417358	
-0.421692	
-0.429504	
-0.434692	
-0.440247	
-0.443176	
-0.445374	
-0.447083	
-0.448242	
-0.449524	
-0.450439	
-0.450317	
-0.449951	
-0.448914	
-0.449036	
-0.447815	
-0.445557	
-0.446594	
-0.443787	
-0.442566	
-0.439514	
-0.440491	
-0.439941	
-0.440674	
-0.439941	
-0.440125	
-0.438965	
-0.441956	
-0.441101	
-0.442444	
-0.442261	
-0.44519	
-0.445984	
-0.447937	
-0.448303	
-0.447998	
-0.449097	
-0.4505	
-0.449402	
-0.450439	
-0.449341	
-0.450745	
-0.451111	
-0.451294	
-0.452026	
-0.45166	
-0.454712	
-0.455505	
-0.455933	
-0.456604	
-0.456177	
-0.456848	
-0.456116	
-0.456482	
-0.456299	
-0.456238	
-0.457031	
-0.45575	
-0.454346	
-0.45282	
-0.4505	
-0.447937	
-0.444214	
-0.44165	
-0.436951	
-0.432434	
-0.427795	
-0.421753	
-0.415161	
-0.408203	
-0.400024	
-0.392334	
-0.382202	
-0.372986	
-0.362244	
-0.350769	
-0.339661	
-0.327026	
-0.313477	
-0.302063	
-0.28894	
-0.278809	
-0.268494	
-0.259705	
-0.251221	
-0.242371	
-0.236877	
-0.231445	
-0.225159	
-0.22113	
-0.216248	
-0.215088	
-0.214111	
-0.214844	
-0.216003	
-0.217957	
-0.222717	
-0.225952	
-0.230591	
-0.234863	
-0.241394	
-0.24707	
-0.25293	
-0.258118	
-0.263367	
-0.268555	
-0.274902	
-0.279175	
-0.285034	
-0.287476	
-0.292419	
-0.29657	
-0.300049	
-0.302612	
-0.304993	
-0.310547	
-0.312317	
-0.315125	
-0.316772	
-0.320435	
-0.322937	
-0.325989	
-0.327515	
-0.329651	
-0.331299	
-0.334412	
-0.335449	
-0.337097	
-0.338562	
-0.339417	
-0.341919	
-0.342346	
-0.343384	
-0.344177	
-0.346558	
-0.346252	
-0.347473	
-0.346558	
-0.348511	
-0.349121	
-0.350159	
-0.349854	
-0.350586	
-0.350342	
-0.351807	
-0.3526	
-0.352051	
-0.352234	
-0.351929	
-0.353882	
-0.355042	
-0.35437	
-0.354919	
-0.354187	
-0.356018	
-0.355896	
-0.355957	
-0.356995	
-0.3573	
-0.357849	
-0.357971	
-0.358093	
-0.358704	
-0.359009	
-0.358887	
-0.358215	
-0.358032	
-0.358093	
-0.359131	
-0.359741	
-0.359619	
-0.360107	
-0.359802	
-0.361389	
-0.361572	
-0.361084	
-0.36084	
-0.361694	
-0.362061	
-0.362549	
-0.362244	
-0.36261	
-0.360291	
-0.362427	
-0.361145	
-0.362366	
-0.362488	
-0.362427	
-0.362183	
-0.36377	
-0.362488	
-0.362915	
-0.361023	
-0.362	
-0.360901	
-0.362061	
-0.361755	
-0.361816	
-0.361877	
-0.362366	
-0.362061	
-0.361877	
-0.362915	
-0.363037	
-0.362488	
-0.361206	
-0.361389	
-0.363098	
-0.364502	
-0.363159	
-0.363586	
-0.362122	
-0.363708	
-0.362732	
-0.363892	
-0.363953	
-0.364624	
-0.364929	
-0.365173	
-0.365234	
-0.364746	
-0.366394	
-0.366211	
-0.365845	
-0.365234	
-0.365601	
-0.366882	
-0.368225	
-0.366699	
-0.36792	
-0.365417	
-0.36792	
-0.367188	
-0.368225	
-0.368164	
-0.368774	
-0.369568	
-0.369263	
-0.369446	
-0.36969	
-0.370789	
-0.37085	
-0.371155	
-0.370667	
-0.371155	
-0.371826	
-0.372437	
-0.371948	
-0.372498	
-0.372131	
-0.372192	
-0.372375	
-0.372009	
-0.371887	
-0.371704	
-0.372742	
-0.372803	
-0.372925	
-0.373474	
-0.372803	
-0.373718	
-0.372253	
-0.373352	
-0.373596	
-0.37384	
-0.374268	
-0.374573	
-0.374023	
-0.373535	
-0.374207	
-0.373962	
-0.373901	
-0.374146	
-0.373962	
-0.374817	
-0.375244	
-0.374695	
-0.375122	
-0.375244	
-0.374939	
-0.375244	
-0.374878	
-0.374939	
-0.37561	
-0.375061	
-0.375244	
-0.37561	
-0.375183	
-0.376038	
-0.375305	
-0.376038	
-0.375061	
-0.375916	
-0.375366	
-0.375977	
-0.376099	
-0.375549	
-0.375854	
-0.37616	
-0.374573	
-0.375305	
-0.374634	
-0.375244	
-0.374512	
-0.375793	
-0.375793	
-0.375488	
-0.375488	
-0.375549	
-0.375427	
-0.375916	
-0.375366	
-0.375305	
-0.375183	
-0.377014	
-0.376099	
-0.375854	
-0.375549	
-0.375916	
-0.376953	
-0.377075	
-0.376831	
-0.377258	
-0.376099	
-0.377625	
-0.377625	
-0.377441	
-0.378662	
-0.377258	
-0.378601	
-0.377625	
-0.378418	
-0.378052	
-0.379089	
-0.378601	
-0.379211	
-0.37854	
-0.380432	
-0.378601	
-0.378784	
-0.377686	
-0.379089	
-0.378967	
-0.380249	
-0.379272	
-0.379395	
-0.37915	
-0.380676	
-0.380066	
-0.380127	
-0.380127	
-0.380066	
-0.379517	
-0.380981	
-0.381714	
-0.381287	
-0.382446	
-0.381226	
-0.381165	
-0.380554	
-0.381775	
-0.381592	
-0.382629	
-0.382324	
-0.382813	
-0.381897	
-0.382935	
-0.381653	
-0.381592	
-0.381897	
-0.382202	
-0.382019	
-0.38324	
-0.382507	
-0.382568	
-0.381287	
-0.381775	
-0.382385	
-0.382446	
-0.381958	
-0.382385	
-0.381714	
-0.382385	
-0.382996	
-0.382568	
-0.383179	
-0.382019	
-0.382141	
-0.381714	
-0.38208	
-0.381714	
-0.381897	
-0.382202	
-0.383423	
-0.381958	
-0.383118	
-0.38092	
-0.382263	
-0.38092	
-0.381714	
-0.381287	
-0.38147	
-0.381042	
-0.381653	
-0.380188	
-0.381165	
-0.380493	
-0.381165	
-0.380066	
-0.380127	
-0.380432	
-0.381409	
-0.381348	
-0.38147	
-0.380188	
-0.382019	
-0.381287	
-0.381348	
-0.380249	
-0.381287	
-0.381958	
-0.382935	
-0.382263	
-0.382446	
-0.381897	
-0.383484	
-0.382629	
-0.382813	
-0.382263	
-0.383606	
-0.383057	
-0.384949	
-0.384033	
-0.383972	
-0.383484	
-0.38501	
-0.384766	
-0.384888	
-0.383667	
-0.385315	
-0.384338	
-0.385742	
-0.385132	
-0.385559	
-0.385437	
-0.385986	
-0.385559	
-0.386108	
-0.384888	
-0.385437	
-0.384644	
-0.386536	
-0.385925	
-0.386169	
-0.387085	
-0.387024	
-0.386292	
-0.385681	
-0.385742	
-0.385925	
-0.38623	
-0.386719	
-0.386902	
-0.386963	
-0.387512	
-0.386719	
-0.386353	
-0.385986	
-0.386108	
-0.385681	
-0.386475	
-0.386414	
-0.386597	
-0.385376	
-0.38623	
-0.386597	
-0.385925	
-0.38623	
-0.386597	
-0.385864	
-0.386719	
-0.386108	
-0.386292	
-0.385986	
-0.385925	
-0.385193	
-0.386108	
-0.386169	
-0.385498	
-0.385071	
-0.385742	
-0.385071	
-0.386292	
-0.385376	
-0.385925	
-0.384033	
-0.38501	
-0.384399	
-0.385498	
-0.385132	
-0.385986	
-0.385315	
-0.385254	
-0.384644	
-0.385925	
-0.384949	
-0.384766	
-0.383301	
-0.38385	
-0.383667	
-0.384399	
-0.383911	
-0.384033	
-0.383118	
-0.384338	
-0.383911	
-0.384155	
-0.383789	
-0.384155	
-0.383972	
-0.38501	
-0.384521	
-0.384644	
-0.384644	
-0.385315	
-0.385437	
-0.385864	
-0.38623	
-0.386353	
-0.386841	
-0.387085	
-0.387146	
-0.387268	
-0.387268	
-0.387085	
-0.387634	
-0.387512	
-0.387512	
-0.387207	
-0.388062	
-0.387817	
-0.387512	
-0.388184	
-0.387695	
-0.387695	
-0.386719	
-0.387756	
-0.387573	
-0.386841	
-0.387756	
-0.387146	
-0.387268	
-0.388	
-0.387085	
-0.386719	
-0.385498	
-0.38678	
-0.38623	
-0.386658	
-0.386597	
-0.386475	
-0.386658	
-0.386841	
-0.386475	
-0.385254	
-0.385803	
-0.386047	
-0.385437	
-0.385559	
-0.385681	
-0.385498	
-0.385498	
-0.385132	
-0.385376	
-0.384277	
-0.384521	
-0.384766	
-0.384277	
-0.384399	
-0.384399	
-0.384094	
-0.384155	
-0.38385	
-0.384216	
-0.383545	
-0.383972	
-0.383789	
-0.384033	
-0.384277	
-0.38446	
-0.384644	
-0.385071	
-0.38385	
-0.384155	
-0.383301	
-0.384338	
-0.383667	
-0.383667	
-0.383606	
-0.383911	
-0.384338	
-0.38562	
-0.383667	
-0.384521	
-0.382874	
-0.38385	
-0.383057	
-0.38385	
-0.383423	
-0.38446	
-0.383972	
-0.385498	
-0.383484	
-0.384888	
-0.383545	
-0.384216	
-0.383545	
-0.384644	
-0.384338	
-0.385071	
-0.384521	
-0.385437	
-0.383606	
-0.384644	
-0.383057	
-0.38446	
-0.38446	
-0.384155	
-0.384216	
-0.385376	
-0.384644	
-0.385681	
-0.384277	
-0.385254	
-0.384399	
-0.385681	
-0.385071	
-0.385254	
-0.385071	
-0.385925	
-0.385681	
-0.386353	
-0.385254	
-0.385498	
-0.384827	
-0.385498	
-0.385559	
-0.385803	
-0.385132	
-0.385986	
-0.386108	
-0.385864	
-0.384583	
-0.38324	
-0.384094	
-0.384827	
-0.384827	
-0.384705	
-0.384155	
-0.385315	
-0.385071	
-0.384888	
-0.383118	
-0.382874	
-0.382935	
-0.384277	
-0.38385	
-0.383545	
-0.383606	
-0.384766	
-0.38385	
-0.38446	
-0.382813	
-0.383728	
-0.38269	
-0.383911	
-0.384033	
-0.383545	
-0.383179	
-0.384277	
-0.383362	
-0.383972	
-0.382385	
-0.382996	
-0.382141	
-0.383301	
-0.38269	
-0.382324	
-0.38269	
-0.383179	
-0.38269	
-0.382568	
-0.381104	
-0.382202	
-0.381104	
-0.381958	
-0.381592	
-0.381958	
-0.381287	
-0.382935	
-0.382446	
-0.382629	
-0.381409	
-0.381958	
-0.380371	
-0.381592	
-0.381653	
-0.381287	
-0.380493	
-0.382813	
-0.381897	
-0.382996	
-0.382629	
-0.381836	
-0.381104	
-0.381836	
-0.381897	
-0.381897	
-0.380371	
-0.383057	
-0.381714	
-0.382507	
-0.382568	
-0.38269	
-0.38147	
-0.382385	
-0.382629	
-0.382202	
-0.382446	
-0.383972	
-0.382629	
-0.383423	
-0.382141	
-0.383484	
-0.382996	
-0.383911	
-0.384338	
-0.384338	
-0.384521	
-0.385315	
-0.384521	
-0.385193	
-0.382935	
-0.384216	
-0.383789	
-0.383972	
-0.383667	
-0.383423	
-0.383606	
-0.384583	
-0.38385	
-0.38324	
-0.382935	
-0.382568	
-0.382446	
-0.383118	
-0.382202	
-0.382629	
-0.382385	
-0.383057	
-0.382446	
-0.381958	
-0.382019	
-0.381348	
-0.381042	
-0.381165	
-0.381531	
-0.381226	
-0.380981	
-0.381042	
-0.380981	
-0.381226	
-0.380005	
-0.379578	
-0.379822	
-0.380188	
-0.380005	
-0.380005	
-0.380188	
-0.380066	
-0.379944	
-0.380249	
-0.379333	
-0.379761	
-0.379456	
-0.3797	
-0.379395	
-0.379333	
-0.379822	
-0.379517	
-0.380371	
-0.3797	
-0.379578	
-0.378723	
-0.380127	
-0.379517	
-0.3797	
-0.379333	
-0.380554	
-0.379639	
-0.381226	
-0.3797	
-0.379456	
-0.378235	
-0.379883	
-0.3797	
-0.379883	
-0.379944	
-0.380249	
-0.380066	
-0.380798	
-0.37915	
-0.379883	
-0.379578	
-0.379761	
-0.3797	
-0.380127	
-0.380066	
-0.380493	
-0.38092	
-0.381226	
-0.379761	
-0.380859	
-0.380066	
-0.381592	
-0.380859	
-0.381042	
-0.381165	
-0.382202	
-0.381287	
-0.381958	
-0.380005	
-0.381104	
-0.381104	
-0.381897	
-0.381653	
-0.381592	
-0.381165	
-0.382324	
-0.38208	
-0.382629	
-0.38147	
-0.382385	
-0.38269	
-0.38324	
-0.382935	
-0.382996	
-0.383057	
-0.383667	
-0.382996	
-0.382996	
-0.381714	
-0.382141	
-0.382446	
-0.382446	
-0.381897	
-0.381836	
-0.381714	
-0.382202	
-0.381042	
-0.380554	
-0.378967	
-0.380005	
-0.379944	
-0.379822	
-0.380188	
-0.379639	
-0.379822	
-0.380127	
-0.379395	
-0.379395	
-0.379028	
-0.379395	
-0.379272	
-0.379944	
-0.379578	
-0.379089	
-0.379272	
-0.38031	
-0.380371	
-0.380371	
-0.379272	
-0.3797	
-0.379944	
-0.380432	
-0.379944	
-0.380493	
-0.379761	
-0.380737	
-0.381287	
-0.380737	
-0.380249	
-0.38031	
-0.380371	
-0.381897	
-0.380676	
-0.381104	
-0.38031	
-0.382385	
-0.381897	
-0.38208	
-0.381409	
-0.381042	
-0.381531	
-0.383301	
-0.382202	
-0.382324	
-0.381653	
-0.383484	
-0.383606	
-0.383362	
-0.383057	
-0.382751	
-0.38324	
-0.384216	
-0.383911	
-0.383545	
-0.382446	
-0.384277	
-0.384277	
-0.384033	
-0.382874	
-0.382751	
-0.38269	
-0.384155	
-0.38385	
-0.383545	
-0.383667	
-0.383972	
-0.384338	
-0.384705	
-0.383179	
-0.383057	
-0.382874	
-0.384155	
-0.38385	
-0.383911	
-0.38385	
-0.384216	
-0.384583	
-0.384521	
-0.383667	
-0.382996	
-0.383057	
-0.384766	
-0.384094	
-0.384094	
-0.384216	
-0.384338	
-0.384766	
-0.384277	
-0.383362	
-0.382568	
-0.383057	
-0.384094	
-0.383545	
-0.383972	
-0.384644	
-0.384583	
-0.384949	
-0.384033	
-0.383423	
-0.382263	
-0.382935	
-0.383301	
-0.382874	
-0.382446	
-0.382935	
-0.382935	
-0.383545	
-0.383118	
-0.382324	
-0.381226	
-0.381714	
-0.382019	
-0.382263	
-0.381775	
-0.382629	
-0.382751	
-0.383118	
-0.383057	
-0.382385	
-0.381653	
-0.381592	
-0.382629	
-0.382996	
-0.382568	
-0.383118	
-0.383728	
-0.383972	
-0.383789	
-0.382874	
-0.38269	
-0.383118	
-0.384155	
-0.384094	
-0.38446	
-0.385071	
-0.385193	
-0.385254	
-0.385071	
-0.383423	
-0.383728	
-0.383606	
-0.384888	
-0.384583	
-0.38446	
-0.384949	
-0.385437	
-0.385254	
-0.385254	
-0.38385	
-0.384644	
-0.384338	
-0.385376	
-0.385254	
-0.385193	
-0.385254	
-0.386292	
-0.386169	
-0.386475	
-0.384766	
-0.385681	
-0.385681	
-0.38623	
-0.386292	
-0.386658	
-0.387024	
-0.388	
-0.387146	
-0.387024	
-0.386292	
-0.386597	
-0.385864	
-0.386414	
-0.386414	
-0.38623	
-0.386841	
-0.387268	
-0.386902	
-0.387024	
-0.386047	
-0.386658	
-0.385925	
-0.386353	
-0.386169	
-0.385803	
-0.386841	
-0.387329	
-0.38678	
-0.386719	
-0.386169	
-0.387024	
-0.386047	
-0.386475	
-0.386353	
-0.385559	
-0.386292	
-0.386658	
-0.386841	
-0.386414	
-0.385742	
-0.385376	
-0.385742	
-0.385986	
-0.386047	
-0.385498	
-0.385498	
-0.385498	
-0.38562	
-0.384644	
-0.384155	
-0.38446	
-0.384644	
-0.384399	
-0.384338	
-0.383789	
-0.384583	
-0.384949	
-0.385315	
-0.385193	
-0.385071	
-0.38446	
-0.384949	
-0.385254	
-0.385254	
-0.38501	
-0.385925	
-0.386414	
-0.385742	
-0.386169	
-0.385742	
-0.386353	
-0.386047	
-0.386414	
-0.386658	
-0.386353	
-0.387146	
-0.387512	
-0.38739	
-0.387329	
-0.38678	
-0.387817	
-0.387695	
-0.387451	
-0.387695	
-0.387756	
-0.388916	
-0.388306	
-0.388367	
-0.388916	
-0.388245	
-0.388611	
-0.387878	
-0.38916	
-0.388733	
-0.388306	
-0.389099	
-0.388977	
-0.388977	
-0.389404	
-0.388794	
-0.38916	
-0.388733	
-0.388916	
-0.389038	
-0.389771	
-0.389526	
-0.389343	
-0.389771	
-0.389587	
-0.388672	
-0.388794	
-0.388916	
-0.389221	
-0.388794	
-0.388428	
-0.389038	
-0.389465	
-0.388916	
-0.38855	
-0.388672	
-0.388794	
-0.388611	
-0.388794	
-0.388611	
-0.388184	
-0.389526	
-0.38916	
-0.38855	
-0.388855	
-0.388367	
-0.388306	
-0.388123	
-0.38855	
-0.388672	
-0.387146	
-0.388245	
-0.387878	
-0.387817	
-0.387939	
-0.387146	
-0.387451	
-0.387695	
-0.387512	
-0.387817	
-0.387024	
-0.388	
-0.387451	
-0.386841	
-0.387024	
-0.387146	
-0.386841	
-0.386536	
-0.386169	
-0.386353	
-0.385315	
-0.386658	
-0.386353	
-0.38623	
-0.385681	
-0.385864	
-0.386047	
-0.385681	
-0.386414	
-0.386169	
-0.385498	
-0.386902	
-0.386963	
-0.386536	
-0.386719	
-0.387329	
-0.387451	
-0.387939	
-0.388184	
-0.388733	
-0.388123	
-0.389587	
-0.389587	
-0.389343	
-0.389038	
-0.389099	
-0.389343	
-0.389526	
-0.389465	
-0.389465	
-0.388855	
-0.390137	
-0.389771	
-0.389343	
-0.389099	
-0.388977	
-0.389404	
-0.388672	
-0.388794	
-0.388794	
-0.388672	
-0.390503	
-0.388794	
-0.388367	
-0.388245	
-0.387939	
-0.388306	
-0.387817	
-0.388245	
-0.388367	
-0.387756	
-0.389099	
-0.388	
-0.387695	
-0.386841	
-0.387573	
-0.388306	
-0.387329	
-0.387451	
-0.38739	
-0.387207	
-0.387695	
-0.386841	
-0.387024	
-0.386047	
-0.385986	
-0.385986	
-0.385742	
-0.385681	
-0.385376	
-0.385254	
-0.386414	
-0.386047	
-0.385559	
-0.386536	
-0.385315	
-0.385254	
-0.385315	
-0.385559	
-0.385376	
-0.385498	
-0.385925	
-0.385681	
-0.385315	
-0.385925	
-0.384949	
-0.385193	
-0.384521	
-0.385315	
-0.385071	
-0.385315	
-0.385864	
-0.385193	
-0.384949	
-0.385498	
-0.384888	
-0.38501	
-0.384521	
-0.384827	
-0.385071	
-0.384705	
-0.385803	
-0.385254	
-0.385254	
-0.385498	
-0.384644	
-0.385437	
-0.384033	
-0.385071	
-0.385315	
-0.385681	
-0.386108	
-0.385742	
-0.385498	
-0.385925	
-0.384766	
-0.385071	
-0.384033	
-0.384766	
-0.385437	
-0.385254	
-0.385986	
-0.38623	
-0.385803	
-0.387024	
-0.386047	
-0.385925	
-0.385315	
-0.386353	
-0.386414	
-0.386475	
-0.386536	
-0.386902	
-0.386292	
-0.387207	
-0.386475	
-0.386047	
-0.385437	
-0.386414	
-0.386719	
-0.386292	
-0.386536	
-0.386169	
-0.385742	
-0.386719	
-0.385742	
-0.385437	
-0.384949	
-0.38562	
-0.385315	
-0.384766	
-0.385071	
-0.385376	
-0.383972	
-0.385315	
-0.384277	
-0.384705	
-0.383606	
-0.384521	
-0.384949	
-0.384583	
-0.384338	
-0.38501	
-0.384399	
-0.384949	
-0.384216	
-0.384094	
-0.383606	
-0.384399	
-0.38385	
-0.384216	
-0.384155	
-0.38446	
-0.383911	
-0.384338	
-0.383484	
-0.38324	
-0.383362	
-0.383545	
-0.383118	
-0.383057	
-0.383057	
-0.382874	
-0.382446	
-0.382813	
-0.382202	
-0.382324	
-0.382385	
-0.382568	
-0.382385	
-0.382996	
-0.382751	
-0.38324	
-0.382019	
-0.381897	
-0.382019	
-0.382019	
-0.382141	
-0.382385	
-0.382263	
-0.382446	
-0.38269	
-0.383667	
-0.382507	
-0.382202	
-0.381714	
-0.38208	
-0.382935	
-0.382996	
-0.382019	
-0.382263	
-0.382141	
-0.383423	
-0.382935	
-0.382996	
-0.382019	
-0.382813	
-0.382507	
-0.383606	
-0.383606	
-0.383301	
-0.382507	
-0.383728	
-0.38324	
-0.383301	
-0.383484	
-0.384216	
-0.384705	
-0.385193	
-0.384583	
-0.385193	
-0.383545	
-0.385315	
-0.385132	
-0.383972	
-0.383179	
-0.38324	
-0.384033	
-0.38446	
-0.383728	
-0.38501	
-0.382507	
-0.384644	
-0.383789	
-0.382813	
-0.382019	
-0.382141	
-0.383057	
-0.38385	
-0.382568	
-0.383423	
-0.381409	
-0.382874	
-0.382324	
-0.382202	
-0.380554	
-0.380737	
-0.381714	
-0.382202	
-0.381042	
-0.381958	
-0.379883	
-0.381531	
-0.380127	
-0.38031	
-0.379333	
-0.379578	
-0.380066	
-0.38092	
-0.380249	
-0.380554	
-0.37915	
-0.381104	
-0.380066	
-0.379761	
-0.378784	
-0.378967	
-0.379761	
-0.380798	
-0.37915	
-0.380249	
-0.378967	
-0.380188	
-0.379944	
-0.379761	
-0.378845	
-0.378662	
-0.379272	
-0.38092	
-0.379822	
-0.380737	
-0.37915	
-0.380249	
-0.380371	
-0.380005	
-0.379211	
-0.379028	
-0.380188	
-0.380981	
-0.379822	
-0.380554	
-0.378845	
-0.380676	
-0.380432	
-0.379883	
-0.378906	
-0.379395	
-0.380249	
-0.38092	
-0.380371	
-0.380737	
-0.379028	
-0.380859	
-0.381714	
-0.381165	
-0.380615	
-0.380554	
-0.381226	
-0.381653	
-0.381409	
-0.381653	
-0.380615	
-0.381592	
-0.381409	
-0.381287	
-0.380981	
-0.380981	
-0.381409	
-0.38208	
-0.381409	
-0.382385	
-0.382263	
-0.382935	
-0.382202	
-0.382874	
-0.382446	
-0.382568	
-0.382874	
-0.383728	
-0.38269	
-0.383118	
-0.381958	
-0.382935	
-0.381897	
-0.38208	
-0.381836	
-0.382324	
-0.381958	
-0.381775	
-0.380798	
-0.381531	
-0.379272	
-0.380859	
-0.379883	
-0.379944	
-0.379456	
-0.379456	
-0.379456	
-0.380005	
-0.379395	
-0.380005	
-0.378418	
-0.379639	
-0.378845	
-0.379517	
-0.378723	
-0.378967	
-0.379395	
-0.379944	
-0.379883	
-0.380188	
-0.378662	
-0.379639	
-0.379272	
-0.379761	
-0.379395	
-0.379639	
-0.380005	
-0.381226	
-0.380432	
-0.380615	
-0.379456	
-0.380676	
-0.380432	
-0.380371	
-0.380066	
-0.380371	
-0.381226	
-0.382019	
-0.380798	
-0.381287	
-0.380493	
-0.38147	
-0.381958	
-0.381592	
-0.381592	
-0.380859	
-0.381531	
-0.38269	
-0.382263	
-0.383057	
-0.382385	
	
