C:\DOCUMENTS AND SETTINGS\JASON\DESKTOP\UFRJ\UFRJ EPHYS\RSCI-BM 12 WK SERIES\070806-RSCI-BM-16\RSCI-BM-16-LEMG\070806-RSCI-BM-16-LEMG-0013.ACQ
0.025000 msec/sample
1 channel
Analog input
Volts
CH1	
2000	
-0.385681	
-0.384888	
-0.385132	
-0.385315	
-0.384644	
-0.384705	
-0.384216	
-0.385315	
-0.384216	
-0.385193	
-0.385803	
-0.385132	
-0.385071	
-0.383789	
-0.384888	
-0.385071	
-0.384766	
-0.38501	
-0.38385	
-0.384521	
-0.385437	
-0.384399	
-0.384949	
-0.384521	
-0.384888	
-0.383789	
-0.384338	
-0.384521	
-0.384338	
-0.384521	
-0.385315	
-0.384399	
-0.384705	
-0.38385	
-0.384216	
-0.383606	
-0.384155	
-0.384277	
-0.384155	
-0.384521	
-0.384644	
-0.383667	
-0.384277	
-0.383545	
-0.383362	
-0.383423	
-0.38385	
-0.382996	
-0.383362	
-0.382935	
-0.382996	
-0.382935	
-0.383057	
-0.383362	
-0.382813	
-0.382568	
-0.383057	
-0.38269	
-0.382202	
-0.380981	
-0.382813	
-0.382385	
-0.382935	
-0.383606	
-0.382141	
-0.38208	
-0.38147	
-0.382202	
-0.382202	
-0.381287	
-0.382385	
-0.382751	
-0.382141	
-0.382385	
-0.381409	
-0.380676	
-0.380615	
-0.381104	
-0.380798	
-0.381042	
-0.381714	
-0.381836	
-0.381897	
-0.382813	
-0.38208	
-0.381653	
-0.382141	
-0.382446	
-0.382996	
-0.38269	
-0.382385	
-0.384338	
-0.383911	
-0.384277	
-0.383179	
-0.383484	
-0.382996	
-0.383179	
-0.383667	
-0.383728	
-0.383728	
-0.384888	
-0.384155	
-0.384583	
-0.382813	
-0.384155	
-0.382446	
-0.382813	
-0.38324	
-0.383301	
-0.383606	
-0.384277	
-0.383484	
-0.384277	
-0.38269	
-0.38324	
-0.381897	
-0.382935	
-0.382813	
-0.382263	
-0.382751	
-0.383301	
-0.383057	
-0.383423	
-0.382874	
-0.382446	
-0.382263	
-0.382324	
-0.38208	
-0.381775	
-0.381775	
-0.382202	
-0.382141	
-0.382507	
-0.382568	
-0.381958	
-0.38147	
-0.380798	
-0.381226	
-0.38092	
-0.381226	
-0.381348	
-0.380554	
-0.381104	
-0.381775	
-0.381042	
-0.38031	
-0.3797	
-0.381042	
-0.381104	
-0.381165	
-0.381287	
-0.381775	
-0.381714	
-0.382507	
-0.381409	
-0.381531	
-0.38147	
-0.382202	
-0.381714	
-0.382019	
-0.381897	
-0.382202	
-0.382019	
-0.382935	
-0.38092	
-0.381836	
-0.381348	
-0.38208	
-0.381775	
-0.381348	
-0.381775	
-0.382385	
-0.382202	
-0.383057	
-0.381165	
-0.381958	
-0.38147	
-0.382141	
-0.381897	
-0.382141	
-0.381958	
-0.382813	
-0.382324	
-0.383179	
-0.381165	
-0.381897	
-0.382141	
-0.382263	
-0.382263	
-0.382019	
-0.382202	
-0.382751	
-0.382324	
-0.383484	
-0.381653	
-0.382202	
-0.36261	
-0.362122	
-0.36438	
-0.364624	
-0.365417	
-0.365295	
-0.388855	
-0.386169	
-0.38208	
-0.382141	
-0.381714	
-0.381897	
-0.381531	
-0.380615	
-0.381836	
-0.381592	
-0.382263	
-0.382507	
-0.381409	
-0.380493	
-0.380615	
-0.381226	
-0.380737	
-0.379883	
-0.38092	
-0.380615	
-0.38208	
-0.381958	
-0.381104	
-0.3797	
-0.380798	
-0.381226	
-0.381836	
-0.380432	
-0.381409	
-0.382141	
-0.382568	
-0.38324	
-0.38208	
-0.381287	
-0.381958	
-0.382324	
-0.382141	
-0.381348	
-0.382263	
-0.382996	
-0.383484	
-0.383423	
-0.383179	
-0.383179	
-0.384155	
-0.385193	
-0.386902	
-0.388855	
-0.391602	
-0.394592	
-0.398438	
-0.40271	
-0.406433	
-0.409302	
-0.414307	
-0.418335	
-0.42334	
-0.427551	
-0.434387	
-0.440674	
-0.447632	
-0.454407	
-0.457886	
-0.462646	
-0.465576	
-0.470215	
-0.472473	
-0.473694	
-0.475464	
-0.476563	
-0.478577	
-0.480103	
-0.479309	
-0.480286	
-0.478333	
-0.479919	
-0.479431	
-0.478882	
-0.478088	
-0.4776	
-0.477295	
-0.477417	
-0.47406	
-0.473938	
-0.472351	
-0.474243	
-0.474365	
-0.475037	
-0.475586	
-0.476746	
-0.477783	
-0.479126	
-0.479004	
-0.479492	
-0.461304	
-0.462952	
-0.467773	
-0.469788	
-0.471069	
-0.472168	
-0.496521	
-0.494202	
-0.489441	
-0.487427	
-0.485413	
-0.487427	
-0.487427	
-0.486877	
-0.486267	
-0.486206	
-0.487122	
-0.487915	
-0.485657	
-0.485596	
-0.483887	
-0.486755	
-0.486084	
-0.485718	
-0.485413	
-0.485229	
-0.485413	
-0.486511	
-0.483521	
-0.483154	
-0.480286	
-0.481567	
-0.479065	
-0.477417	
-0.474365	
-0.470947	
-0.46759	
-0.464478	
-0.458679	
-0.452393	
-0.446289	
-0.442322	
-0.436462	
-0.430481	
-0.423828	
-0.416077	
-0.408813	
-0.40155	
-0.391785	
-0.380676	
-0.370605	
-0.361938	
-0.352112	
-0.342224	
-0.333435	
-0.324707	
-0.316223	
-0.307617	
-0.298889	
-0.289978	
-0.282837	
-0.276672	
-0.274231	
-0.270935	
-0.271057	
-0.272095	
-0.273743	
-0.277466	
-0.280457	
-0.28302	
-0.287354	
-0.29425	
-0.300293	
-0.306519	
-0.312927	
-0.318787	
-0.325378	
-0.331482	
-0.33551	
-0.34082	
-0.345764	
-0.35083	
-0.355103	
-0.359253	
-0.36322	
-0.366211	
-0.369812	
-0.371643	
-0.37323	
-0.375854	
-0.377258	
-0.379883	
-0.380981	
-0.38385	
-0.386169	
-0.38855	
-0.391785	
-0.392334	
-0.394104	
-0.394592	
-0.397278	
-0.400513	
-0.403198	
-0.406128	
-0.408264	
-0.411377	
-0.413818	
-0.414612	
-0.414795	
-0.416077	
-0.418091	
-0.420593	
-0.422974	
-0.424622	
-0.426697	
-0.42981	
-0.430908	
-0.432251	
-0.431641	
-0.4328	
-0.434265	
-0.435181	
-0.436462	
-0.437134	
-0.437866	
-0.439026	
-0.439636	
-0.439697	
-0.437988	
-0.43927	
-0.440002	
-0.439087	
-0.438782	
-0.438171	
-0.436951	
-0.435486	
-0.432922	
-0.429504	
-0.425598	
-0.421753	
-0.416382	
-0.410339	
-0.404358	
-0.397827	
-0.390869	
-0.383301	
-0.374268	
-0.365479	
-0.35498	
-0.346497	
-0.336914	
-0.326721	
-0.31665	
-0.306946	
-0.297485	
-0.289063	
-0.279358	
-0.270386	
-0.262634	
-0.257019	
-0.251648	
-0.247192	
-0.243164	
-0.240051	
-0.237793	
-0.237305	
-0.235352	
-0.234802	
-0.233582	
-0.234924	
-0.236938	
-0.238647	
-0.241699	
-0.244263	
-0.247986	
-0.25293	
-0.256104	
-0.259399	
-0.263733	
-0.268311	
-0.273926	
-0.276489	
-0.281189	
-0.285522	
-0.290161	
-0.294189	
-0.296875	
-0.299622	
-0.303528	
-0.306946	
-0.30896	
-0.311951	
-0.315002	
-0.317078	
-0.320923	
-0.321533	
-0.323975	
-0.3255	
-0.328125	
-0.330444	
-0.331848	
-0.334778	
-0.33667	
-0.338623	
-0.341858	
-0.34259	
-0.343262	
-0.344788	
-0.345459	
-0.346924	
-0.347351	
-0.349365	
-0.350098	
-0.351318	
-0.351929	
-0.352478	
-0.353027	
-0.353638	
-0.355286	
-0.355591	
-0.356384	
-0.35675	
-0.357361	
-0.360046	
-0.358704	
-0.358643	
-0.357178	
-0.359497	
-0.360291	
-0.360413	
-0.360779	
-0.361511	
-0.362305	
-0.363464	
-0.362488	
-0.362427	
-0.361755	
-0.363403	
-0.363464	
-0.36322	
-0.364014	
-0.364197	
-0.364502	
-0.365784	
-0.364624	
-0.363708	
-0.364014	
-0.36499	
-0.365112	
-0.364014	
-0.365417	
-0.365784	
-0.366882	
-0.366272	
-0.366028	
-0.365234	
-0.367065	
-0.366394	
-0.366577	
-0.36615	
-0.367249	
-0.368103	
-0.368286	
-0.367249	
-0.366211	
-0.365845	
-0.367554	
-0.367065	
-0.36676	
-0.367737	
-0.367188	
-0.368286	
-0.368042	
-0.367188	
-0.366577	
-0.366272	
-0.367126	
-0.367126	
-0.367371	
-0.367065	
-0.367554	
-0.368042	
-0.368408	
-0.368042	
-0.367798	
-0.366821	
-0.368347	
-0.36853	
-0.368652	
-0.368469	
-0.369629	
-0.369263	
-0.370422	
-0.368164	
-0.36853	
-0.368896	
-0.36969	
-0.369629	
-0.369446	
-0.369873	
-0.370605	
-0.370972	
-0.370422	
-0.370361	
-0.370544	
-0.370544	
-0.370605	
-0.370911	
-0.370667	
-0.37146	
-0.371338	
-0.37262	
-0.370239	
-0.370483	
-0.370422	
-0.370972	
-0.371399	
-0.370605	
-0.371765	
-0.372131	
-0.372925	
-0.372986	
-0.371582	
-0.371643	
-0.372253	
-0.372498	
-0.372375	
-0.372498	
-0.372925	
-0.37323	
-0.373413	
-0.372131	
-0.372986	
-0.373352	
-0.37384	
-0.373535	
-0.373596	
-0.374695	
-0.374817	
-0.375	
-0.37616	
-0.373901	
-0.374207	
-0.373901	
-0.375061	
-0.374878	
-0.374756	
-0.375549	
-0.376709	
-0.376099	
-0.376831	
-0.375732	
-0.376343	
-0.376038	
-0.37616	
-0.376038	
-0.376587	
-0.377075	
-0.377319	
-0.377136	
-0.377197	
-0.377197	
-0.376709	
-0.376709	
-0.377014	
-0.377258	
-0.377625	
-0.37793	
-0.377869	
-0.378296	
-0.377197	
-0.37738	
-0.378113	
-0.377686	
-0.377808	
-0.377319	
-0.378052	
-0.378235	
-0.378662	
-0.378906	
-0.378235	
-0.377686	
-0.378357	
-0.378174	
-0.378601	
-0.376892	
-0.377869	
-0.378296	
-0.379089	
-0.379578	
-0.377991	
-0.377808	
-0.378113	
-0.378967	
-0.378174	
-0.377563	
-0.378845	
-0.379395	
-0.379517	
-0.379578	
-0.378906	
-0.378052	
-0.378906	
-0.378845	
-0.378479	
-0.379028	
-0.378967	
-0.380005	
-0.379333	
-0.379395	
-0.37738	
-0.378357	
-0.378357	
-0.37793	
-0.378418	
-0.378967	
-0.378418	
-0.379333	
-0.379089	
-0.37854	
-0.377625	
-0.377136	
-0.377075	
-0.37793	
-0.377441	
-0.377502	
-0.378601	
-0.378723	
-0.377808	
-0.378479	
-0.377502	
-0.378357	
-0.378235	
-0.37793	
-0.377502	
-0.378113	
-0.378845	
-0.37793	
-0.378113	
-0.376648	
-0.378174	
-0.377625	
-0.377869	
-0.377625	
-0.377197	
-0.377197	
-0.378784	
-0.377991	
-0.377441	
-0.376953	
-0.377502	
-0.376221	
-0.37793	
-0.377502	
-0.377869	
-0.378967	
-0.378784	
-0.378784	
-0.379761	
-0.37915	
-0.380127	
-0.379517	
-0.379883	
-0.3797	
-0.380127	
-0.380859	
-0.380066	
-0.380127	
-0.378967	
-0.3797	
-0.380615	
-0.380249	
-0.380127	
-0.379578	
-0.38031	
-0.381348	
-0.380859	
-0.3797	
-0.37854	
-0.379883	
-0.380005	
-0.380127	
-0.379456	
-0.379333	
-0.379944	
-0.380432	
-0.379944	
-0.379517	
-0.37793	
-0.379639	
-0.379272	
-0.379883	
-0.379333	
-0.379089	
-0.379639	
-0.380737	
-0.380249	
-0.379395	
-0.377747	
-0.379272	
-0.378357	
-0.379333	
-0.378845	
-0.378906	
-0.379456	
-0.379944	
-0.379578	
-0.378357	
-0.377563	
-0.378662	
-0.378662	
-0.378296	
-0.376953	
-0.377991	
-0.379333	
-0.379089	
-0.37854	
-0.378174	
-0.378296	
-0.379456	
-0.378052	
-0.378113	
-0.377686	
-0.378967	
-0.379944	
-0.380005	
-0.378967	
-0.380249	
-0.379272	
-0.379883	
-0.378235	
-0.379333	
-0.379272	
-0.379639	
-0.38031	
-0.379761	
-0.379211	
-0.379517	
-0.379089	
-0.3797	
-0.377869	
-0.378601	
-0.379028	
-0.380127	
-0.380188	
-0.379333	
-0.380005	
-0.380249	
-0.3797	
-0.379395	
-0.379333	
-0.379211	
-0.379639	
-0.380188	
-0.379761	
-0.380493	
-0.380127	
-0.381348	
-0.380005	
-0.380127	
-0.379944	
-0.37915	
-0.379883	
-0.382019	
-0.38092	
-0.380981	
-0.379211	
-0.380371	
-0.379333	
-0.380615	
-0.380249	
-0.380005	
-0.380493	
-0.382141	
-0.380737	
-0.381226	
-0.381409	
-0.380432	
-0.381958	
-0.380676	
-0.381592	
-0.381165	
-0.382446	
-0.380676	
-0.382935	
-0.380981	
-0.381714	
-0.379944	
-0.381409	
-0.380005	
-0.381287	
-0.38031	
-0.381531	
-0.380127	
-0.381592	
-0.380676	
-0.381104	
-0.380615	
-0.380432	
-0.380981	
-0.379639	
-0.382385	
-0.381592	
-0.382813	
-0.383301	
-0.381897	
-0.382935	
-0.381653	
-0.381653	
-0.381226	
-0.381714	
-0.383118	
-0.383606	
-0.384705	
-0.383545	
-0.38208	
-0.384277	
-0.381592	
-0.383179	
-0.38147	
-0.382507	
-0.381775	
-0.383362	
-0.381653	
-0.382568	
-0.381714	
-0.382568	
-0.381226	
-0.382446	
-0.380798	
-0.381897	
-0.381653	
-0.382507	
-0.381897	
-0.382813	
-0.382141	
-0.382019	
-0.380249	
-0.382202	
-0.381714	
-0.382141	
-0.382324	
-0.382813	
-0.382019	
-0.383545	
-0.382751	
-0.383423	
-0.382019	
-0.382813	
-0.38324	
-0.38269	
-0.383728	
-0.383606	
-0.383118	
-0.38446	
-0.382996	
-0.383606	
-0.380737	
-0.38324	
-0.382568	
-0.383301	
-0.38324	
-0.383667	
-0.383301	
-0.385376	
-0.383545	
-0.383972	
-0.381531	
-0.383545	
-0.382935	
-0.383301	
-0.383667	
-0.383545	
-0.383606	
-0.384399	
-0.382935	
-0.383179	
-0.381531	
-0.382751	
-0.382813	
-0.38324	
-0.382813	
-0.382568	
-0.382324	
-0.383179	
-0.382813	
-0.382263	
-0.381409	
-0.382446	
-0.381714	
-0.382019	
-0.381958	
-0.382263	
-0.382446	
-0.382385	
-0.382263	
-0.382751	
-0.381287	
-0.381897	
-0.381104	
-0.382141	
-0.382202	
-0.381592	
-0.381897	
-0.382813	
-0.382813	
-0.382507	
-0.380981	
-0.381104	
-0.381775	
-0.382507	
-0.382629	
-0.382263	
-0.382141	
-0.382629	
-0.383118	
-0.383057	
-0.38092	
-0.38147	
-0.381653	
-0.382568	
-0.383606	
-0.382935	
-0.382996	
-0.382324	
-0.383606	
-0.383057	
-0.381348	
-0.381897	
-0.382385	
-0.382568	
-0.383606	
-0.382751	
-0.383179	
-0.382629	
-0.383728	
-0.382813	
-0.381287	
-0.382507	
-0.382629	
-0.383179	
-0.383789	
-0.383301	
-0.384216	
-0.383423	
-0.384033	
-0.383057	
-0.382751	
-0.38324	
-0.38385	
-0.384338	
-0.384705	
-0.38385	
-0.384705	
-0.385071	
-0.38501	
-0.383789	
-0.383484	
-0.384583	
-0.385315	
-0.384521	
-0.385742	
-0.385254	
-0.386047	
-0.386169	
-0.386169	
-0.384644	
-0.384277	
-0.385193	
-0.385132	
-0.385132	
-0.386719	
-0.385254	
-0.386108	
-0.385376	
-0.38623	
-0.384705	
-0.385376	
-0.386597	
-0.387634	
-0.386658	
-0.388	
-0.386475	
-0.387695	
-0.386353	
-0.386169	
-0.384888	
-0.384705	
-0.385925	
-0.384583	
-0.385437	
-0.385925	
-0.384644	
-0.385376	
-0.38562	
-0.38385	
-0.384827	
-0.382996	
-0.384583	
-0.384033	
-0.385254	
-0.384277	
-0.384216	
-0.38501	
-0.384583	
-0.383911	
-0.384094	
-0.38324	
-0.384216	
-0.385071	
-0.385193	
-0.385803	
-0.385437	
-0.385742	
-0.385437	
-0.384827	
-0.384399	
-0.383606	
-0.38446	
-0.385803	
-0.385437	
-0.386963	
-0.386047	
-0.385681	
-0.386597	
-0.385925	
-0.385803	
-0.383179	
-0.385071	
-0.385986	
-0.386658	
-0.386841	
-0.386353	
-0.386475	
-0.388428	
-0.38623	
-0.386841	
-0.384277	
-0.387817	
-0.386902	
-0.387146	
-0.387573	
-0.388855	
-0.388184	
-0.38916	
-0.388428	
-0.388123	
-0.387329	
-0.388184	
-0.387573	
-0.387939	
-0.388855	
-0.387634	
-0.38739	
-0.388	
-0.388306	
-0.387451	
-0.386536	
-0.38623	
-0.387451	
-0.387085	
-0.387085	
-0.386658	
-0.387329	
-0.388123	
-0.386658	
-0.387085	
-0.386353	
-0.387817	
-0.387085	
-0.387146	
-0.386536	
-0.387756	
-0.386902	
-0.387756	
-0.386353	
-0.387817	
-0.385681	
-0.387329	
-0.387085	
-0.387268	
-0.386963	
-0.388367	
-0.386597	
-0.387451	
-0.386963	
-0.387268	
-0.387146	
-0.386841	
-0.387512	
-0.386536	
-0.387512	
-0.388306	
-0.387573	
-0.387817	
-0.386536	
-0.386902	
-0.38623	
-0.386536	
-0.387817	
-0.386963	
-0.388245	
-0.387756	
-0.388367	
-0.387146	
-0.387451	
-0.38678	
-0.386108	
-0.387695	
-0.387268	
-0.38855	
-0.388062	
-0.387817	
-0.387451	
-0.387695	
-0.387024	
-0.386597	
-0.385559	
-0.387634	
-0.387573	
-0.388977	
-0.388733	
-0.388672	
-0.387695	
-0.388123	
-0.388306	
-0.386902	
-0.387024	
-0.386902	
-0.38739	
-0.387024	
-0.387756	
-0.38678	
-0.387451	
-0.38623	
-0.386902	
-0.386414	
-0.385254	
-0.386353	
-0.386169	
-0.386169	
-0.387451	
-0.386108	
-0.386047	
-0.385376	
-0.385742	
-0.385071	
-0.385132	
-0.386719	
-0.385925	
-0.386658	
-0.387329	
-0.385498	
-0.38623	
-0.384827	
-0.385498	
-0.384827	
-0.384399	
-0.385254	
-0.385559	
-0.385376	
-0.386414	
-0.384827	
-0.38562	
-0.384216	
-0.385071	
-0.384644	
-0.384155	
-0.384399	
-0.385376	
-0.384888	
-0.387085	
-0.384338	
-0.38562	
-0.38324	
-0.38623	
-0.384583	
-0.384949	
-0.384399	
-0.384827	
-0.384644	
-0.385986	
-0.384521	
-0.384644	
-0.383301	
-0.384277	
-0.38385	
-0.384033	
-0.384766	
-0.384216	
-0.38446	
-0.385559	
-0.384338	
-0.384216	
-0.383423	
-0.383911	
-0.383667	
-0.383789	
-0.384033	
-0.38501	
-0.384949	
-0.386353	
-0.384521	
-0.384644	
-0.383118	
-0.384644	
-0.384338	
-0.384583	
-0.384644	
-0.384888	
-0.384949	
-0.38623	
-0.38446	
-0.385315	
-0.38269	
-0.385437	
-0.384705	
-0.38501	
-0.385254	
-0.385559	
-0.385254	
-0.387146	
-0.385376	
-0.385986	
-0.383545	
-0.385803	
-0.384705	
-0.386169	
-0.385742	
-0.385315	
-0.386169	
-0.387329	
-0.386841	
-0.386292	
-0.383911	
-0.385986	
-0.384949	
-0.38562	
-0.385254	
-0.385376	
-0.385925	
-0.386597	
-0.385376	
-0.386475	
-0.384277	
-0.385254	
-0.384644	
-0.38562	
-0.384766	
-0.385315	
-0.38562	
-0.386597	
-0.385376	
-0.385498	
-0.384338	
-0.385254	
-0.384705	
-0.385437	
-0.384766	
-0.385132	
-0.38562	
-0.386047	
-0.385193	
-0.385803	
-0.384705	
-0.384827	
-0.384644	
-0.385071	
-0.384888	
-0.385193	
-0.385254	
-0.385681	
-0.385071	
-0.385742	
-0.384033	
-0.384949	
-0.383972	
-0.38446	
-0.385071	
-0.38446	
-0.384216	
-0.38501	
-0.384399	
-0.384949	
-0.383484	
-0.384216	
-0.382935	
-0.38385	
-0.38385	
-0.382813	
-0.384094	
-0.384033	
-0.383484	
-0.38501	
-0.383301	
-0.38501	
-0.383728	
-0.384216	
-0.383606	
-0.384033	
-0.383972	
-0.38501	
-0.384399	
-0.384216	
-0.382202	
-0.383667	
-0.382019	
-0.383606	
-0.382751	
-0.382813	
-0.383057	
-0.38385	
-0.382629	
-0.383423	
-0.381165	
-0.382629	
-0.38385	
-0.382996	
-0.383118	
-0.383606	
-0.38324	
-0.384277	
-0.384521	
-0.384216	
-0.38385	
-0.384399	
-0.384888	
-0.383423	
-0.384583	
-0.38385	
-0.384949	
-0.385437	
-0.385132	
-0.385315	
-0.38501	
-0.385498	
-0.385559	
-0.385193	
-0.385132	
-0.384766	
-0.384949	
-0.385315	
-0.384888	
-0.38501	
-0.384094	
-0.384888	
-0.384216	
-0.384827	
-0.384155	
-0.384521	
-0.384644	
-0.384705	
-0.383301	
-0.383911	
-0.384644	
-0.383728	
-0.383911	
-0.382996	
-0.383911	
-0.383972	
-0.383911	
-0.38385	
-0.383911	
-0.382813	
-0.384277	
-0.382629	
-0.383179	
-0.381592	
-0.382446	
-0.382935	
-0.383301	
-0.38269	
-0.382935	
-0.382324	
-0.382996	
-0.382202	
-0.381897	
-0.381409	
-0.381531	
-0.381775	
-0.381836	
-0.382751	
-0.38147	
-0.381836	
-0.382935	
-0.382446	
-0.38269	
-0.381653	
-0.381836	
-0.381653	
-0.382385	
-0.383057	
-0.382446	
-0.382141	
-0.383606	
-0.383179	
-0.383667	
-0.382263	
-0.382751	
-0.382263	
-0.383301	
-0.382446	
-0.383057	
-0.382446	
-0.38324	
-0.382935	
-0.382446	
-0.382324	
-0.382507	
-0.382813	
-0.383301	
-0.382629	
-0.383179	
-0.383362	
-0.38324	
-0.38269	
-0.381897	
-0.382568	
-0.382629	
-0.38324	
-0.383118	
-0.382751	
-0.382935	
-0.383545	
-0.383484	
-0.382874	
-0.381958	
-0.38269	
-0.382751	
-0.383057	
-0.383301	
-0.382751	
-0.38269	
-0.382996	
-0.382629	
-0.382568	
-0.381836	
-0.38208	
-0.382751	
-0.383179	
-0.382935	
-0.382324	
-0.38269	
-0.382813	
-0.382446	
-0.382568	
-0.381653	
-0.381714	
-0.382141	
-0.381897	
-0.382935	
-0.382263	
-0.381897	
-0.382019	
-0.381836	
-0.38208	
-0.38092	
-0.381531	
-0.381409	
-0.382019	
-0.382629	
-0.381592	
-0.381592	
-0.381409	
-0.38208	
-0.382385	
-0.380737	
-0.38208	
-0.381836	
-0.382385	
-0.383057	
-0.382507	
-0.382324	
-0.382874	
-0.382874	
-0.382996	
-0.382263	
-0.382935	
-0.383179	
-0.383972	
-0.384338	
-0.383362	
-0.383362	
-0.382874	
-0.383118	
-0.382996	
-0.38208	
-0.383667	
-0.383484	
-0.383118	
-0.383606	
-0.383789	
-0.383667	
-0.383179	
-0.383667	
-0.383484	
-0.382996	
-0.383179	
-0.383301	
-0.383667	
-0.384521	
-0.383606	
-0.383667	
-0.383301	
-0.38385	
-0.384521	
-0.38324	
-0.383484	
-0.383789	
-0.38385	
-0.385132	
-0.384216	
-0.384399	
-0.384521	
-0.38446	
-0.384766	
-0.384338	
-0.383972	
-0.384521	
-0.384094	
-0.385559	
-0.38446	
-0.384399	
-0.384338	
-0.384888	
-0.385376	
-0.384705	
-0.384583	
-0.383972	
-0.384155	
-0.385681	
-0.385193	
-0.384888	
-0.384949	
-0.384705	
-0.385742	
-0.385071	
-0.384888	
-0.383728	
-0.383667	
-0.385315	
-0.384827	
-0.384399	
-0.384644	
-0.384277	
-0.385437	
-0.38446	
-0.383972	
-0.382385	
-0.382996	
-0.384644	
-0.383911	
-0.383057	
-0.383911	
-0.383728	
-0.38446	
-0.383118	
-0.383118	
-0.382141	
-0.382751	
-0.384399	
-0.383667	
-0.383423	
-0.383728	
-0.383789	
-0.383728	
-0.382568	
-0.383423	
-0.382813	
-0.382568	
-0.38446	
-0.383667	
-0.383545	
-0.383362	
-0.383423	
-0.383789	
-0.382568	
-0.382935	
-0.383118	
-0.38269	
-0.383911	
-0.383423	
-0.383667	
-0.383789	
-0.38385	
-0.385925	
-0.383728	
-0.384888	
-0.383606	
-0.38385	
-0.385437	
-0.385986	
-0.385681	
-0.386047	
-0.385559	
-0.386108	
-0.384521	
-0.385986	
-0.385071	
-0.385559	
-0.386047	
-0.386292	
-0.385498	
-0.384583	
-0.386353	
-0.385559	
-0.386841	
-0.385925	
-0.386475	
-0.384216	
-0.386963	
-0.386292	
-0.385681	
-0.38562	
-0.386841	
-0.385864	
-0.38855	
-0.386414	
-0.385925	
-0.384766	
-0.387268	
-0.385803	
-0.386475	
-0.387268	
-0.387268	
-0.388306	
-0.388794	
-0.38739	
-0.386841	
-0.385376	
-0.386963	
-0.387695	
-0.386963	
-0.38739	
-0.387268	
-0.387451	
-0.387878	
-0.387878	
-0.386353	
-0.38562	
-0.388184	
-0.388184	
-0.387451	
-0.387207	
-0.387512	
-0.388306	
-0.389648	
-0.388672	
-0.38916	
-0.386536	
-0.388611	
-0.388	
-0.38678	
-0.386108	
-0.387939	
-0.386475	
-0.388184	
-0.386047	
-0.385986	
-0.384033	
-0.386353	
-0.38562	
-0.386292	
-0.385132	
-0.385498	
-0.385315	
-0.386169	
-0.385925	
-0.385193	
-0.384583	
-0.385315	
-0.385559	
-0.38501	
-0.385132	
-0.385071	
-0.386108	
-0.386169	
-0.385803	
-0.384766	
-0.385254	
-0.385315	
-0.385864	
-0.385193	
-0.385742	
-0.385193	
-0.386169	
-0.387207	
-0.38623	
-0.386047	
-0.385498	
-0.386597	
-0.38562	
-0.386475	
-0.386047	
-0.386536	
-0.385559	
-0.38739	
-0.386597	
-0.38678	
-0.385681	
-0.387878	
-0.38739	
-0.387207	
-0.38623	
-0.387573	
-0.387939	
-0.388184	
-0.388306	
-0.387512	
-0.388733	
-0.388123	
-0.387878	
-0.388245	
-0.388977	
-0.388855	
-0.389038	
-0.387878	
-0.389099	
-0.387512	
-0.387756	
-0.386353	
-0.387939	
-0.387451	
-0.388	
-0.38678	
-0.386414	
-0.387085	
-0.387695	
-0.386902	
-0.386475	
-0.386353	
-0.386963	
-0.387451	
-0.387024	
-0.386658	
-0.386963	
-0.387695	
-0.387939	
-0.387756	
-0.386597	
-0.386841	
-0.387207	
-0.387695	
-0.386902	
-0.386719	
-0.386536	
-0.386292	
-0.387695	
-0.386475	
-0.387512	
-0.38623	
-0.38739	
-0.386414	
-0.388062	
-0.386414	
-0.385925	
-0.384949	
-0.386292	
-0.385864	
-0.386108	
-0.386108	
-0.386353	
-0.385864	
-0.386536	
-0.385925	
-0.386169	
-0.385376	
-0.386658	
-0.386902	
-0.386658	
-0.387512	
-0.386597	
-0.387695	
-0.387573	
-0.387634	
-0.386353	
-0.38623	
-0.387634	
-0.387634	
-0.387207	
-0.388062	
-0.388367	
-0.387756	
-0.387512	
-0.387756	
-0.38678	
-0.386475	
-0.387573	
-0.387573	
-0.387695	
-0.387756	
-0.389221	
-0.387451	
-0.388611	
-0.387207	
-0.388306	
-0.386841	
-0.388855	
-0.387268	
-0.387573	
-0.387573	
-0.388367	
-0.386536	
-0.387329	
-0.386414	
-0.386902	
-0.386169	
-0.387939	
-0.38623	
-0.385803	
-0.385986	
-0.386475	
-0.386902	
-0.385681	
-0.385315	
-0.38562	
-0.385498	
-0.387085	
-0.386536	
-0.385498	
-0.385254	
-0.386414	
-0.386292	
-0.385254	
-0.385193	
-0.385071	
-0.385254	
-0.386292	
-0.38501	
-0.385681	
-0.384155	
-0.386597	
-0.385071	
-0.385559	
-0.384399	
-0.385193	
-0.384521	
-0.386169	
-0.385254	
-0.385681	
-0.383667	
-0.38562	
-0.384521	
-0.385254	
-0.383911	
-0.384705	
-0.383545	
-0.385376	
-0.38446	
-0.384888	
-0.384155	
-0.384644	
-0.384644	
-0.383789	
-0.384338	
-0.38501	
-0.38501	
-0.384949	
-0.384766	
-0.384094	
-0.384949	
-0.384338	
-0.384216	
-0.383606	
-0.384399	
-0.384155	
-0.384399	
-0.38501	
-0.385193	
-0.384216	
-0.384705	
-0.384766	
-0.385071	
-0.385559	
-0.384766	
-0.385376	
-0.384888	
-0.386047	
-0.384949	
-0.384888	
-0.384338	
-0.384888	
-0.385925	
-0.385498	
-0.384827	
-0.385864	
-0.385254	
-0.386292	
-0.385681	
-0.386169	
-0.38501	
-0.385254	
-0.38562	
-0.386169	
-0.385864	
-0.385132	
-0.385254	
-0.385498	
-0.387268	
-0.385193	
-0.384827	
-0.384521	
-0.385254	
	
