C:\DOCUMENTS AND SETTINGS\JASON\DESKTOP\UFRJ\UFRJ EPHYS\RSCI-BM 12 WK SERIES\070806-RSCI-BM-16\RSCI-BM-16-LEMG\070806-RSCI-BM-16-LEMG-0004.ACQ
0.025000 msec/sample
1 channel
Analog input
Volts
CH1	
2000	
-0.38385	
-0.383667	
-0.38324	
-0.38324	
-0.38269	
-0.383911	
-0.383606	
-0.383179	
-0.382935	
-0.38269	
-0.383911	
-0.383606	
-0.384399	
-0.383301	
-0.383484	
-0.382996	
-0.384094	
-0.383972	
-0.383911	
-0.383911	
-0.384521	
-0.385376	
-0.38623	
-0.384644	
-0.384338	
-0.38501	
-0.385681	
-0.38562	
-0.385681	
-0.386169	
-0.386414	
-0.386719	
-0.387024	
-0.386841	
-0.386292	
-0.386597	
-0.388062	
-0.38739	
-0.386902	
-0.385864	
-0.385498	
-0.386536	
-0.38678	
-0.387756	
-0.386292	
-0.386108	
-0.385132	
-0.386292	
-0.38623	
-0.385437	
-0.385742	
-0.385925	
-0.386597	
-0.386963	
-0.385742	
-0.385071	
-0.385254	
-0.385559	
-0.385986	
-0.385437	
-0.385498	
-0.383972	
-0.385376	
-0.385559	
-0.385254	
-0.384766	
-0.384277	
-0.384705	
-0.384705	
-0.384277	
-0.384033	
-0.383667	
-0.384094	
-0.384155	
-0.383606	
-0.382324	
-0.381042	
-0.381836	
-0.382019	
-0.382141	
-0.380493	
-0.381104	
-0.380249	
-0.381104	
-0.382507	
-0.381042	
-0.380554	
-0.380066	
-0.381042	
-0.38208	
-0.380981	
-0.381409	
-0.381409	
-0.381592	
-0.382141	
-0.381714	
-0.381958	
-0.380859	
-0.381592	
-0.382202	
-0.38208	
-0.381775	
-0.381653	
-0.381897	
-0.38269	
-0.383118	
-0.381897	
-0.381226	
-0.381409	
-0.382141	
-0.383545	
-0.381165	
-0.381897	
-0.381714	
-0.382202	
-0.383362	
-0.382507	
-0.382446	
-0.382263	
-0.382813	
-0.383057	
-0.38269	
-0.383301	
-0.383545	
-0.383789	
-0.385071	
-0.384338	
-0.384827	
-0.383667	
-0.38501	
-0.385132	
-0.385132	
-0.385254	
-0.385376	
-0.385376	
-0.386169	
-0.386475	
-0.385498	
-0.384644	
-0.38446	
-0.384949	
-0.385315	
-0.38385	
-0.384583	
-0.38446	
-0.384766	
-0.385559	
-0.384277	
-0.384094	
-0.383606	
-0.384094	
-0.384766	
-0.383789	
-0.384033	
-0.384338	
-0.384033	
-0.385132	
-0.384094	
-0.384338	
-0.382874	
-0.38446	
-0.38446	
-0.38501	
-0.384399	
-0.384583	
-0.383911	
-0.384949	
-0.385315	
-0.384705	
-0.384155	
-0.384216	
-0.384216	
-0.384644	
-0.383484	
-0.384644	
-0.384705	
-0.385071	
-0.386475	
-0.385071	
-0.384521	
-0.383911	
-0.384521	
-0.38501	
-0.385315	
-0.384583	
-0.384949	
-0.383789	
-0.385437	
-0.385864	
-0.38501	
-0.384949	
-0.384521	
-0.385376	
-0.385681	
-0.385498	
-0.38501	
-0.385315	
-0.365173	
-0.363831	
-0.366028	
-0.366699	
-0.367493	
-0.36676	
-0.391846	
-0.387817	
-0.386353	
-0.385742	
-0.386108	
-0.386169	
-0.361023	
-0.362427	
-0.365356	
-0.365906	
-0.365906	
-0.366272	
-0.385132	
-0.387817	
-0.384216	
-0.385193	
-0.382935	
-0.382996	
-0.381287	
-0.382751	
-0.382935	
-0.382507	
-0.382263	
-0.381897	
-0.381775	
-0.383423	
-0.382935	
-0.382507	
-0.382385	
-0.382874	
-0.382996	
-0.383118	
-0.384094	
-0.383484	
-0.383118	
-0.382568	
-0.383911	
-0.382996	
-0.382568	
-0.382446	
-0.382751	
-0.382874	
-0.382813	
-0.383362	
-0.383728	
-0.384277	
-0.386658	
-0.388	
-0.389954	
-0.392944	
-0.395813	
-0.399414	
-0.40271	
-0.406616	
-0.410217	
-0.413818	
-0.418396	
-0.421875	
-0.426636	
-0.433167	
-0.43811	
-0.443848	
-0.44928	
-0.454102	
-0.457947	
-0.460449	
-0.463318	
-0.463623	
-0.463928	
-0.464783	
-0.465271	
-0.465271	
-0.4646	
-0.465393	
-0.46521	
-0.464783	
-0.465942	
-0.463196	
-0.461548	
-0.458374	
-0.459106	
-0.457764	
-0.45636	
-0.455811	
-0.454895	
-0.454895	
-0.455811	
-0.454834	
-0.453796	
-0.453247	
-0.454468	
-0.454773	
-0.454529	
-0.455811	
-0.455811	
-0.457092	
-0.458801	
-0.461243	
-0.46167	
-0.462952	
-0.463318	
-0.465576	
-0.465698	
-0.466431	
-0.466919	
-0.467529	
-0.468079	
-0.469177	
-0.46936	
-0.470215	
-0.47052	
-0.470947	
-0.470642	
-0.470825	
-0.470154	
-0.469177	
-0.46936	
-0.470093	
-0.468628	
-0.467529	
-0.467102	
-0.467346	
-0.467468	
-0.466003	
-0.467285	
-0.466553	
-0.465759	
-0.4646	
-0.46228	
-0.460205	
-0.456055	
-0.454834	
-0.451355	
-0.44751	
-0.444702	
-0.440002	
-0.435425	
-0.431702	
-0.426392	
-0.420105	
-0.414368	
-0.407104	
-0.401978	
-0.395264	
-0.388245	
-0.380859	
-0.373047	
-0.365112	
-0.356689	
-0.34729	
-0.33783	
-0.326782	
-0.317688	
-0.306946	
-0.295166	
-0.286255	
-0.274963	
-0.265991	
-0.257874	
-0.250122	
-0.243286	
-0.238159	
-0.233398	
-0.23175	
-0.230164	
-0.229736	
-0.230103	
-0.23053	
-0.2323	
-0.23407	
-0.235168	
-0.237427	
-0.240417	
-0.24408	
-0.247437	
-0.251953	
-0.255737	
-0.260132	
-0.26593	
-0.268799	
-0.273376	
-0.277832	
-0.282654	
-0.287048	
-0.290771	
-0.295959	
-0.299194	
-0.303162	
-0.30658	
-0.309143	
-0.312195	
-0.31488	
-0.317566	
-0.320068	
-0.322754	
-0.326416	
-0.328247	
-0.330627	
-0.33197	
-0.333984	
-0.336182	
-0.336914	
-0.339905	
-0.341431	
-0.343384	
-0.345642	
-0.345886	
-0.348633	
-0.34906	
-0.349976	
-0.350037	
-0.351013	
-0.352722	
-0.353027	
-0.354248	
-0.35498	
-0.35553	
-0.357361	
-0.356567	
-0.357117	
-0.357422	
-0.358032	
-0.358154	
-0.358276	
-0.359009	
-0.359375	
-0.360046	
-0.360901	
-0.360168	
-0.360291	
-0.360107	
-0.360596	
-0.360474	
-0.360718	
-0.361267	
-0.360901	
-0.361938	
-0.362	
-0.361267	
-0.361023	
-0.360474	
-0.361694	
-0.361328	
-0.360901	
-0.361511	
-0.361023	
-0.361389	
-0.361877	
-0.360901	
-0.360413	
-0.360046	
-0.36084	
-0.361206	
-0.361023	
-0.361023	
-0.36084	
-0.360657	
-0.360779	
-0.360168	
-0.35968	
-0.359741	
-0.360352	
-0.360291	
-0.359741	
-0.360291	
-0.361023	
-0.361206	
-0.361816	
-0.360413	
-0.360901	
-0.360168	
-0.361084	
-0.361267	
-0.361755	
-0.36261	
-0.362976	
-0.362671	
-0.363586	
-0.361328	
-0.362671	
-0.361816	
-0.363464	
-0.363586	
-0.36322	
-0.364014	
-0.364624	
-0.364685	
-0.365662	
-0.364014	
-0.364197	
-0.363159	
-0.365356	
-0.364868	
-0.365112	
-0.365662	
-0.36554	
-0.366699	
-0.365967	
-0.36615	
-0.365906	
-0.367249	
-0.367065	
-0.366577	
-0.366455	
-0.367126	
-0.367371	
-0.368591	
-0.367371	
-0.368164	
-0.366638	
-0.368835	
-0.36792	
-0.368469	
-0.367432	
-0.369568	
-0.369324	
-0.370056	
-0.367981	
-0.368896	
-0.367676	
-0.369446	
-0.369141	
-0.369263	
-0.367981	
-0.3703	
-0.369629	
-0.370728	
-0.369629	
-0.369324	
-0.368774	
-0.371399	
-0.370605	
-0.37085	
-0.370056	
-0.371033	
-0.371155	
-0.372742	
-0.37146	
-0.37146	
-0.370789	
-0.372742	
-0.372559	
-0.372375	
-0.372192	
-0.373718	
-0.374023	
-0.374207	
-0.37384	
-0.374329	
-0.374146	
-0.375061	
-0.374939	
-0.375244	
-0.375549	
-0.375854	
-0.376526	
-0.37677	
-0.376648	
-0.376465	
-0.376038	
-0.377014	
-0.376831	
-0.376831	
-0.376526	
-0.376953	
-0.376953	
-0.377441	
-0.377563	
-0.376587	
-0.376221	
-0.377136	
-0.377136	
-0.377136	
-0.37738	
-0.377136	
-0.377441	
-0.378174	
-0.379272	
-0.377502	
-0.37616	
-0.375427	
-0.378174	
-0.377869	
-0.377869	
-0.377075	
-0.377869	
-0.378418	
-0.379089	
-0.377258	
-0.376526	
-0.375488	
-0.378235	
-0.377808	
-0.377747	
-0.376282	
-0.377075	
-0.377808	
-0.378601	
-0.376282	
-0.375671	
-0.374268	
-0.376892	
-0.375854	
-0.376099	
-0.375	
-0.376038	
-0.376465	
-0.376892	
-0.376099	
-0.374451	
-0.374451	
-0.37738	
-0.375977	
-0.376648	
-0.37616	
-0.377136	
-0.377563	
-0.378784	
-0.376892	
-0.376282	
-0.376221	
-0.378784	
-0.377441	
-0.377747	
-0.376953	
-0.378845	
-0.378906	
-0.379456	
-0.378174	
-0.377869	
-0.377747	
-0.379517	
-0.379028	
-0.378784	
-0.378113	
-0.379211	
-0.379028	
-0.379944	
-0.37915	
-0.378906	
-0.378357	
-0.380066	
-0.379517	
-0.3797	
-0.378906	
-0.379822	
-0.380127	
-0.380981	
-0.379883	
-0.379333	
-0.379456	
-0.381042	
-0.380371	
-0.380615	
-0.380188	
-0.380676	
-0.381226	
-0.381042	
-0.380371	
-0.379944	
-0.380188	
-0.38092	
-0.380249	
-0.380432	
-0.380371	
-0.380188	
-0.380493	
-0.380005	
-0.380493	
-0.37854	
-0.379089	
-0.380432	
-0.379883	
-0.380188	
-0.38031	
-0.380676	
-0.38147	
-0.380249	
-0.380554	
-0.379272	
-0.379761	
-0.381287	
-0.381165	
-0.381104	
-0.380737	
-0.382385	
-0.383118	
-0.382935	
-0.382935	
-0.381714	
-0.382202	
-0.384338	
-0.383423	
-0.383789	
-0.383545	
-0.383789	
-0.384399	
-0.385132	
-0.384033	
-0.383667	
-0.38385	
-0.385254	
-0.384216	
-0.383972	
-0.383728	
-0.384094	
-0.38446	
-0.384888	
-0.383728	
-0.383728	
-0.38269	
-0.384888	
-0.384033	
-0.383362	
-0.383484	
-0.38446	
-0.383728	
-0.384521	
-0.382935	
-0.383484	
-0.382629	
-0.383728	
-0.383057	
-0.383301	
-0.38269	
-0.383789	
-0.383179	
-0.383423	
-0.381958	
-0.382446	
-0.382202	
-0.382751	
-0.382507	
-0.382324	
-0.381775	
-0.382874	
-0.382019	
-0.38147	
-0.381042	
-0.380493	
-0.3797	
-0.380371	
-0.380371	
-0.3797	
-0.379333	
-0.379822	
-0.379822	
-0.379456	
-0.379395	
-0.378784	
-0.379211	
-0.379639	
-0.379089	
-0.379333	
-0.379333	
-0.380188	
-0.379822	
-0.380798	
-0.38031	
-0.3797	
-0.379211	
-0.379456	
-0.379639	
-0.380005	
-0.379639	
-0.380493	
-0.380249	
-0.381226	
-0.380859	
-0.380188	
-0.379028	
-0.379944	
-0.380249	
-0.379944	
-0.380371	
-0.380676	
-0.381165	
-0.381653	
-0.381226	
-0.380371	
-0.379333	
-0.380554	
-0.380798	
-0.380859	
-0.380981	
-0.381287	
-0.382263	
-0.382996	
-0.38324	
-0.381714	
-0.381714	
-0.382385	
-0.383606	
-0.383362	
-0.383545	
-0.383728	
-0.384521	
-0.38501	
-0.385071	
-0.382874	
-0.383484	
-0.38324	
-0.384338	
-0.383911	
-0.383484	
-0.383362	
-0.383301	
-0.38385	
-0.384155	
-0.383484	
-0.38269	
-0.382263	
-0.383789	
-0.382874	
-0.382996	
-0.382813	
-0.383057	
-0.383179	
-0.383545	
-0.383057	
-0.382507	
-0.382568	
-0.38385	
-0.382935	
-0.382935	
-0.382141	
-0.383667	
-0.384033	
-0.383911	
-0.383606	
-0.38269	
-0.383179	
-0.384033	
-0.383301	
-0.383667	
-0.383118	
-0.383667	
-0.384216	
-0.385193	
-0.383911	
-0.382324	
-0.382813	
-0.384155	
-0.383972	
-0.383911	
-0.383484	
-0.383606	
-0.384216	
-0.384766	
-0.38501	
-0.383789	
-0.383545	
-0.382996	
-0.384155	
-0.383972	
-0.384216	
-0.384277	
-0.384399	
-0.384949	
-0.386047	
-0.384277	
-0.38385	
-0.38324	
-0.383972	
-0.384399	
-0.384399	
-0.384155	
-0.384338	
-0.385071	
-0.385376	
-0.384155	
-0.382568	
-0.382324	
-0.384399	
-0.384094	
-0.383728	
-0.383301	
-0.383362	
-0.384399	
-0.385193	
-0.38208	
-0.381409	
-0.380798	
-0.382507	
-0.381714	
-0.38147	
-0.380371	
-0.381409	
-0.382019	
-0.383179	
-0.381287	
-0.381165	
-0.378662	
-0.381958	
-0.381226	
-0.381348	
-0.380066	
-0.381287	
-0.381897	
-0.382446	
-0.381348	
-0.381226	
-0.380432	
-0.382385	
-0.381348	
-0.38147	
-0.380737	
-0.381287	
-0.38208	
-0.382751	
-0.381958	
-0.38208	
-0.381592	
-0.382019	
-0.381775	
-0.382141	
-0.381897	
-0.382385	
-0.381958	
-0.383301	
-0.383545	
-0.382019	
-0.380981	
-0.380676	
-0.38269	
-0.382507	
-0.382813	
-0.382996	
-0.383362	
-0.384338	
-0.385437	
-0.384094	
-0.384094	
-0.383545	
-0.38501	
-0.384949	
-0.384888	
-0.385254	
-0.385376	
-0.385986	
-0.386841	
-0.385681	
-0.385376	
-0.384766	
-0.386169	
-0.38562	
-0.384827	
-0.384521	
-0.385254	
-0.385132	
-0.38623	
-0.384644	
-0.384094	
-0.383362	
-0.38501	
-0.384277	
-0.384521	
-0.38324	
-0.38446	
-0.384644	
-0.385925	
-0.384827	
-0.384155	
-0.382324	
-0.384521	
-0.384583	
-0.384094	
-0.382874	
-0.384399	
-0.384094	
-0.385986	
-0.385132	
-0.384216	
-0.382507	
-0.38446	
-0.38446	
-0.383606	
-0.38324	
-0.384033	
-0.384033	
-0.385254	
-0.385132	
-0.384521	
-0.383484	
-0.383301	
-0.38385	
-0.383606	
-0.383728	
-0.384216	
-0.384521	
-0.384766	
-0.384583	
-0.384949	
-0.383545	
-0.383728	
-0.383484	
-0.384949	
-0.384277	
-0.384338	
-0.384521	
-0.384644	
-0.385803	
-0.385193	
-0.384766	
-0.384644	
-0.384399	
-0.384399	
-0.384155	
-0.384583	
-0.38446	
-0.384399	
-0.386597	
-0.384521	
-0.384705	
-0.382019	
-0.384766	
-0.383911	
-0.38324	
-0.382324	
-0.383484	
-0.383179	
-0.38446	
-0.382507	
-0.382263	
-0.380432	
-0.382874	
-0.381287	
-0.381775	
-0.381042	
-0.381287	
-0.381348	
-0.382263	
-0.381409	
-0.381531	
-0.380615	
-0.381348	
-0.380249	
-0.381226	
-0.381409	
-0.381775	
-0.381592	
-0.382263	
-0.382751	
-0.381897	
-0.380798	
-0.381348	
-0.382019	
-0.382141	
-0.381531	
-0.382019	
-0.381775	
-0.382996	
-0.384033	
-0.38269	
-0.382629	
-0.380432	
-0.383057	
-0.382874	
-0.38269	
-0.382263	
-0.38324	
-0.383362	
-0.38446	
-0.383423	
-0.38324	
-0.38269	
-0.384033	
-0.383423	
-0.384216	
-0.384277	
-0.385132	
-0.385803	
-0.38678	
-0.386108	
-0.38678	
-0.385254	
-0.386597	
-0.385742	
-0.386963	
-0.386841	
-0.387451	
-0.387329	
-0.388489	
-0.388245	
-0.388184	
-0.386292	
-0.386841	
-0.386719	
-0.386902	
-0.386902	
-0.386597	
-0.38678	
-0.388	
-0.388062	
-0.386719	
-0.385925	
-0.385376	
-0.387146	
-0.386047	
-0.386353	
-0.385498	
-0.386902	
-0.387024	
-0.387939	
-0.386597	
-0.38623	
-0.384827	
-0.386597	
-0.386169	
-0.386658	
-0.385803	
-0.386292	
-0.386475	
-0.386902	
-0.38623	
-0.38623	
-0.385437	
-0.385925	
-0.384644	
-0.385437	
-0.38446	
-0.384827	
-0.384827	
-0.385376	
-0.384155	
-0.384338	
-0.383179	
-0.383728	
-0.383057	
-0.383118	
-0.38324	
-0.382813	
-0.383118	
-0.383911	
-0.383667	
-0.383911	
-0.382446	
-0.383362	
-0.384583	
-0.38385	
-0.383728	
-0.382507	
-0.384399	
-0.385254	
-0.385376	
-0.384277	
-0.382813	
-0.381958	
-0.384949	
-0.383972	
-0.384216	
-0.383667	
-0.384521	
-0.385071	
-0.385132	
-0.384399	
-0.384094	
-0.383728	
-0.383972	
-0.383057	
-0.383728	
-0.383789	
-0.38385	
-0.384644	
-0.384338	
-0.383606	
-0.384155	
-0.383545	
-0.384155	
-0.384216	
-0.383545	
-0.383362	
-0.383484	
-0.383728	
-0.383911	
-0.384094	
-0.383667	
-0.383728	
-0.383301	
-0.384155	
-0.383972	
-0.384094	
-0.382202	
-0.384216	
-0.383667	
-0.385742	
-0.383667	
-0.382935	
-0.38147	
-0.38385	
-0.383118	
-0.382629	
-0.38208	
-0.383057	
-0.383423	
-0.384399	
-0.382751	
-0.383545	
-0.382874	
-0.383667	
-0.382874	
-0.383057	
-0.383301	
-0.383789	
-0.384827	
-0.384033	
-0.383911	
-0.383362	
-0.382751	
-0.384094	
-0.383728	
-0.38385	
-0.384705	
-0.385315	
-0.385498	
-0.385437	
-0.386597	
-0.385315	
-0.385925	
-0.38501	
-0.385864	
-0.386047	
-0.386108	
-0.386108	
-0.386963	
-0.386902	
-0.387817	
-0.386292	
-0.386719	
-0.384888	
-0.386841	
-0.386108	
-0.385742	
-0.385376	
-0.386353	
-0.38623	
-0.386597	
-0.385925	
-0.387329	
-0.38501	
-0.386108	
-0.384949	
-0.385986	
-0.385681	
-0.385742	
-0.386414	
-0.386353	
-0.38562	
-0.386536	
-0.385193	
-0.385742	
-0.384827	
-0.385742	
-0.385742	
-0.38562	
-0.386047	
-0.385193	
-0.386414	
-0.383972	
-0.38446	
-0.383057	
-0.384766	
-0.384338	
-0.383423	
-0.38269	
-0.383667	
-0.383423	
-0.384338	
-0.382629	
-0.382813	
-0.381897	
-0.382996	
-0.382568	
-0.381592	
-0.38147	
-0.38208	
-0.381775	
-0.382813	
-0.38208	
-0.383118	
-0.382141	
-0.382813	
-0.382202	
-0.382813	
-0.382813	
-0.382813	
-0.382935	
-0.382874	
-0.383911	
-0.383911	
-0.382385	
-0.38208	
-0.383057	
-0.383545	
-0.383179	
-0.383362	
-0.384216	
-0.38324	
-0.384399	
-0.382874	
-0.383423	
-0.383057	
-0.384155	
-0.383789	
-0.383545	
-0.382751	
-0.384705	
-0.384033	
-0.384766	
-0.382874	
-0.383362	
-0.382751	
-0.383728	
-0.383545	
-0.383484	
-0.383423	
-0.383911	
-0.383911	
-0.384583	
-0.384705	
-0.384705	
-0.383667	
-0.383118	
-0.383423	
-0.384033	
-0.383484	
-0.383789	
-0.383972	
-0.383911	
-0.383911	
-0.384399	
-0.383118	
-0.383179	
-0.382568	
-0.382935	
-0.382629	
-0.382996	
-0.383484	
-0.383118	
-0.383728	
-0.383606	
-0.383423	
-0.382324	
-0.383362	
-0.383057	
-0.38324	
-0.382813	
-0.384094	
-0.383545	
-0.384583	
-0.383911	
-0.383972	
-0.383362	
-0.384338	
-0.38501	
-0.385681	
-0.384888	
-0.386353	
-0.385803	
-0.385986	
-0.385254	
-0.386658	
-0.386169	
-0.38623	
-0.386169	
-0.387207	
-0.386597	
-0.387329	
-0.386719	
-0.386597	
-0.386658	
-0.387329	
-0.386475	
-0.386353	
-0.385742	
-0.386292	
-0.385925	
-0.38623	
-0.385742	
-0.385681	
-0.386597	
-0.386841	
-0.385742	
-0.384277	
-0.38446	
-0.385193	
-0.385254	
-0.384216	
-0.385376	
-0.385193	
-0.385742	
-0.384644	
-0.384888	
-0.383484	
-0.385315	
-0.384277	
-0.384766	
-0.383789	
-0.38501	
-0.384094	
-0.38446	
-0.382751	
-0.384216	
-0.383057	
-0.382751	
-0.380798	
-0.382141	
-0.381409	
-0.382141	
-0.381104	
-0.381287	
-0.380554	
-0.381592	
-0.380676	
-0.380737	
-0.3797	
-0.379944	
-0.380127	
-0.380676	
-0.380737	
-0.380432	
-0.381042	
-0.381592	
-0.380981	
-0.38031	
-0.380066	
-0.380676	
-0.380981	
-0.38147	
-0.381287	
-0.381042	
-0.382019	
-0.381775	
-0.380798	
-0.380493	
-0.381836	
-0.381165	
-0.381775	
-0.380432	
-0.382202	
-0.381531	
-0.381165	
-0.380737	
-0.382324	
-0.381775	
-0.38208	
-0.380798	
-0.381958	
-0.381409	
-0.382874	
-0.382019	
-0.382507	
-0.381958	
-0.383301	
-0.382935	
-0.383118	
-0.383423	
-0.38385	
-0.384216	
-0.384399	
-0.384216	
-0.384949	
-0.385254	
-0.385376	
-0.384583	
-0.384155	
-0.384583	
-0.384705	
-0.384583	
-0.384644	
-0.384399	
-0.384216	
-0.384399	
-0.385315	
-0.384155	
-0.383179	
-0.382996	
-0.383423	
-0.383545	
-0.383545	
-0.384399	
-0.383545	
-0.38385	
-0.383301	
-0.38385	
-0.383118	
-0.38446	
-0.383057	
-0.383118	
-0.382629	
-0.384644	
-0.383789	
-0.384155	
-0.383972	
-0.384644	
-0.383545	
-0.383728	
-0.383911	
-0.383911	
-0.383545	
-0.383911	
-0.383972	
-0.384277	
-0.384827	
-0.385193	
-0.384033	
-0.383301	
-0.382751	
-0.383545	
-0.383789	
-0.38446	
-0.384094	
-0.384216	
-0.384766	
-0.385071	
-0.384644	
-0.383728	
-0.384033	
-0.383606	
-0.384216	
-0.384277	
-0.384705	
-0.384705	
-0.384827	
-0.385193	
-0.385071	
-0.384521	
-0.385437	
-0.384583	
-0.384583	
-0.384521	
-0.385254	
-0.385071	
-0.385071	
-0.383972	
-0.385132	
-0.384033	
-0.384766	
-0.382935	
-0.384216	
-0.384338	
-0.384521	
-0.383972	
-0.38385	
-0.38324	
-0.383667	
-0.383789	
-0.382507	
-0.382263	
-0.38147	
-0.382385	
-0.381836	
-0.381897	
-0.381775	
-0.381897	
-0.381592	
-0.381836	
-0.379944	
-0.382019	
-0.380249	
-0.380737	
-0.380249	
-0.382446	
-0.381592	
-0.381897	
-0.380554	
-0.382568	
-0.380981	
-0.381775	
-0.380371	
-0.381531	
-0.381409	
-0.382263	
-0.381958	
-0.382019	
-0.381042	
-0.382446	
-0.381531	
-0.382019	
-0.381653	
-0.381775	
-0.381592	
-0.382141	
-0.381714	
-0.381714	
-0.381714	
-0.382385	
-0.383118	
-0.38269	
-0.382629	
-0.381165	
-0.382324	
-0.381531	
-0.38324	
-0.382874	
-0.383972	
-0.384094	
-0.384644	
-0.383057	
-0.384888	
-0.384338	
-0.384888	
-0.384766	
-0.386047	
-0.385193	
-0.386353	
-0.384338	
-0.386414	
-0.385193	
-0.385376	
-0.384277	
-0.385132	
-0.385254	
-0.385254	
-0.384888	
-0.384949	
-0.384277	
-0.385315	
-0.385193	
-0.384766	
-0.384094	
-0.38324	
-0.38446	
-0.384583	
-0.384216	
-0.384094	
-0.38446	
-0.384216	
-0.384827	
-0.383972	
-0.38446	
-0.383301	
-0.383911	
-0.383118	
-0.384338	
-0.383667	
-0.384644	
-0.383301	
-0.384216	
-0.382385	
-0.384277	
-0.382751	
-0.383484	
-0.383667	
-0.384644	
-0.383606	
-0.383972	
-0.382507	
-0.384216	
-0.383545	
-0.383545	
-0.382751	
-0.38269	
-0.383301	
-0.38385	
-0.383484	
-0.383545	
-0.383484	
-0.384644	
-0.383545	
-0.383301	
-0.384216	
-0.383362	
-0.383667	
-0.383118	
-0.384338	
-0.384277	
-0.384338	
-0.383972	
-0.384155	
-0.383179	
-0.384155	
-0.38385	
-0.384033	
-0.384094	
-0.384705	
-0.384094	
-0.38446	
-0.382996	
-0.384583	
-0.384155	
-0.383728	
-0.382202	
-0.382385	
-0.383057	
-0.383606	
-0.382324	
-0.382324	
-0.381165	
-0.38269	
-0.38147	
-0.381775	
-0.381958	
-0.380798	
-0.380798	
-0.380371	
-0.380981	
-0.380676	
-0.380493	
-0.380798	
-0.380493	
-0.380554	
-0.381104	
-0.380371	
-0.380676	
-0.380127	
-0.381409	
-0.38092	
-0.380981	
-0.38092	
-0.381714	
-0.381042	
-0.381714	
-0.381042	
-0.381165	
-0.381287	
-0.382202	
-0.381958	
-0.382141	
-0.380554	
-0.382935	
-0.382385	
-0.382324	
-0.380981	
-0.381042	
-0.381836	
-0.382996	
-0.382874	
-0.383423	
-0.382141	
-0.383179	
-0.382629	
-0.382996	
-0.382874	
-0.383301	
-0.383545	
-0.383972	
-0.384216	
-0.385498	
-0.384705	
-0.385132	
-0.385803	
-0.385925	
-0.386475	
-0.385803	
-0.38623	
-0.385559	
-0.387268	
-0.386597	
-0.38678	
-0.386292	
-0.387329	
-0.387268	
-0.386902	
-0.385254	
-0.38501	
-0.385986	
-0.386353	
-0.385925	
-0.385803	
-0.384705	
-0.386475	
-0.386658	
-0.385864	
-0.385925	
-0.385376	
-0.385376	
-0.38623	
-0.386169	
-0.386108	
-0.384705	
-0.385803	
-0.384949	
-0.385559	
-0.385986	
-0.385071	
-0.385742	
-0.384705	
-0.385132	
-0.385254	
-0.384888	
-0.384949	
-0.385742	
-0.385315	
-0.384949	
-0.383606	
-0.383423	
-0.384216	
-0.383545	
-0.383423	
-0.382874	
-0.383179	
-0.382813	
-0.383179	
-0.382874	
-0.382141	
-0.381958	
-0.382446	
-0.382629	
-0.382385	
-0.382629	
-0.382141	
-0.382385	
-0.381409	
-0.38269	
-0.382874	
-0.383057	
-0.383118	
-0.382751	
-0.383118	
-0.383606	
-0.38269	
-0.383179	
-0.383301	
-0.38385	
-0.383606	
-0.38269	
-0.38324	
-0.383606	
-0.383118	
-0.383789	
-0.383057	
-0.383118	
-0.38385	
-0.38385	
-0.383362	
-0.382629	
-0.382629	
-0.383362	
-0.382751	
-0.382874	
-0.383118	
-0.383118	
-0.383118	
-0.382385	
-0.382813	
-0.383545	
-0.383179	
-0.382996	
-0.382263	
-0.383057	
-0.383179	
-0.382568	
-0.38269	
-0.383057	
-0.383423	
-0.384094	
-0.382568	
-0.383484	
-0.38269	
-0.382813	
-0.383057	
-0.382263	
-0.382568	
-0.383789	
-0.382996	
-0.383118	
-0.381287	
-0.381531	
-0.382751	
-0.382385	
-0.382507	
-0.382141	
-0.382813	
-0.382813	
-0.382751	
-0.382751	
-0.382507	
-0.382629	
-0.382996	
-0.38269	
-0.383362	
-0.383057	
-0.383545	
-0.38324	
-0.382507	
-0.383118	
-0.384033	
-0.383911	
-0.383911	
-0.383667	
-0.384338	
-0.384766	
-0.384583	
-0.384888	
-0.385803	
-0.385925	
-0.386292	
-0.385071	
-0.384766	
-0.385925	
-0.385132	
-0.38623	
-0.384766	
-0.385864	
-0.386292	
-0.386658	
-0.38623	
-0.384583	
-0.384583	
-0.385559	
-0.385254	
-0.385742	
-0.386047	
-0.385681	
-0.385437	
-0.384644	
-0.385742	
-0.384583	
-0.385376	
-0.385071	
-0.385376	
-0.385071	
-0.385437	
-0.384705	
-0.385193	
-0.385315	
-0.385193	
-0.385315	
-0.384277	
-0.384766	
-0.384705	
-0.384583	
-0.384277	
-0.383606	
-0.384399	
-0.384888	
-0.384216	
-0.384338	
-0.382263	
-0.382813	
-0.382935	
-0.382385	
-0.382446	
-0.382446	
-0.382202	
-0.382507	
-0.382019	
-0.382019	
-0.381348	
-0.381287	
-0.381409	
-0.38147	
-0.381348	
-0.381409	
-0.381836	
-0.382507	
-0.382629	
-0.382019	
-0.383057	
-0.381958	
-0.382385	
-0.381348	
-0.382629	
-0.382202	
-0.382568	
-0.382813	
-0.383972	
-0.382446	
-0.382874	
-0.382263	
-0.382751	
-0.383362	
-0.382751	
-0.382874	
-0.382568	
-0.383301	
-0.383362	
-0.382446	
-0.38324	
-0.382324	
-0.382629	
-0.383545	
-0.382935	
-0.38324	
-0.382629	
-0.383606	
-0.382996	
-0.384399	
-0.383545	
-0.384277	
-0.381104	
-0.38385	
-0.382324	
-0.383179	
-0.38269	
-0.383545	
-0.383301	
-0.384827	
-0.383423	
-0.383667	
-0.383301	
-0.384033	
-0.383057	
-0.383362	
-0.383301	
-0.383362	
	
