C:\DOCUMENTS AND SETTINGS\JASON\DESKTOP\UFRJ\UFRJ EPHYS\RSCI-BM 12 WK SERIES\070806-RSCI-BM-16\RSCI-BM-16-LEMG\070806-RSCI-BM-16-LEMG-0002.ACQ
0.025000 msec/sample
1 channel
Analog input
Volts
CH1	
2000	
-0.38501	
-0.382568	
-0.385742	
-0.383728	
-0.384644	
-0.382935	
-0.384094	
-0.384216	
-0.385315	
-0.385254	
-0.384399	
-0.38324	
-0.384277	
-0.384583	
-0.384705	
-0.384216	
-0.383606	
-0.384705	
-0.384949	
-0.386597	
-0.384766	
-0.384277	
-0.382935	
-0.384399	
-0.385193	
-0.384827	
-0.384583	
-0.383423	
-0.38446	
-0.385132	
-0.38501	
-0.384949	
-0.38446	
-0.383789	
-0.385254	
-0.385132	
-0.384949	
-0.38446	
-0.385315	
-0.385193	
-0.386536	
-0.385681	
-0.385376	
-0.384827	
-0.385986	
-0.38623	
-0.386047	
-0.385681	
-0.385193	
-0.38501	
-0.385742	
-0.386292	
-0.387268	
-0.385681	
-0.384399	
-0.385254	
-0.386475	
-0.385376	
-0.385071	
-0.384277	
-0.38501	
-0.385498	
-0.385864	
-0.385376	
-0.384949	
-0.384155	
-0.385315	
-0.385742	
-0.384949	
-0.385986	
-0.384949	
-0.386169	
-0.387329	
-0.387024	
-0.386902	
-0.385925	
-0.387207	
-0.388062	
-0.388184	
-0.387573	
-0.386475	
-0.388062	
-0.388	
-0.388672	
-0.389526	
-0.388062	
-0.389038	
-0.388123	
-0.390259	
-0.388611	
-0.38855	
-0.387817	
-0.388794	
-0.389038	
-0.390015	
-0.389099	
-0.387939	
-0.38739	
-0.387939	
-0.388062	
-0.387634	
-0.387573	
-0.387085	
-0.388428	
-0.388	
-0.388123	
-0.386963	
-0.386841	
-0.385986	
-0.387817	
-0.386963	
-0.387329	
-0.385803	
-0.38678	
-0.386658	
-0.387268	
-0.387146	
-0.386414	
-0.386353	
-0.386658	
-0.38678	
-0.385681	
-0.385437	
-0.38501	
-0.385681	
-0.384949	
-0.386292	
-0.385071	
-0.384094	
-0.383911	
-0.384155	
-0.383667	
-0.384033	
-0.383667	
-0.382996	
-0.38324	
-0.385071	
-0.383972	
-0.38385	
-0.382263	
-0.382874	
-0.383972	
-0.384033	
-0.384094	
-0.382202	
-0.384277	
-0.38385	
-0.384216	
-0.383911	
-0.384094	
-0.383362	
-0.38446	
-0.384338	
-0.384705	
-0.383362	
-0.383545	
-0.383301	
-0.384521	
-0.384827	
-0.384766	
-0.383423	
-0.382996	
-0.383911	
-0.384583	
-0.383911	
-0.383484	
-0.383667	
-0.384399	
-0.385132	
-0.384155	
-0.384827	
-0.382507	
-0.384583	
-0.383545	
-0.38501	
-0.384583	
-0.38385	
-0.384644	
-0.385071	
-0.385376	
-0.385986	
-0.385315	
-0.385193	
-0.385742	
-0.386597	
-0.385071	
-0.385193	
-0.385803	
-0.384949	
-0.38623	
-0.385986	
-0.386841	
-0.38562	
-0.385742	
-0.385986	
-0.387085	
-0.386169	
-0.351807	
-0.356689	
-0.364868	
-0.366272	
-0.366821	
-0.366638	
-0.410095	
-0.394226	
-0.389282	
-0.387085	
-0.387207	
-0.386658	
-0.386597	
-0.387695	
-0.38678	
-0.387329	
-0.38678	
-0.387146	
-0.386963	
-0.387573	
-0.38678	
-0.387024	
-0.386536	
-0.387207	
-0.388062	
-0.388306	
-0.387024	
-0.387695	
-0.387573	
-0.388062	
-0.387695	
-0.387207	
-0.387573	
-0.386841	
-0.388428	
-0.388123	
-0.388611	
-0.387634	
-0.386719	
-0.386719	
-0.388672	
-0.386414	
-0.387634	
-0.385986	
-0.386536	
-0.386658	
-0.386414	
-0.386353	
-0.386353	
-0.386414	
-0.38739	
-0.389038	
-0.388672	
-0.390808	
-0.390869	
-0.395203	
-0.398865	
-0.402771	
-0.404358	
-0.407776	
-0.409912	
-0.41571	
-0.416992	
-0.420166	
-0.422913	
-0.42865	
-0.43335	
-0.436951	
-0.440125	
-0.443359	
-0.445496	
-0.447998	
-0.446899	
-0.446228	
-0.44574	
-0.444397	
-0.44397	
-0.44281	
-0.443481	
-0.441284	
-0.439941	
-0.439026	
-0.440796	
-0.438416	
-0.437378	
-0.434753	
-0.434753	
-0.434692	
-0.433105	
-0.431458	
-0.43219	
-0.431213	
-0.431458	
-0.432251	
-0.430969	
-0.431335	
-0.429321	
-0.431396	
-0.431702	
-0.4328	
-0.432495	
-0.433533	
-0.434814	
-0.437195	
-0.438354	
-0.440002	
-0.440796	
-0.442932	
-0.443787	
-0.444824	
-0.444458	
-0.446228	
-0.445984	
-0.447449	
-0.448608	
-0.44812	
-0.449585	
-0.447754	
-0.449768	
-0.450256	
-0.450317	
-0.448975	
-0.448425	
-0.447266	
-0.449402	
-0.448059	
-0.448059	
-0.448303	
-0.449585	
-0.44989	
-0.450867	
-0.44989	
-0.449524	
-0.447205	
-0.447327	
-0.447327	
-0.444031	
-0.442017	
-0.437378	
-0.436523	
-0.433533	
-0.43042	
-0.425842	
-0.422241	
-0.416931	
-0.413574	
-0.407043	
-0.402832	
-0.396423	
-0.390808	
-0.385193	
-0.379517	
-0.372009	
-0.364807	
-0.356995	
-0.347229	
-0.340515	
-0.330444	
-0.320435	
-0.309387	
-0.299866	
-0.289429	
-0.280762	
-0.270142	
-0.263428	
-0.253967	
-0.249451	
-0.245972	
-0.241394	
-0.239319	
-0.236145	
-0.236328	
-0.236145	
-0.236633	
-0.236511	
-0.237732	
-0.238525	
-0.242859	
-0.245056	
-0.247742	
-0.250305	
-0.254883	
-0.258545	
-0.263977	
-0.267761	
-0.2724	
-0.27594	
-0.281799	
-0.285828	
-0.291382	
-0.295227	
-0.299866	
-0.304077	
-0.309265	
-0.31134	
-0.313843	
-0.316467	
-0.320007	
-0.322571	
-0.324097	
-0.326233	
-0.328247	
-0.33075	
-0.333313	
-0.334595	
-0.335632	
-0.337402	
-0.339294	
-0.340454	
-0.34137	
-0.34198	
-0.341614	
-0.343628	
-0.344666	
-0.34552	
-0.346558	
-0.346069	
-0.348267	
-0.347534	
-0.348572	
-0.347839	
-0.348267	
-0.349548	
-0.350464	
-0.350159	
-0.351501	
-0.350769	
-0.351929	
-0.351257	
-0.351746	
-0.351685	
-0.351563	
-0.353333	
-0.353394	
-0.354065	
-0.35437	
-0.354126	
-0.353882	
-0.35614	
-0.355408	
-0.356262	
-0.354614	
-0.356262	
-0.357117	
-0.3573	
-0.357117	
-0.356995	
-0.356506	
-0.358826	
-0.358032	
-0.357727	
-0.357727	
-0.35791	
-0.359131	
-0.35907	
-0.359131	
-0.359375	
-0.359131	
-0.359497	
-0.359863	
-0.360046	
-0.360291	
-0.360352	
-0.361877	
-0.362061	
-0.361877	
-0.362183	
-0.361694	
-0.362488	
-0.363586	
-0.363159	
-0.362854	
-0.362488	
-0.363892	
-0.365479	
-0.36438	
-0.36438	
-0.363159	
-0.363892	
-0.36499	
-0.36499	
-0.365234	
-0.365051	
-0.364746	
-0.366455	
-0.365234	
-0.365784	
-0.365601	
-0.365662	
-0.366577	
-0.365967	
-0.365967	
-0.365845	
-0.366028	
-0.367126	
-0.366333	
-0.366699	
-0.365906	
-0.366577	
-0.367126	
-0.367004	
-0.36731	
-0.36676	
-0.367188	
-0.367737	
-0.367554	
-0.367493	
-0.366943	
-0.368042	
-0.368469	
-0.368042	
-0.368958	
-0.368591	
-0.368225	
-0.368408	
-0.369019	
-0.368652	
-0.36792	
-0.368652	
-0.369019	
-0.369385	
-0.369751	
-0.369263	
-0.369385	
-0.37085	
-0.370789	
-0.36969	
-0.369629	
-0.369751	
-0.370483	
-0.370544	
-0.368774	
-0.370239	
-0.369141	
-0.370605	
-0.371765	
-0.370789	
-0.370239	
-0.370667	
-0.371521	
-0.371765	
-0.370667	
-0.371643	
-0.3703	
-0.371826	
-0.371216	
-0.371643	
-0.371582	
-0.371643	
-0.372314	
-0.372803	
-0.372742	
-0.372498	
-0.371643	
-0.372375	
-0.372925	
-0.372559	
-0.372253	
-0.372009	
-0.372498	
-0.372803	
-0.372253	
-0.371582	
-0.372986	
-0.372925	
-0.37262	
-0.372437	
-0.373047	
-0.373474	
-0.373901	
-0.374329	
-0.37384	
-0.37384	
-0.374451	
-0.373718	
-0.37439	
-0.375549	
-0.374939	
-0.374817	
-0.374207	
-0.37561	
-0.375916	
-0.375366	
-0.374878	
-0.375854	
-0.375854	
-0.376221	
-0.376648	
-0.375793	
-0.375977	
-0.376892	
-0.377258	
-0.376831	
-0.376038	
-0.376892	
-0.376953	
-0.37738	
-0.377991	
-0.37738	
-0.377808	
-0.377563	
-0.378601	
-0.378723	
-0.378296	
-0.379395	
-0.379517	
-0.379211	
-0.379517	
-0.3797	
-0.38031	
-0.380127	
-0.380371	
-0.380493	
-0.380066	
-0.380371	
-0.381348	
-0.380859	
-0.380981	
-0.381226	
-0.380676	
-0.380859	
-0.379456	
-0.381042	
-0.380127	
-0.380554	
-0.380981	
-0.381042	
-0.381348	
-0.382568	
-0.381226	
-0.381165	
-0.380981	
-0.382019	
-0.381348	
-0.380615	
-0.381226	
-0.381287	
-0.38092	
-0.381775	
-0.381592	
-0.381409	
-0.381897	
-0.382019	
-0.381287	
-0.38031	
-0.381287	
-0.38147	
-0.381409	
-0.381409	
-0.381348	
-0.381226	
-0.381226	
-0.381165	
-0.381165	
-0.381104	
-0.381226	
-0.381897	
-0.380981	
-0.381287	
-0.381531	
-0.380371	
-0.380615	
-0.379028	
-0.380859	
-0.380859	
-0.381165	
-0.381104	
-0.381409	
-0.380798	
-0.382141	
-0.380432	
-0.381592	
-0.380859	
-0.382568	
-0.380493	
-0.380249	
-0.3797	
-0.380798	
-0.380798	
-0.380737	
-0.381531	
-0.381104	
-0.381287	
-0.380676	
-0.381897	
-0.381042	
-0.381348	
-0.382019	
-0.382202	
-0.381409	
-0.382385	
-0.381287	
-0.382263	
-0.379822	
-0.381836	
-0.381592	
-0.381836	
-0.381165	
-0.381409	
-0.38208	
-0.381775	
-0.381958	
-0.382141	
-0.38208	
-0.381592	
-0.382141	
-0.38092	
-0.38269	
-0.382629	
-0.382629	
-0.382629	
-0.383179	
-0.382568	
-0.382813	
-0.38208	
-0.38269	
-0.383118	
-0.38269	
-0.383545	
-0.382874	
-0.38324	
-0.383484	
-0.383362	
-0.383484	
-0.384094	
-0.38269	
-0.382568	
-0.38147	
-0.383423	
-0.38269	
-0.382996	
-0.382996	
-0.383423	
-0.382996	
-0.383362	
-0.382813	
-0.38269	
-0.382813	
-0.383362	
-0.384155	
-0.383545	
-0.384155	
-0.384277	
-0.384705	
-0.384521	
-0.385071	
-0.385864	
-0.385742	
-0.384399	
-0.38501	
-0.385986	
-0.385986	
-0.385925	
-0.387207	
-0.386292	
-0.386902	
-0.385681	
-0.387939	
-0.38678	
-0.387695	
-0.388062	
-0.387695	
-0.388062	
-0.388	
-0.387085	
-0.386963	
-0.387146	
-0.387146	
-0.388611	
-0.387329	
-0.389038	
-0.38739	
-0.389771	
-0.387817	
-0.389709	
-0.386902	
-0.387695	
-0.386658	
-0.387451	
-0.385925	
-0.386841	
-0.387756	
-0.387268	
-0.388	
-0.386658	
-0.387329	
-0.384888	
-0.385315	
-0.384644	
-0.386902	
-0.385986	
-0.387268	
-0.385315	
-0.386841	
-0.384094	
-0.384949	
-0.384399	
-0.384583	
-0.384277	
-0.384644	
-0.384399	
-0.383118	
-0.383972	
-0.38324	
-0.385071	
-0.383911	
-0.385071	
-0.384583	
-0.385193	
-0.383118	
-0.385559	
-0.382996	
-0.38446	
-0.383911	
-0.385437	
-0.383667	
-0.385376	
-0.383728	
-0.384277	
-0.384644	
-0.384216	
-0.382996	
-0.383972	
-0.385132	
-0.384644	
-0.384277	
-0.385071	
-0.383789	
-0.38446	
-0.385559	
-0.384827	
-0.383545	
-0.38446	
-0.383728	
-0.385376	
-0.384888	
-0.385315	
-0.384094	
-0.38501	
-0.383972	
-0.384705	
-0.384277	
-0.384827	
-0.383545	
-0.384949	
-0.384766	
-0.385315	
-0.38562	
-0.385803	
-0.386841	
-0.385559	
-0.386658	
-0.384338	
-0.385925	
-0.385315	
-0.38678	
-0.384644	
-0.387085	
-0.384888	
-0.386169	
-0.384766	
-0.385437	
-0.385498	
-0.38623	
-0.384888	
-0.385071	
-0.385498	
-0.386047	
-0.386841	
-0.38739	
-0.388062	
-0.38739	
-0.388428	
-0.387024	
-0.387024	
-0.387695	
-0.386536	
-0.38562	
-0.387512	
-0.388672	
-0.388306	
-0.386353	
-0.387024	
-0.387817	
-0.387573	
-0.38623	
-0.387878	
-0.387695	
-0.387817	
-0.388	
-0.388123	
-0.387939	
-0.389465	
-0.389404	
-0.387756	
-0.387268	
-0.389771	
-0.387146	
-0.387756	
-0.387634	
-0.38855	
-0.387634	
-0.386047	
-0.387573	
-0.387634	
-0.386414	
-0.388062	
-0.387573	
-0.387207	
-0.388306	
-0.387695	
-0.389282	
-0.385803	
-0.388	
-0.384827	
-0.386353	
-0.385498	
-0.387268	
-0.388	
-0.387817	
-0.388428	
-0.387451	
-0.387451	
-0.385742	
-0.386353	
-0.386719	
-0.386963	
-0.385742	
-0.385986	
-0.387573	
-0.387024	
-0.387085	
-0.386902	
-0.38501	
-0.386353	
-0.38623	
-0.386597	
-0.38623	
-0.386292	
-0.386536	
-0.38446	
-0.384766	
-0.384277	
-0.38501	
-0.38501	
-0.385498	
-0.382324	
-0.384949	
-0.383606	
-0.384644	
-0.384094	
-0.38501	
-0.383362	
-0.38324	
-0.382507	
-0.383789	
-0.382446	
-0.382813	
-0.383362	
-0.383301	
-0.383301	
-0.382629	
-0.38446	
-0.38446	
-0.384949	
-0.383423	
-0.384705	
-0.38385	
-0.383911	
-0.384766	
-0.384399	
-0.383667	
-0.385864	
-0.385742	
-0.384766	
-0.383789	
-0.384583	
-0.384766	
-0.385132	
-0.384155	
-0.38446	
-0.385071	
-0.384644	
-0.38623	
-0.38501	
-0.385559	
-0.385864	
-0.387329	
-0.385559	
-0.386475	
-0.386047	
-0.386047	
-0.387329	
-0.387939	
-0.387268	
-0.387207	
-0.385986	
-0.386292	
-0.387756	
-0.387573	
-0.38678	
-0.385925	
-0.386414	
-0.386169	
-0.387695	
-0.386475	
-0.386841	
-0.386414	
-0.38739	
-0.386963	
-0.387329	
-0.387146	
-0.386597	
-0.38678	
-0.38855	
-0.388367	
-0.387695	
-0.386963	
-0.388489	
-0.388245	
-0.386841	
-0.387329	
-0.386658	
-0.387939	
-0.387329	
-0.388062	
-0.387817	
-0.386658	
-0.387695	
-0.388	
-0.387085	
-0.387573	
-0.386475	
-0.387451	
-0.385071	
-0.387512	
-0.386597	
-0.388611	
-0.385803	
-0.38623	
-0.385193	
-0.387207	
-0.387085	
-0.38501	
-0.385742	
-0.38562	
-0.386108	
-0.386658	
-0.385803	
-0.385681	
-0.386597	
-0.386597	
-0.388184	
-0.385681	
-0.386597	
-0.385559	
-0.387024	
-0.386841	
-0.388306	
-0.386108	
-0.385681	
-0.386414	
-0.386719	
-0.386841	
-0.386597	
-0.386902	
-0.386536	
-0.385986	
-0.385742	
-0.387329	
-0.386108	
-0.385498	
-0.38501	
-0.386475	
-0.385254	
-0.384338	
-0.384644	
-0.385559	
-0.38446	
-0.38385	
-0.383118	
-0.384033	
-0.383484	
-0.383179	
-0.383484	
-0.383118	
-0.382202	
-0.382324	
-0.382324	
-0.382385	
-0.383362	
-0.381592	
-0.381104	
-0.38208	
-0.382507	
-0.382629	
-0.38208	
-0.381653	
-0.382996	
-0.383728	
-0.383606	
-0.382568	
-0.38385	
-0.382996	
-0.382935	
-0.383484	
-0.383057	
-0.383179	
-0.38324	
-0.383972	
-0.384338	
-0.384644	
-0.383484	
-0.383118	
-0.383789	
-0.384766	
-0.385498	
-0.384827	
-0.384338	
-0.385925	
-0.384888	
-0.384766	
-0.384644	
-0.384888	
-0.385132	
-0.385925	
-0.385681	
-0.385986	
-0.385193	
-0.386353	
-0.38678	
-0.388	
-0.388733	
-0.387207	
-0.388428	
-0.387573	
-0.387756	
-0.388367	
-0.387451	
-0.387146	
-0.388245	
-0.388062	
-0.387512	
-0.38739	
-0.386902	
-0.387024	
-0.387207	
-0.387573	
-0.387573	
-0.385803	
-0.387024	
-0.386414	
-0.387573	
-0.387451	
-0.385681	
-0.386597	
-0.386658	
-0.387146	
-0.387024	
-0.386597	
-0.38678	
-0.386902	
-0.387146	
-0.387268	
-0.386902	
-0.386902	
-0.386108	
-0.387573	
-0.387146	
-0.387451	
-0.386292	
-0.38678	
-0.386292	
-0.387146	
-0.387329	
-0.385742	
-0.386292	
-0.386108	
-0.386475	
-0.386414	
-0.386108	
-0.384705	
-0.385498	
-0.386108	
-0.385925	
-0.385681	
-0.385132	
-0.385498	
-0.385742	
-0.385315	
-0.38623	
-0.385193	
-0.385315	
-0.385071	
-0.386658	
-0.385864	
-0.384888	
-0.384644	
-0.384521	
-0.38501	
-0.384827	
-0.384338	
-0.384705	
-0.384644	
-0.384949	
-0.384644	
-0.383728	
-0.382751	
-0.38385	
-0.384338	
-0.384827	
-0.384094	
-0.384277	
-0.382996	
-0.383972	
-0.384705	
-0.38446	
-0.384216	
-0.383179	
-0.383728	
-0.383667	
-0.383667	
-0.384094	
-0.383179	
-0.383179	
-0.383118	
-0.383728	
-0.38324	
-0.382507	
-0.382324	
-0.382019	
-0.384033	
-0.383423	
-0.38324	
-0.383179	
-0.383423	
-0.384521	
-0.384094	
-0.383606	
-0.382141	
-0.383606	
-0.384094	
-0.384216	
-0.38501	
-0.383728	
-0.382874	
-0.384094	
-0.38446	
-0.384277	
-0.383972	
-0.383118	
-0.384155	
-0.384949	
-0.384766	
-0.384949	
-0.384949	
-0.384827	
-0.385132	
-0.385681	
-0.384766	
-0.38446	
-0.384155	
-0.384827	
-0.385681	
-0.385132	
-0.384888	
-0.384338	
-0.385437	
-0.386719	
-0.386353	
-0.38623	
-0.384705	
-0.385437	
-0.386597	
-0.386597	
-0.387451	
-0.386475	
-0.38678	
-0.386658	
-0.387939	
-0.387085	
-0.38678	
-0.387329	
-0.386902	
-0.387573	
-0.386719	
-0.386536	
-0.386658	
-0.386841	
-0.388367	
-0.387085	
-0.386719	
-0.385193	
-0.385681	
-0.386719	
-0.387329	
-0.387085	
-0.386597	
-0.385315	
-0.38623	
-0.386658	
-0.386597	
-0.385864	
-0.385864	
-0.385986	
-0.386719	
-0.386169	
-0.38678	
-0.385925	
-0.385986	
-0.38678	
-0.386536	
-0.385498	
-0.384949	
-0.38446	
-0.386108	
-0.386108	
-0.386047	
-0.385437	
-0.384155	
-0.38562	
-0.385742	
-0.385132	
-0.384949	
-0.383789	
-0.38501	
-0.384399	
-0.384399	
-0.384705	
-0.38385	
-0.384277	
-0.384521	
-0.38501	
-0.383545	
-0.383118	
-0.382751	
-0.38385	
-0.384216	
-0.383728	
-0.384705	
-0.38324	
-0.383728	
-0.383362	
-0.383606	
-0.383362	
-0.382507	
-0.383484	
-0.383057	
-0.383972	
-0.384094	
-0.383606	
-0.383606	
-0.384644	
-0.384705	
-0.383789	
-0.38324	
-0.382202	
-0.383728	
-0.384521	
-0.383972	
-0.384583	
-0.382813	
-0.38385	
-0.384094	
-0.383484	
-0.383423	
-0.383057	
-0.383911	
-0.38385	
-0.38385	
-0.383972	
-0.384033	
-0.384277	
-0.384888	
-0.385315	
-0.38446	
-0.383972	
-0.383484	
-0.384705	
-0.385315	
-0.384705	
-0.385315	
-0.384094	
-0.384705	
-0.385376	
-0.385559	
-0.384521	
-0.383667	
-0.383728	
-0.384888	
-0.384705	
-0.384888	
-0.385498	
-0.384216	
-0.384766	
-0.384338	
-0.384521	
-0.384033	
-0.382751	
-0.38385	
-0.384949	
-0.38446	
-0.384216	
-0.384155	
-0.384338	
-0.385803	
-0.385437	
-0.384888	
-0.384521	
-0.38501	
-0.385864	
-0.387085	
-0.38623	
-0.387085	
-0.385193	
-0.386963	
-0.387451	
-0.386536	
-0.386841	
-0.38562	
-0.386963	
-0.387329	
-0.387512	
-0.387817	
-0.387268	
-0.387451	
-0.388123	
-0.388245	
-0.38739	
-0.386414	
-0.386536	
-0.387451	
-0.387817	
-0.387024	
-0.38739	
-0.386719	
-0.386658	
-0.387878	
-0.38678	
-0.38623	
-0.384583	
-0.385559	
-0.386597	
-0.386047	
-0.386108	
-0.386047	
-0.384644	
-0.385925	
-0.385559	
-0.385681	
-0.385376	
-0.384949	
-0.385071	
-0.385315	
-0.384888	
-0.385193	
-0.384644	
-0.384583	
-0.386047	
-0.385132	
-0.383972	
-0.383057	
-0.382568	
-0.383301	
-0.383911	
-0.383179	
-0.383118	
-0.382385	
-0.382935	
-0.381836	
-0.382446	
-0.382324	
-0.381104	
-0.382141	
-0.382446	
-0.382751	
-0.382751	
-0.382324	
-0.381653	
-0.383057	
-0.382996	
-0.382202	
-0.381653	
-0.382202	
-0.382446	
-0.382935	
-0.382568	
-0.382935	
-0.382263	
-0.382019	
-0.382813	
-0.38269	
-0.382263	
-0.380615	
-0.381226	
-0.382751	
-0.383179	
-0.382507	
-0.382324	
-0.381958	
-0.382813	
-0.38269	
-0.382446	
-0.381775	
-0.382141	
-0.382935	
-0.382996	
-0.383301	
-0.383362	
-0.382751	
-0.382874	
-0.383484	
-0.383972	
-0.382751	
-0.382324	
-0.383057	
-0.383484	
-0.384094	
-0.38385	
-0.384277	
-0.383301	
-0.384216	
-0.384705	
-0.384033	
-0.383545	
-0.38269	
-0.384155	
-0.383911	
-0.384399	
-0.384766	
-0.384277	
-0.383911	
-0.384277	
-0.385071	
-0.384521	
-0.383423	
-0.384888	
-0.384888	
-0.385254	
-0.384583	
-0.385559	
-0.384521	
-0.38501	
-0.386169	
-0.386108	
-0.385193	
-0.384827	
-0.384705	
-0.384399	
-0.385925	
-0.385742	
-0.385132	
-0.384644	
-0.386169	
-0.385376	
-0.385132	
-0.384827	
-0.384705	
-0.384705	
-0.385559	
-0.385742	
-0.386475	
-0.385498	
-0.38562	
-0.385132	
-0.386414	
-0.384949	
-0.384705	
-0.384888	
-0.385254	
-0.385071	
-0.385254	
-0.384888	
-0.384644	
-0.385193	
-0.385193	
-0.384766	
-0.38446	
-0.383545	
-0.383789	
-0.384338	
-0.385315	
-0.384766	
-0.383972	
-0.383606	
-0.384827	
-0.384094	
-0.383484	
-0.383362	
-0.383667	
-0.383545	
-0.384094	
-0.383972	
-0.384705	
-0.383423	
-0.383179	
-0.383789	
-0.384949	
-0.383667	
-0.382874	
-0.382568	
-0.382874	
-0.383179	
-0.383057	
-0.382141	
-0.382568	
-0.383545	
-0.38269	
-0.381653	
-0.381287	
-0.38031	
-0.381226	
-0.381592	
-0.382141	
-0.381836	
-0.380859	
-0.380615	
-0.381348	
-0.381775	
-0.381165	
-0.38092	
-0.381348	
-0.381958	
-0.381531	
-0.381592	
-0.381531	
-0.381287	
-0.381775	
-0.381958	
-0.381958	
-0.381653	
-0.381287	
-0.381104	
-0.381958	
-0.382263	
-0.382813	
-0.38269	
-0.381897	
-0.382324	
-0.382996	
-0.381836	
-0.381287	
-0.380493	
-0.382141	
-0.382263	
-0.383362	
-0.382751	
-0.382263	
-0.381836	
-0.381348	
-0.383423	
-0.382996	
-0.382324	
-0.382019	
-0.382996	
-0.382935	
-0.383423	
-0.383423	
-0.383118	
-0.38446	
-0.385071	
-0.383789	
-0.383423	
-0.383728	
-0.384399	
-0.384338	
-0.384949	
-0.385071	
-0.384216	
-0.384216	
-0.383911	
-0.385437	
-0.384338	
-0.383484	
-0.382813	
-0.384705	
-0.385071	
-0.385925	
-0.384583	
-0.384521	
-0.383606	
-0.384827	
-0.384094	
-0.383972	
-0.384338	
-0.384094	
-0.38501	
-0.384827	
-0.384949	
-0.384338	
-0.383728	
-0.384827	
-0.385803	
-0.384827	
-0.38385	
-0.383301	
-0.384521	
-0.384216	
-0.384949	
-0.384216	
-0.384277	
-0.383789	
-0.383789	
-0.383972	
-0.383484	
-0.382202	
-0.382568	
-0.383179	
-0.383789	
-0.383972	
-0.383057	
-0.382751	
-0.38269	
-0.383911	
-0.383362	
-0.38324	
-0.382385	
-0.383301	
-0.383179	
-0.383179	
-0.384155	
-0.38324	
-0.382751	
-0.384094	
-0.383789	
-0.383362	
-0.382813	
-0.382019	
-0.383362	
-0.383911	
-0.384521	
-0.38385	
-0.38385	
-0.382751	
-0.383423	
-0.383545	
-0.383118	
-0.382996	
-0.383057	
-0.38324	
-0.383667	
-0.383057	
-0.382263	
-0.381958	
-0.381836	
-0.382935	
-0.381165	
-0.380615	
-0.379761	
-0.381042	
-0.380676	
-0.381287	
-0.381409	
-0.38031	
-0.380005	
-0.380249	
-0.380371	
-0.379883	
-0.378662	
-0.378967	
-0.379639	
-0.380493	
-0.380981	
-0.380371	
-0.380066	
-0.379517	
-0.381775	
-0.380859	
-0.38031	
-0.3797	
-0.381104	
-0.380798	
-0.381165	
-0.381653	
-0.380798	
-0.38147	
-0.382324	
-0.382202	
-0.380981	
-0.380432	
-0.38092	
-0.381531	
-0.381897	
-0.382751	
-0.382202	
-0.381958	
-0.381958	
-0.382446	
-0.382141	
-0.382019	
-0.381897	
-0.382629	
-0.383179	
-0.38324	
-0.383972	
-0.383911	
-0.384338	
-0.384399	
-0.385803	
-0.384888	
-0.384399	
-0.384277	
-0.384949	
-0.385071	
-0.385803	
-0.385803	
-0.38501	
-0.384949	
-0.385559	
-0.385193	
-0.384766	
-0.384521	
-0.384338	
-0.38446	
-0.384949	
-0.386169	
-0.384583	
-0.384399	
-0.38501	
-0.384827	
-0.384888	
-0.384338	
-0.383362	
-0.384827	
-0.384705	
-0.38501	
-0.384949	
-0.384888	
-0.385376	
-0.385742	
-0.385376	
-0.384216	
-0.383362	
-0.383911	
-0.384949	
-0.384888	
-0.385132	
-0.385193	
-0.384155	
-0.384338	
-0.385132	
-0.384033	
-0.384094	
-0.383972	
-0.384277	
-0.383545	
-0.383667	
-0.384949	
-0.384155	
-0.383911	
-0.383667	
-0.383728	
-0.383606	
-0.383179	
-0.38208	
-0.383667	
-0.383789	
-0.383362	
-0.383606	
-0.383118	
-0.383301	
-0.383667	
-0.383362	
-0.382751	
-0.382446	
-0.382568	
-0.38269	
-0.382507	
-0.382935	
-0.383057	
-0.38269	
-0.382813	
-0.383118	
-0.382141	
-0.381775	
-0.380737	
-0.382446	
-0.382141	
-0.382202	
-0.382996	
-0.382751	
-0.381836	
-0.381409	
-0.380981	
-0.381531	
-0.380066	
-0.381531	
-0.381958	
-0.381653	
-0.381714	
-0.38208	
-0.381714	
-0.381531	
-0.382446	
-0.38147	
-0.381104	
-0.380188	
-0.381042	
-0.381531	
-0.381775	
-0.382507	
-0.382507	
-0.38147	
-0.382263	
-0.382324	
-0.381775	
-0.38147	
-0.380554	
-0.381897	
-0.381958	
-0.381958	
-0.382141	
-0.382751	
-0.382385	
-0.383057	
-0.381287	
-0.382202	
-0.381409	
-0.382935	
-0.382874	
-0.38269	
-0.383423	
-0.383118	
-0.383179	
-0.383118	
-0.384033	
-0.383362	
-0.382629	
-0.381287	
-0.382568	
-0.383118	
-0.383667	
-0.384094	
-0.384705	
-0.383789	
-0.38385	
-0.383972	
-0.38385	
-0.383911	
-0.383118	
-0.384705	
-0.384644	
-0.38501	
-0.385254	
-0.385315	
-0.385315	
-0.386841	
-0.384094	
-0.385132	
-0.383423	
-0.385315	
-0.384888	
-0.385254	
-0.38562	
-0.385254	
-0.384888	
-0.385254	
-0.386169	
-0.384949	
-0.385193	
-0.383545	
-0.384644	
-0.384644	
-0.384521	
-0.38623	
-0.385681	
-0.384949	
-0.385742	
-0.384521	
-0.384766	
-0.384155	
-0.383911	
-0.384094	
-0.38446	
-0.38446	
-0.38446	
-0.384705	
-0.384521	
-0.384521	
-0.382813	
-0.383606	
-0.381958	
-0.384094	
-0.383911	
-0.383667	
-0.383911	
-0.383789	
-0.383423	
-0.38385	
-0.383911	
-0.383545	
-0.382935	
-0.382751	
-0.38324	
-0.382996	
-0.382874	
-0.383545	
-0.382751	
-0.382202	
-0.383606	
-0.382507	
-0.382202	
-0.381409	
	
