C:\DOCUMENTS AND SETTINGS\JASON\DESKTOP\UFRJ\UFRJ EPHYS\RSCI-BM 12 WK SERIES\070806-RSCI-BM-16\RSCI-BM-16-LEMG\070806-RSCI-BM-16-LEMG-0005.ACQ
0.025000 msec/sample
1 channel
Analog input
Volts
CH1	
2000	
-0.383972	
-0.383362	
-0.384033	
-0.384705	
-0.385681	
-0.384399	
-0.384766	
-0.384155	
-0.386597	
-0.384888	
-0.384277	
-0.382751	
-0.384644	
-0.384949	
-0.384949	
-0.384827	
-0.384888	
-0.384827	
-0.38562	
-0.384766	
-0.384644	
-0.383606	
-0.384521	
-0.38446	
-0.384399	
-0.384338	
-0.384033	
-0.383972	
-0.383972	
-0.385437	
-0.384399	
-0.38269	
-0.381653	
-0.381104	
-0.382324	
-0.382996	
-0.381836	
-0.381775	
-0.380798	
-0.383362	
-0.382202	
-0.381104	
-0.380188	
-0.38147	
-0.381897	
-0.381958	
-0.381409	
-0.381897	
-0.381592	
-0.382568	
-0.382202	
-0.381775	
-0.381165	
-0.381714	
-0.382324	
-0.382507	
-0.382507	
-0.382446	
-0.382446	
-0.382935	
-0.383667	
-0.383911	
-0.382568	
-0.382019	
-0.382324	
-0.383423	
-0.384399	
-0.383423	
-0.383911	
-0.383057	
-0.385193	
-0.384644	
-0.384399	
-0.382813	
-0.384521	
-0.385986	
-0.386169	
-0.386353	
-0.386475	
-0.386536	
-0.388184	
-0.387146	
-0.387207	
-0.38678	
-0.387329	
-0.387756	
-0.387817	
-0.38855	
-0.388367	
-0.387878	
-0.388	
-0.389221	
-0.388794	
-0.387512	
-0.387634	
-0.386475	
-0.387634	
-0.388611	
-0.387329	
-0.386658	
-0.386536	
-0.388123	
-0.38739	
-0.386475	
-0.38562	
-0.386169	
-0.386475	
-0.386963	
-0.386719	
-0.386719	
-0.386047	
-0.388367	
-0.387451	
-0.386169	
-0.384766	
-0.385498	
-0.387024	
-0.386475	
-0.386169	
-0.386169	
-0.385803	
-0.386475	
-0.386841	
-0.386902	
-0.384827	
-0.385193	
-0.384216	
-0.385071	
-0.38623	
-0.384338	
-0.384216	
-0.383911	
-0.385437	
-0.384644	
-0.383728	
-0.382813	
-0.383545	
-0.383972	
-0.384155	
-0.383667	
-0.384216	
-0.38385	
-0.384949	
-0.38446	
-0.383972	
-0.383057	
-0.383728	
-0.38446	
-0.384338	
-0.384949	
-0.384155	
-0.384155	
-0.384216	
-0.385498	
-0.384888	
-0.383423	
-0.383545	
-0.384216	
-0.384583	
-0.38501	
-0.384399	
-0.384644	
-0.384888	
-0.385193	
-0.385559	
-0.384583	
-0.384033	
-0.383545	
-0.384521	
-0.384644	
-0.384399	
-0.384338	
-0.384644	
-0.385864	
-0.385559	
-0.383972	
-0.383728	
-0.383423	
-0.384827	
-0.384399	
-0.385315	
-0.384521	
-0.384521	
-0.384033	
-0.384888	
-0.38446	
-0.383606	
-0.383423	
-0.384033	
-0.383911	
-0.384949	
-0.384155	
-0.383972	
-0.383728	
-0.384888	
-0.384521	
-0.383362	
-0.362915	
-0.361023	
-0.364685	
-0.365234	
-0.364868	
-0.365479	
-0.389709	
-0.388184	
-0.385986	
-0.383789	
-0.383423	
-0.38324	
-0.384094	
-0.384338	
-0.384644	
-0.383972	
-0.360657	
-0.363464	
-0.366028	
-0.36615	
-0.365479	
-0.365234	
-0.393005	
-0.388733	
-0.387573	
-0.386841	
-0.386536	
-0.387024	
-0.387695	
-0.38739	
-0.386047	
-0.386108	
-0.387817	
-0.387573	
-0.388123	
-0.387634	
-0.387756	
-0.387634	
-0.388611	
-0.387573	
-0.387024	
-0.386902	
-0.387085	
-0.38678	
-0.38623	
-0.386719	
-0.386719	
-0.386292	
-0.387573	
-0.387817	
-0.387756	
-0.387146	
-0.388367	
-0.391296	
-0.393738	
-0.397034	
-0.39917	
-0.402649	
-0.40686	
-0.411377	
-0.413452	
-0.414978	
-0.419434	
-0.425293	
-0.429504	
-0.435669	
-0.440674	
-0.446045	
-0.452148	
-0.455444	
-0.458313	
-0.458984	
-0.461975	
-0.463013	
-0.46344	
-0.464722	
-0.463745	
-0.46405	
-0.464478	
-0.464539	
-0.463379	
-0.461426	
-0.461914	
-0.46106	
-0.460449	
-0.459534	
-0.458252	
-0.457031	
-0.456726	
-0.456543	
-0.454285	
-0.452942	
-0.453186	
-0.454163	
-0.454407	
-0.454102	
-0.453918	
-0.454407	
-0.455261	
-0.456665	
-0.456055	
-0.456726	
-0.457703	
-0.460938	
-0.462341	
-0.46344	
-0.464355	
-0.464783	
-0.465881	
-0.467224	
-0.466675	
-0.466492	
-0.466858	
-0.468811	
-0.469482	
-0.470459	
-0.470947	
-0.471008	
-0.471436	
-0.471741	
-0.470947	
-0.470825	
-0.469482	
-0.470459	
-0.470337	
-0.470581	
-0.470642	
-0.470337	
-0.470581	
-0.470703	
-0.471069	
-0.469849	
-0.468201	
-0.467041	
-0.466248	
-0.463562	
-0.461548	
-0.45813	
-0.453979	
-0.45105	
-0.447876	
-0.442261	
-0.43689	
-0.430786	
-0.427673	
-0.42218	
-0.416016	
-0.409485	
-0.40271	
-0.396729	
-0.390503	
-0.38208	
-0.373962	
-0.364685	
-0.357361	
-0.347595	
-0.33844	
-0.328491	
-0.317993	
-0.308167	
-0.297913	
-0.288757	
-0.278259	
-0.268005	
-0.258972	
-0.254395	
-0.249634	
-0.244873	
-0.241272	
-0.239014	
-0.238708	
-0.239258	
-0.237305	
-0.237	
-0.236633	
-0.240417	
-0.241943	
-0.2453	
-0.247314	
-0.250061	
-0.254456	
-0.257813	
-0.261047	
-0.264587	
-0.270142	
-0.275085	
-0.279297	
-0.284973	
-0.288574	
-0.292725	
-0.297791	
-0.301331	
-0.304993	
-0.307739	
-0.312073	
-0.315308	
-0.317627	
-0.320129	
-0.32251	
-0.325378	
-0.328552	
-0.32959	
-0.331421	
-0.333496	
-0.336304	
-0.337646	
-0.339478	
-0.340088	
-0.342285	
-0.343994	
-0.345215	
-0.345093	
-0.344666	
-0.344055	
-0.346802	
-0.347351	
-0.348389	
-0.34845	
-0.349304	
-0.350708	
-0.350891	
-0.350708	
-0.34967	
-0.350342	
-0.351929	
-0.352356	
-0.353027	
-0.35321	
-0.354492	
-0.354614	
-0.355652	
-0.354553	
-0.354065	
-0.35614	
-0.356812	
-0.357178	
-0.357971	
-0.357788	
-0.358826	
-0.359192	
-0.358948	
-0.357971	
-0.357727	
-0.359192	
-0.359802	
-0.359985	
-0.360718	
-0.360596	
-0.361389	
-0.361572	
-0.36145	
-0.359863	
-0.359863	
-0.360962	
-0.361511	
-0.361389	
-0.36261	
-0.361938	
-0.362488	
-0.362976	
-0.36261	
-0.36145	
-0.361206	
-0.363159	
-0.363647	
-0.363708	
-0.364258	
-0.364075	
-0.364807	
-0.363953	
-0.36377	
-0.363098	
-0.363037	
-0.36377	
-0.364075	
-0.363953	
-0.365112	
-0.363525	
-0.364807	
-0.363098	
-0.36438	
-0.363098	
-0.363525	
-0.363403	
-0.364502	
-0.364807	
-0.36554	
-0.364929	
-0.365967	
-0.36554	
-0.366394	
-0.365112	
-0.365723	
-0.365784	
-0.366333	
-0.366272	
-0.366211	
-0.36676	
-0.367493	
-0.367554	
-0.366821	
-0.367004	
-0.36676	
-0.367676	
-0.367615	
-0.368347	
-0.367493	
-0.368103	
-0.367126	
-0.3703	
-0.368225	
-0.368164	
-0.366638	
-0.36908	
-0.369202	
-0.369202	
-0.369324	
-0.36969	
-0.369873	
-0.371338	
-0.369751	
-0.370483	
-0.369446	
-0.370605	
-0.371216	
-0.370911	
-0.371277	
-0.37207	
-0.371887	
-0.372803	
-0.371216	
-0.372314	
-0.371277	
-0.372986	
-0.372925	
-0.372925	
-0.373291	
-0.373596	
-0.373657	
-0.373901	
-0.37207	
-0.372986	
-0.372437	
-0.373413	
-0.373535	
-0.373718	
-0.37323	
-0.374084	
-0.374329	
-0.374512	
-0.37262	
-0.373047	
-0.372253	
-0.373291	
-0.373413	
-0.373291	
-0.373108	
-0.37323	
-0.372681	
-0.372986	
-0.371216	
-0.371399	
-0.371521	
-0.371765	
-0.372375	
-0.371887	
-0.372131	
-0.372803	
-0.372437	
-0.372864	
-0.372498	
-0.372314	
-0.372192	
-0.371826	
-0.372864	
-0.373779	
-0.37323	
-0.373718	
-0.372375	
-0.374146	
-0.373779	
-0.373291	
-0.373291	
-0.373169	
-0.374268	
-0.375183	
-0.374939	
-0.375427	
-0.374817	
-0.375305	
-0.37561	
-0.375	
-0.375	
-0.375305	
-0.375732	
-0.376221	
-0.376099	
-0.376587	
-0.376282	
-0.376892	
-0.377808	
-0.377625	
-0.377869	
-0.377563	
-0.378601	
-0.37915	
-0.378906	
-0.379211	
-0.379517	
-0.379333	
-0.380188	
-0.379456	
-0.3797	
-0.37915	
-0.379822	
-0.380188	
-0.379944	
-0.380676	
-0.380737	
-0.38031	
-0.380127	
-0.378906	
-0.379639	
-0.378113	
-0.379639	
-0.379822	
-0.379272	
-0.380859	
-0.379761	
-0.379395	
-0.379272	
-0.37915	
-0.37915	
-0.378662	
-0.379761	
-0.380005	
-0.379761	
-0.380188	
-0.379883	
-0.380066	
-0.380188	
-0.37915	
-0.3797	
-0.379272	
-0.379578	
-0.379456	
-0.3797	
-0.379761	
-0.380371	
-0.379517	
-0.379517	
-0.378906	
-0.379211	
-0.379333	
-0.379456	
-0.380493	
-0.379944	
-0.379578	
-0.380188	
-0.379822	
-0.38031	
-0.378906	
-0.3797	
-0.380127	
-0.379883	
-0.380737	
-0.380798	
-0.381226	
-0.381775	
-0.381287	
-0.381531	
-0.380493	
-0.380798	
-0.381104	
-0.381592	
-0.38147	
-0.381897	
-0.381775	
-0.38208	
-0.381836	
-0.382385	
-0.38092	
-0.381775	
-0.380554	
-0.38208	
-0.381836	
-0.382385	
-0.381897	
-0.382568	
-0.381226	
-0.382813	
-0.381409	
-0.381348	
-0.379211	
-0.38147	
-0.381958	
-0.382507	
-0.381348	
-0.38147	
-0.380493	
-0.382263	
-0.380432	
-0.379944	
-0.378296	
-0.380249	
-0.3797	
-0.380127	
-0.379456	
-0.379883	
-0.377869	
-0.380615	
-0.379272	
-0.379089	
-0.37854	
-0.379517	
-0.379578	
-0.380554	
-0.379517	
-0.379517	
-0.378479	
-0.380798	
-0.380005	
-0.380066	
-0.378967	
-0.380127	
-0.380798	
-0.380676	
-0.38031	
-0.38092	
-0.380432	
-0.381531	
-0.380737	
-0.38092	
-0.380859	
-0.381348	
-0.381592	
-0.382324	
-0.381897	
-0.38208	
-0.382141	
-0.382813	
-0.382263	
-0.382751	
-0.382446	
-0.383606	
-0.384033	
-0.384583	
-0.384399	
-0.384705	
-0.385071	
-0.385132	
-0.385254	
-0.384949	
-0.385193	
-0.38623	
-0.386169	
-0.386414	
-0.38623	
-0.386902	
-0.386536	
-0.386414	
-0.386292	
-0.385498	
-0.386292	
-0.386292	
-0.385986	
-0.386108	
-0.386169	
-0.385742	
-0.385254	
-0.385193	
-0.385437	
-0.38501	
-0.38501	
-0.384033	
-0.384827	
-0.385315	
-0.385925	
-0.385071	
-0.385864	
-0.38446	
-0.385742	
-0.384033	
-0.384644	
-0.38385	
-0.384888	
-0.384949	
-0.38562	
-0.384888	
-0.385315	
-0.384399	
-0.385071	
-0.383728	
-0.384033	
-0.38324	
-0.383972	
-0.38385	
-0.383911	
-0.383423	
-0.383911	
-0.382568	
-0.383789	
-0.382507	
-0.382507	
-0.38269	
-0.382507	
-0.382446	
-0.383728	
-0.382507	
-0.383118	
-0.381653	
-0.383789	
-0.382507	
-0.382324	
-0.38147	
-0.382751	
-0.38324	
-0.383911	
-0.383789	
-0.383362	
-0.38208	
-0.383423	
-0.383362	
-0.383057	
-0.38208	
-0.38269	
-0.383484	
-0.384155	
-0.384338	
-0.383301	
-0.382629	
-0.383362	
-0.38385	
-0.383118	
-0.382324	
-0.382996	
-0.383606	
-0.384155	
-0.383423	
-0.383423	
-0.383911	
-0.383484	
-0.383789	
-0.382935	
-0.382874	
-0.382996	
-0.38324	
-0.38324	
-0.383179	
-0.383118	
-0.383972	
-0.383484	
-0.383545	
-0.381531	
-0.382874	
-0.382813	
-0.383179	
-0.383423	
-0.38324	
-0.383667	
-0.383728	
-0.383057	
-0.382568	
-0.38147	
-0.382568	
-0.382263	
-0.382446	
-0.382446	
-0.38269	
-0.383545	
-0.382874	
-0.382141	
-0.381226	
-0.382385	
-0.38208	
-0.382507	
-0.381958	
-0.382446	
-0.383118	
-0.383179	
-0.383362	
-0.38269	
-0.382324	
-0.383545	
-0.382751	
-0.383057	
-0.382385	
-0.383606	
-0.384766	
-0.384949	
-0.38501	
-0.383362	
-0.384705	
-0.385437	
-0.384949	
-0.384888	
-0.385315	
-0.385864	
-0.386719	
-0.386353	
-0.385986	
-0.38562	
-0.386841	
-0.38562	
-0.385254	
-0.384521	
-0.385193	
-0.385437	
-0.385437	
-0.38562	
-0.385437	
-0.385132	
-0.385437	
-0.385254	
-0.384521	
-0.384338	
-0.385071	
-0.385071	
-0.384705	
-0.384888	
-0.384705	
-0.385437	
-0.385071	
-0.384827	
-0.383667	
-0.384155	
-0.384155	
-0.384521	
-0.384521	
-0.384338	
-0.384705	
-0.384521	
-0.383972	
-0.382996	
-0.38385	
-0.383057	
-0.382935	
-0.381226	
-0.382263	
-0.382507	
-0.383057	
-0.382019	
-0.381836	
-0.381348	
-0.381775	
-0.381409	
-0.381226	
-0.381165	
-0.381592	
-0.382019	
-0.381897	
-0.381836	
-0.381897	
-0.382446	
-0.381897	
-0.381104	
-0.381165	
-0.382446	
-0.382324	
-0.383179	
-0.383057	
-0.382507	
-0.382446	
-0.383057	
-0.382813	
-0.382263	
-0.382324	
-0.382813	
-0.382813	
-0.383667	
-0.382996	
-0.382874	
-0.382263	
-0.382446	
-0.383179	
-0.382935	
-0.382874	
-0.382813	
-0.382568	
-0.383728	
-0.383118	
-0.383972	
-0.383362	
-0.384094	
-0.383057	
-0.384521	
-0.383484	
-0.383362	
-0.382813	
-0.383789	
-0.383667	
-0.384521	
-0.38324	
-0.384644	
-0.382813	
-0.384338	
-0.382568	
-0.383667	
-0.383789	
-0.383728	
-0.383118	
-0.383789	
-0.382813	
-0.383667	
-0.383179	
-0.383179	
-0.382263	
-0.382446	
-0.382813	
-0.383118	
-0.383057	
-0.38269	
-0.383057	
-0.382568	
-0.382996	
-0.38269	
-0.382629	
-0.382019	
-0.382568	
-0.382751	
-0.383484	
-0.382813	
-0.382813	
-0.381409	
-0.38385	
-0.383179	
-0.383545	
-0.381836	
-0.383301	
-0.383606	
-0.384155	
-0.383667	
-0.384155	
-0.382996	
-0.386292	
-0.383789	
-0.38562	
-0.383545	
-0.385498	
-0.384338	
-0.385742	
-0.385986	
-0.386658	
-0.385681	
-0.386597	
-0.385315	
-0.386841	
-0.385376	
-0.385925	
-0.385193	
-0.386108	
-0.386169	
-0.386108	
-0.385498	
-0.385925	
-0.385254	
-0.385925	
-0.38501	
-0.385498	
-0.384827	
-0.385315	
-0.385254	
-0.385254	
-0.384338	
-0.38446	
-0.384949	
-0.383911	
-0.384338	
-0.382935	
-0.383667	
-0.383911	
-0.384277	
-0.384094	
-0.384033	
-0.382324	
-0.384766	
-0.382935	
-0.382996	
-0.380127	
-0.381775	
-0.381226	
-0.381958	
-0.380798	
-0.38147	
-0.379822	
-0.381042	
-0.378784	
-0.380554	
-0.379517	
-0.379639	
-0.378357	
-0.380066	
-0.379761	
-0.379639	
-0.37915	
-0.380005	
-0.379456	
-0.380432	
-0.379456	
-0.379883	
-0.380249	
-0.380798	
-0.380188	
-0.380676	
-0.380005	
-0.380859	
-0.381409	
-0.380981	
-0.380554	
-0.379578	
-0.380432	
-0.381042	
-0.381042	
-0.381104	
-0.380615	
-0.381531	
-0.382141	
-0.381348	
-0.38092	
-0.380371	
-0.380737	
-0.381409	
-0.381714	
-0.381409	
-0.38147	
-0.381714	
-0.382813	
-0.381836	
-0.382629	
-0.381287	
-0.382568	
-0.382446	
-0.383484	
-0.383118	
-0.384155	
-0.382996	
-0.384033	
-0.382874	
-0.384338	
-0.383179	
-0.383911	
-0.383179	
-0.384766	
-0.38385	
-0.384277	
-0.382141	
-0.383728	
-0.383667	
-0.384216	
-0.382874	
-0.382874	
-0.382813	
-0.383728	
-0.383301	
-0.383545	
-0.382385	
-0.383179	
-0.383423	
-0.383362	
-0.382751	
-0.381836	
-0.383057	
-0.383362	
-0.383179	
-0.38324	
-0.382507	
-0.383057	
-0.38385	
-0.382874	
-0.38269	
-0.381531	
-0.382935	
-0.383301	
-0.383118	
-0.382385	
-0.383118	
-0.383057	
-0.38385	
-0.382751	
-0.383545	
-0.382935	
-0.382751	
-0.382019	
-0.383301	
-0.383545	
-0.383789	
-0.383301	
-0.383789	
-0.382935	
-0.383972	
-0.383484	
-0.382996	
-0.382874	
-0.383667	
-0.383545	
-0.383606	
-0.383179	
-0.384033	
-0.384827	
-0.384521	
-0.383423	
-0.382568	
-0.383606	
-0.38501	
-0.383789	
-0.383972	
-0.383179	
-0.384277	
-0.385376	
-0.384094	
-0.383667	
-0.38147	
-0.383484	
-0.384399	
-0.383545	
-0.383606	
-0.383606	
-0.38324	
-0.383972	
-0.382263	
-0.382874	
-0.38147	
-0.381592	
-0.38208	
-0.381653	
-0.381531	
-0.381653	
-0.38092	
-0.380981	
-0.3797	
-0.381348	
-0.379822	
-0.380432	
-0.379211	
-0.379822	
-0.380188	
-0.380371	
-0.380432	
-0.380493	
-0.381226	
-0.381348	
-0.380249	
-0.380127	
-0.380554	
-0.380981	
-0.380737	
-0.380737	
-0.381226	
-0.380798	
-0.382446	
-0.38147	
-0.380981	
-0.37915	
-0.381042	
-0.381714	
-0.381165	
-0.381409	
-0.381775	
-0.381775	
-0.382751	
-0.380798	
-0.38208	
-0.380493	
-0.381409	
-0.382568	
-0.381897	
-0.382385	
-0.38208	
-0.38324	
-0.384216	
-0.38324	
-0.383911	
-0.382996	
-0.384277	
-0.383423	
-0.384399	
-0.384521	
-0.38446	
-0.38446	
-0.384766	
-0.385193	
-0.385681	
-0.38446	
-0.384521	
-0.383789	
-0.384644	
-0.384644	
-0.384033	
-0.384094	
-0.384094	
-0.385132	
-0.383789	
-0.383057	
-0.381958	
-0.383301	
-0.383667	
-0.383057	
-0.383057	
-0.38385	
-0.383484	
-0.384949	
-0.38269	
-0.383301	
-0.381592	
-0.383057	
-0.383057	
-0.382874	
-0.383057	
-0.383423	
-0.383118	
-0.383728	
-0.382629	
-0.382874	
-0.382141	
-0.382751	
-0.383057	
-0.382507	
-0.382141	
-0.381836	
-0.382996	
-0.382629	
-0.382202	
-0.382263	
-0.382202	
-0.381836	
-0.382874	
-0.382385	
-0.382263	
-0.38147	
-0.382935	
-0.382507	
-0.382751	
-0.382141	
-0.382202	
-0.382141	
-0.382751	
-0.382996	
-0.383057	
-0.382874	
-0.383911	
-0.383667	
-0.384521	
-0.383362	
-0.383484	
-0.381531	
-0.383118	
-0.383545	
-0.383057	
-0.38324	
-0.383667	
-0.383606	
-0.384521	
-0.383728	
-0.383118	
-0.382019	
-0.383728	
-0.383179	
-0.383118	
-0.382996	
-0.38324	
-0.383606	
-0.383362	
-0.383057	
-0.382996	
-0.381714	
-0.382202	
-0.382141	
-0.382141	
-0.381592	
-0.381409	
-0.382019	
-0.381592	
-0.381348	
-0.379883	
-0.380066	
-0.380066	
-0.380737	
-0.380554	
-0.380249	
-0.379211	
-0.380554	
-0.380615	
-0.381226	
-0.380371	
-0.379944	
-0.379456	
-0.381226	
-0.380493	
-0.380737	
-0.380066	
-0.38092	
-0.380981	
-0.381348	
-0.380798	
-0.381104	
-0.381165	
-0.381775	
-0.381165	
-0.381714	
-0.381165	
-0.381897	
-0.382446	
-0.38269	
-0.382202	
-0.381592	
-0.380798	
-0.382935	
-0.381348	
-0.382874	
-0.38324	
-0.383789	
-0.384399	
-0.385193	
-0.385437	
-0.384827	
-0.384827	
-0.384949	
-0.385437	
-0.385681	
-0.385742	
-0.385986	
-0.386414	
-0.387207	
-0.387146	
-0.386475	
-0.386902	
-0.385986	
-0.387085	
-0.386475	
-0.386414	
-0.386108	
-0.386475	
-0.386841	
-0.386353	
-0.386414	
-0.38623	
-0.385254	
-0.386169	
-0.384766	
-0.385498	
-0.384277	
-0.38562	
-0.386292	
-0.386047	
-0.385071	
-0.385315	
-0.384583	
-0.384949	
-0.384644	
-0.385132	
-0.384583	
-0.385376	
-0.385193	
-0.385864	
-0.384766	
-0.384949	
-0.383789	
-0.384766	
-0.384277	
-0.384766	
-0.384338	
-0.384155	
-0.384216	
-0.384399	
-0.38446	
-0.383545	
-0.382874	
-0.382263	
-0.382813	
-0.382202	
-0.382507	
-0.38269	
-0.382935	
-0.383118	
-0.383545	
-0.38269	
-0.382568	
-0.382019	
-0.383789	
-0.381958	
-0.382324	
-0.381409	
-0.382751	
-0.383545	
-0.384033	
-0.382874	
-0.382385	
-0.381775	
-0.383179	
-0.382141	
-0.382507	
-0.382751	
-0.383423	
-0.383972	
-0.384216	
-0.383301	
-0.383667	
-0.382263	
-0.383118	
-0.383057	
-0.383118	
-0.383423	
-0.382935	
-0.383545	
-0.383728	
-0.383545	
-0.38324	
-0.382751	
-0.382874	
-0.383362	
-0.383423	
-0.383179	
-0.382813	
-0.38324	
-0.383545	
-0.38385	
-0.382935	
-0.383118	
-0.381836	
-0.383789	
-0.382202	
-0.382629	
-0.381897	
-0.383057	
-0.383667	
-0.383972	
-0.382385	
-0.382507	
-0.382507	
-0.383179	
-0.381653	
-0.382446	
-0.381958	
-0.381958	
-0.382446	
-0.382935	
-0.381958	
-0.382324	
-0.380432	
-0.382324	
-0.381775	
-0.382141	
-0.381897	
-0.382019	
-0.382324	
-0.383362	
-0.382385	
-0.382324	
-0.381592	
-0.38269	
-0.38269	
-0.383057	
-0.382751	
-0.383118	
-0.384155	
-0.384705	
-0.385071	
-0.384705	
-0.38446	
-0.383484	
-0.385986	
-0.38385	
-0.385376	
-0.384888	
-0.38562	
-0.386475	
-0.386414	
-0.385376	
-0.38562	
-0.385071	
-0.386353	
-0.384399	
-0.385071	
-0.384216	
-0.384827	
-0.38562	
-0.385681	
-0.384888	
-0.384766	
-0.384094	
-0.385132	
-0.384277	
-0.384644	
-0.384399	
-0.384583	
-0.384766	
-0.385864	
-0.384888	
-0.383972	
-0.383423	
-0.38385	
-0.384033	
-0.383728	
-0.38385	
-0.384216	
-0.384277	
-0.384888	
-0.384583	
-0.383484	
-0.383362	
-0.382263	
-0.383362	
-0.38208	
-0.382324	
-0.381653	
-0.381714	
-0.382629	
-0.38208	
-0.381287	
-0.381592	
-0.38147	
-0.38208	
-0.380554	
-0.380859	
-0.379761	
-0.380371	
-0.38147	
-0.382019	
-0.381165	
-0.381592	
-0.380493	
-0.382141	
-0.381836	
-0.381897	
-0.381653	
-0.382324	
-0.382507	
-0.382996	
-0.382507	
-0.382385	
-0.382324	
-0.382996	
-0.382202	
-0.381836	
-0.382202	
-0.382813	
-0.382446	
-0.38324	
-0.38324	
-0.382385	
-0.382568	
-0.381287	
-0.383423	
-0.382446	
-0.383057	
-0.382385	
-0.382813	
-0.384216	
-0.384338	
-0.383118	
-0.38208	
-0.382385	
-0.384705	
-0.383118	
-0.383057	
-0.382751	
-0.383728	
-0.384399	
-0.384644	
-0.383667	
-0.383423	
-0.383484	
-0.383423	
-0.383301	
-0.38208	
-0.383423	
-0.38324	
-0.383118	
-0.383057	
-0.382813	
-0.382385	
-0.383301	
-0.382751	
-0.383179	
-0.381714	
-0.38208	
-0.382568	
-0.382629	
-0.382874	
-0.38269	
-0.382751	
-0.382446	
-0.382507	
-0.383118	
-0.382141	
-0.382507	
-0.38147	
-0.382385	
-0.38324	
-0.383789	
-0.383057	
-0.381897	
-0.38031	
-0.38385	
-0.382935	
-0.382996	
-0.382935	
-0.383606	
-0.384155	
-0.38501	
-0.383972	
-0.383911	
-0.384094	
-0.384949	
-0.384888	
-0.385071	
-0.38501	
-0.385437	
-0.385681	
-0.386169	
-0.385376	
-0.385681	
-0.386353	
-0.385559	
-0.385986	
-0.384766	
-0.385376	
-0.384827	
-0.38562	
-0.386353	
-0.385742	
-0.385315	
-0.384705	
-0.38446	
-0.385925	
-0.384705	
-0.384583	
-0.38385	
-0.385071	
-0.385742	
-0.385315	
-0.384399	
-0.383545	
-0.382568	
-0.384155	
-0.383606	
-0.383667	
-0.383423	
-0.383484	
-0.383789	
-0.384277	
-0.383179	
-0.382813	
-0.382263	
-0.38208	
-0.382019	
-0.381714	
-0.380981	
-0.38147	
-0.381165	
-0.381042	
-0.379944	
-0.380005	
-0.379944	
-0.380005	
-0.380432	
-0.378174	
-0.379089	
-0.378418	
-0.379333	
-0.380371	
-0.379944	
-0.379639	
-0.378662	
-0.379028	
-0.380432	
-0.379822	
-0.379883	
-0.37915	
-0.380371	
-0.381042	
-0.38208	
-0.38031	
-0.380371	
-0.378906	
-0.380554	
-0.380432	
-0.380554	
-0.380798	
-0.381165	
-0.380676	
-0.381836	
-0.380615	
-0.380798	
-0.380188	
-0.381104	
-0.380981	
-0.381409	
-0.380676	
-0.381042	
-0.381409	
-0.382263	
-0.381226	
-0.381653	
-0.381714	
-0.382263	
-0.382385	
-0.381165	
-0.383057	
-0.382751	
-0.382996	
-0.384338	
-0.384583	
-0.383362	
-0.382813	
-0.382324	
-0.383728	
-0.383362	
-0.38385	
-0.383423	
-0.383789	
-0.384033	
-0.384644	
-0.382996	
-0.383362	
-0.382324	
-0.383423	
-0.383118	
-0.383362	
-0.382202	
-0.383057	
-0.383484	
-0.384033	
-0.382507	
-0.382629	
-0.382874	
-0.383545	
-0.382751	
-0.382935	
-0.383057	
-0.382568	
-0.382874	
-0.383667	
-0.383118	
-0.382568	
-0.382874	
-0.382568	
-0.383179	
-0.381714	
-0.382935	
-0.382874	
-0.382874	
-0.383484	
-0.384399	
-0.383179	
-0.382324	
-0.381409	
-0.383118	
-0.382996	
-0.38269	
-0.382813	
-0.383118	
-0.383545	
-0.384521	
-0.383118	
-0.383545	
-0.382202	
-0.384216	
-0.383118	
-0.383179	
-0.382629	
-0.383057	
-0.383545	
-0.383911	
-0.383423	
-0.383972	
-0.383667	
-0.384705	
-0.383667	
-0.383606	
-0.38324	
-0.383972	
-0.383728	
-0.384888	
-0.384521	
-0.383911	
-0.383606	
-0.384033	
-0.383423	
-0.383301	
-0.383301	
-0.383301	
-0.383728	
-0.383606	
-0.38501	
-0.382813	
-0.382874	
-0.38031	
-0.381897	
-0.381531	
-0.381592	
-0.381897	
-0.381897	
-0.380859	
-0.381836	
-0.380188	
-0.380493	
-0.380127	
-0.380493	
-0.380249	
-0.38031	
-0.38031	
-0.380371	
-0.380676	
-0.381775	
-0.380798	
-0.380554	
-0.380493	
-0.381409	
-0.38092	
-0.379639	
-0.380676	
-0.380981	
-0.381409	
-0.381531	
-0.38208	
-0.381165	
-0.381714	
-0.380981	
-0.381287	
-0.381042	
-0.38031	
-0.381714	
-0.381592	
-0.381653	
-0.384033	
-0.381714	
-0.381714	
-0.380615	
-0.381897	
-0.381836	
-0.381653	
-0.382568	
-0.382507	
-0.383057	
-0.384521	
-0.383301	
-0.38385	
-0.382629	
-0.384277	
-0.384521	
-0.384155	
-0.384705	
-0.384888	
-0.384949	
-0.385864	
-0.385559	
-0.385498	
-0.385315	
-0.384949	
-0.384583	
-0.384094	
-0.384766	
-0.38501	
-0.384216	
-0.384399	
-0.385925	
-0.383728	
-0.384521	
-0.382935	
-0.38385	
-0.383301	
-0.382996	
-0.383911	
-0.383911	
-0.383423	
-0.384766	
-0.383545	
-0.384094	
-0.382385	
-0.383118	
-0.383179	
-0.383118	
-0.38385	
-0.383423	
-0.38324	
-0.383972	
-0.383484	
-0.383484	
-0.382813	
-0.383301	
-0.383118	
-0.382935	
-0.38269	
-0.382568	
-0.383118	
-0.383362	
-0.384094	
-0.382385	
-0.383179	
-0.383179	
-0.382813	
-0.382446	
-0.382568	
-0.383423	
-0.382813	
-0.382813	
-0.385376	
-0.383362	
-0.384399	
-0.381348	
-0.383362	
-0.382996	
	
