C:\DOCUMENTS AND SETTINGS\JASON\DESKTOP\UFRJ\UFRJ EPHYS\RSCI-BM 12 WK SERIES\070806-RSCI-BM-16\RSCI-BM-16-LEMG\070806-RSCI-BM-16-LEMG-0017.ACQ
0.025000 msec/sample
1 channel
Analog input
Volts
CH1	
2000	
-0.381714	
-0.38147	
-0.381104	
-0.380554	
-0.38147	
-0.380493	
-0.380981	
-0.380554	
-0.380432	
-0.38031	
-0.381104	
-0.380493	
-0.380066	
-0.379639	
-0.380981	
-0.380127	
-0.379883	
-0.379211	
-0.38031	
-0.379761	
-0.380005	
-0.379272	
-0.378235	
-0.378052	
-0.379333	
-0.378296	
-0.377991	
-0.377014	
-0.378113	
-0.378479	
-0.378662	
-0.378418	
-0.377869	
-0.378113	
-0.379578	
-0.378662	
-0.379211	
-0.377502	
-0.379089	
-0.379822	
-0.381042	
-0.380554	
-0.379944	
-0.38031	
-0.381592	
-0.380554	
-0.380737	
-0.381104	
-0.382019	
-0.382019	
-0.382446	
-0.382385	
-0.382324	
-0.382263	
-0.383789	
-0.383484	
-0.383362	
-0.382996	
-0.384155	
-0.383911	
-0.384705	
-0.384277	
-0.384583	
-0.383972	
-0.385559	
-0.385071	
-0.38501	
-0.384338	
-0.384705	
-0.38562	
-0.386047	
-0.385925	
-0.385559	
-0.385437	
-0.386719	
-0.386108	
-0.386414	
-0.385498	
-0.385864	
-0.386414	
-0.386353	
-0.386047	
-0.385437	
-0.385254	
-0.386658	
-0.386353	
-0.385254	
-0.384094	
-0.384888	
-0.384827	
-0.385254	
-0.384827	
-0.38385	
-0.383057	
-0.384583	
-0.384338	
-0.384094	
-0.383057	
-0.383545	
-0.382996	
-0.384705	
-0.383606	
-0.38324	
-0.382507	
-0.38385	
-0.383789	
-0.383179	
-0.382629	
-0.382996	
-0.383179	
-0.384155	
-0.383057	
-0.382629	
-0.382202	
-0.382996	
-0.382874	
-0.382141	
-0.381531	
-0.381653	
-0.382263	
-0.383423	
-0.382263	
-0.382263	
-0.381104	
-0.382568	
-0.382751	
-0.382813	
-0.38208	
-0.381836	
-0.382874	
-0.383972	
-0.383545	
-0.383667	
-0.382568	
-0.383911	
-0.384399	
-0.384155	
-0.383667	
-0.383606	
-0.384766	
-0.38562	
-0.385132	
-0.38446	
-0.383911	
-0.385193	
-0.386108	
-0.385376	
-0.385071	
-0.385193	
-0.386108	
-0.387268	
-0.38623	
-0.385986	
-0.38562	
-0.386597	
-0.387573	
-0.386108	
-0.38678	
-0.387207	
-0.38739	
-0.389282	
-0.388123	
-0.387634	
-0.386536	
-0.388062	
-0.388977	
-0.387817	
-0.388855	
-0.388672	
-0.389038	
-0.390747	
-0.389404	
-0.390137	
-0.388	
-0.389465	
-0.389648	
-0.388794	
-0.388794	
-0.388611	
-0.388794	
-0.389709	
-0.388611	
-0.388428	
-0.386292	
-0.388428	
-0.387512	
-0.387329	
-0.387451	
-0.387451	
-0.387146	
-0.387939	
-0.387085	
-0.38623	
-0.384705	
-0.385803	
-0.385742	
-0.385193	
-0.368774	
-0.365601	
-0.36676	
-0.368347	
-0.366943	
-0.367065	
-0.386597	
-0.385437	
-0.382629	
-0.382446	
-0.382507	
-0.382507	
-0.382751	
-0.382935	
-0.381897	
-0.382446	
-0.382568	
-0.382446	
-0.381165	
-0.381836	
-0.381531	
-0.381714	
-0.382202	
-0.382385	
-0.381897	
-0.382813	
-0.382385	
-0.383118	
-0.382324	
-0.382874	
-0.383179	
-0.383667	
-0.384277	
-0.384644	
-0.384766	
-0.385925	
-0.38501	
-0.385803	
-0.384949	
-0.386047	
-0.386108	
-0.386169	
-0.387085	
-0.386963	
-0.386536	
-0.386658	
-0.38678	
-0.387878	
-0.386658	
-0.388245	
-0.388367	
-0.390442	
-0.392578	
-0.394653	
-0.397522	
-0.400391	
-0.404663	
-0.409302	
-0.41217	
-0.417175	
-0.421265	
-0.426147	
-0.432495	
-0.436829	
-0.443176	
-0.447815	
-0.456848	
-0.460938	
-0.466919	
-0.471924	
-0.476318	
-0.480042	
-0.483154	
-0.484619	
-0.48584	
-0.488037	
-0.490051	
-0.489685	
-0.490784	
-0.490417	
-0.491089	
-0.491455	
-0.490662	
-0.489746	
-0.488403	
-0.488159	
-0.487793	
-0.486206	
-0.484924	
-0.483582	
-0.484802	
-0.484619	
-0.484863	
-0.485046	
-0.485718	
-0.487061	
-0.488586	
-0.488403	
-0.488892	
-0.490662	
-0.493042	
-0.494629	
-0.495483	
-0.496704	
-0.497375	
-0.498718	
-0.498352	
-0.497742	
-0.497009	
-0.497375	
-0.496338	
-0.496216	
-0.495117	
-0.49469	
-0.493958	
-0.49408	
-0.493103	
-0.492615	
-0.492493	
-0.49292	
-0.492615	
-0.493896	
-0.492188	
-0.491638	
-0.490906	
-0.491638	
-0.48999	
-0.488892	
-0.487976	
-0.487793	
-0.486938	
-0.486572	
-0.482971	
-0.48053	
-0.476685	
-0.474792	
-0.470459	
-0.46521	
-0.460876	
-0.457092	
-0.452087	
-0.448547	
-0.440491	
-0.433533	
-0.425354	
-0.419556	
-0.409973	
-0.399719	
-0.389954	
-0.380798	
-0.370178	
-0.360474	
-0.348083	
-0.337036	
-0.324585	
-0.314636	
-0.302185	
-0.291687	
-0.280701	
-0.272766	
-0.264648	
-0.258423	
-0.252014	
-0.247498	
-0.243958	
-0.242615	
-0.239807	
-0.238464	
-0.237671	
-0.238953	
-0.240173	
-0.242432	
-0.243042	
-0.245117	
-0.248535	
-0.251648	
-0.2547	
-0.257263	
-0.263	
-0.266785	
-0.271851	
-0.276001	
-0.280334	
-0.284424	
-0.289734	
-0.293213	
-0.296692	
-0.299194	
-0.30426	
-0.307068	
-0.311035	
-0.312927	
-0.315918	
-0.319702	
-0.321655	
-0.323669	
-0.325562	
-0.327698	
-0.330444	
-0.332764	
-0.334045	
-0.335693	
-0.336853	
-0.339539	
-0.339905	
-0.340698	
-0.341736	
-0.343445	
-0.343689	
-0.345398	
-0.346008	
-0.34668	
-0.348083	
-0.3479	
-0.348022	
-0.347351	
-0.349121	
-0.350037	
-0.350647	
-0.35083	
-0.350952	
-0.35083	
-0.352783	
-0.353088	
-0.353333	
-0.352844	
-0.354248	
-0.354797	
-0.356323	
-0.35553	
-0.355652	
-0.355835	
-0.356567	
-0.356323	
-0.356812	
-0.356873	
-0.357117	
-0.357544	
-0.357666	
-0.35791	
-0.357361	
-0.359314	
-0.358704	
-0.358459	
-0.357971	
-0.358521	
-0.358826	
-0.360291	
-0.359436	
-0.358765	
-0.358582	
-0.36145	
-0.360046	
-0.359863	
-0.358337	
-0.360535	
-0.36084	
-0.362122	
-0.360962	
-0.360657	
-0.361328	
-0.360901	
-0.361084	
-0.361023	
-0.361023	
-0.361511	
-0.362061	
-0.361633	
-0.360962	
-0.361023	
-0.362488	
-0.361145	
-0.36084	
-0.359192	
-0.360779	
-0.36084	
-0.360901	
-0.360718	
-0.360657	
-0.361389	
-0.356445	
-0.34198	
-0.342285	
-0.342529	
-0.344604	
-0.34375	
-0.358337	
-0.363342	
-0.361694	
-0.361206	
-0.360718	
-0.360779	
-0.359436	
-0.360413	
-0.360657	
-0.361084	
-0.362488	
-0.360168	
-0.36145	
-0.359619	
-0.359985	
-0.360229	
-0.359375	
-0.360657	
-0.360779	
-0.360901	
-0.360474	
-0.361084	
-0.361023	
-0.360718	
-0.360168	
-0.360291	
-0.361694	
-0.361572	
-0.361633	
-0.363892	
-0.362915	
-0.363403	
-0.361572	
-0.362854	
-0.363098	
-0.362915	
-0.364075	
-0.364136	
-0.364075	
-0.365662	
-0.365417	
-0.365234	
-0.366455	
-0.367493	
-0.368652	
-0.370422	
-0.374023	
-0.377075	
-0.381592	
-0.38501	
-0.390686	
-0.394165	
-0.398743	
-0.403625	
-0.407349	
-0.413513	
-0.419128	
-0.42572	
-0.432922	
-0.439148	
-0.445618	
-0.453003	
-0.457764	
-0.46283	
-0.465576	
-0.468628	
-0.47052	
-0.472351	
-0.473694	
-0.475342	
-0.474792	
-0.474426	
-0.473022	
-0.472595	
-0.471741	
-0.471252	
-0.470154	
-0.469727	
-0.467834	
-0.467529	
-0.465637	
-0.465515	
-0.464355	
-0.464783	
-0.466003	
-0.46698	
-0.467834	
-0.469238	
-0.468445	
-0.471191	
-0.471863	
-0.475098	
-0.475952	
-0.477417	
-0.479248	
-0.479919	
-0.480347	
-0.482117	
-0.481323	
-0.481873	
-0.47998	
-0.480347	
-0.480591	
-0.479431	
-0.480225	
-0.479919	
-0.480835	
-0.4823	
-0.482117	
-0.4823	
-0.482544	
-0.482056	
-0.481445	
-0.479858	
-0.48053	
-0.480103	
-0.478882	
-0.477661	
-0.47522	
-0.472473	
-0.471436	
-0.466675	
-0.463745	
-0.458618	
-0.456177	
-0.452332	
-0.447876	
-0.441895	
-0.435974	
-0.429382	
-0.4245	
-0.415833	
-0.408264	
-0.3974	
-0.390442	
-0.379883	
-0.369873	
-0.357483	
-0.34491	
-0.332092	
-0.32135	
-0.306396	
-0.293518	
-0.280273	
-0.270203	
-0.26001	
-0.251343	
-0.242432	
-0.234375	
-0.229309	
-0.225098	
-0.219849	
-0.216187	
-0.214539	
-0.215698	
-0.216492	
-0.218689	
-0.220276	
-0.223572	
-0.226807	
-0.232361	
-0.235901	
-0.24054	
-0.246277	
-0.250793	
-0.256165	
-0.262024	
-0.265869	
-0.271851	
-0.276428	
-0.281677	
-0.285828	
-0.288879	
-0.294861	
-0.298462	
-0.302185	
-0.30481	
-0.308167	
-0.310181	
-0.314392	
-0.316895	
-0.319275	
-0.322998	
-0.325134	
-0.327881	
-0.330322	
-0.331543	
-0.334045	
-0.33606	
-0.336914	
-0.338013	
-0.338806	
-0.340759	
-0.341919	
-0.344543	
-0.344177	
-0.345459	
-0.345154	
-0.346497	
-0.346985	
-0.347229	
-0.348083	
-0.348206	
-0.349182	
-0.350159	
-0.34967	
-0.349609	
-0.349609	
-0.350037	
-0.350159	
-0.349243	
-0.351501	
-0.351746	
-0.3526	
-0.352417	
-0.353088	
-0.353638	
-0.354492	
-0.354248	
-0.353271	
-0.35498	
-0.355591	
-0.355591	
-0.35791	
-0.357422	
-0.357544	
-0.358337	
-0.358826	
-0.358459	
-0.357849	
-0.359619	
-0.360352	
-0.360657	
-0.361694	
-0.361145	
-0.36145	
-0.362854	
-0.362244	
-0.36261	
-0.361938	
-0.362671	
-0.36322	
-0.364441	
-0.363342	
-0.36377	
-0.363953	
-0.365234	
-0.364258	
-0.363403	
-0.363586	
-0.364929	
-0.365356	
-0.367004	
-0.365662	
-0.365601	
-0.366089	
-0.366028	
-0.36615	
-0.36499	
-0.366943	
-0.367371	
-0.367554	
-0.367676	
-0.367126	
-0.367126	
-0.368774	
-0.367615	
-0.367676	
-0.36676	
-0.367554	
-0.367615	
-0.368286	
-0.367249	
-0.367126	
-0.367981	
-0.367981	
-0.367737	
-0.36676	
-0.367676	
-0.368164	
-0.36908	
-0.368042	
-0.367859	
-0.367981	
-0.369873	
-0.368591	
-0.368164	
-0.367859	
-0.368958	
-0.368652	
-0.369507	
-0.368774	
-0.368835	
-0.369507	
-0.369019	
-0.36908	
-0.368042	
-0.369263	
-0.369324	
-0.370178	
-0.369446	
-0.368347	
-0.369751	
-0.369873	
-0.369385	
-0.369385	
-0.370117	
-0.370239	
-0.370728	
-0.371521	
-0.370544	
-0.370789	
-0.372131	
-0.371155	
-0.371216	
-0.371033	
-0.372437	
-0.372559	
-0.372925	
-0.373352	
-0.373047	
-0.373413	
-0.374451	
-0.374084	
-0.373413	
-0.373657	
-0.375061	
-0.375	
-0.375305	
-0.376038	
-0.375732	
-0.377441	
-0.376221	
-0.376099	
-0.375488	
-0.376892	
-0.377014	
-0.377441	
-0.378052	
-0.378174	
-0.378174	
-0.377808	
-0.378601	
-0.378601	
-0.379089	
-0.379333	
-0.379578	
-0.38031	
-0.381409	
-0.380432	
-0.381287	
-0.379822	
-0.380859	
-0.380737	
-0.381714	
-0.382141	
-0.38208	
-0.382568	
-0.382324	
-0.381897	
-0.383057	
-0.381958	
-0.381714	
-0.3797	
-0.380859	
-0.381592	
-0.381775	
-0.382202	
-0.381287	
-0.381165	
-0.38208	
-0.381836	
-0.380493	
-0.379333	
-0.37915	
-0.380005	
-0.380188	
-0.381104	
-0.379822	
-0.3797	
-0.378113	
-0.379761	
-0.378357	
-0.377869	
-0.37793	
-0.377869	
-0.377747	
-0.378784	
-0.377625	
-0.377991	
-0.377075	
-0.376831	
-0.375916	
-0.376709	
-0.376892	
-0.376587	
-0.377136	
-0.376953	
-0.376892	
-0.378296	
-0.377808	
-0.376831	
-0.375122	
-0.377014	
-0.377563	
-0.37793	
-0.378845	
-0.378296	
-0.378967	
-0.377258	
-0.379089	
-0.378418	
-0.379211	
-0.37915	
-0.379517	
-0.380127	
-0.380371	
-0.38031	
-0.381714	
-0.382385	
-0.38147	
-0.380066	
-0.381287	
-0.382141	
-0.382202	
-0.383057	
-0.382874	
-0.383484	
-0.383179	
-0.383606	
-0.383606	
-0.382019	
-0.383606	
-0.383972	
-0.384094	
-0.385193	
-0.384888	
-0.384888	
-0.384094	
-0.384949	
-0.383362	
-0.383667	
-0.384033	
-0.384766	
-0.384583	
-0.385132	
-0.384583	
-0.384521	
-0.384644	
-0.383606	
-0.383301	
-0.383423	
-0.383728	
-0.383728	
-0.384766	
-0.383789	
-0.38385	
-0.382385	
-0.383911	
-0.382935	
-0.382813	
-0.383667	
-0.383362	
-0.383484	
-0.383545	
-0.382385	
-0.382996	
-0.383057	
-0.382507	
-0.381958	
-0.381531	
-0.381531	
-0.382324	
-0.382507	
-0.383057	
-0.38208	
-0.382446	
-0.382507	
-0.381836	
-0.380554	
-0.379639	
-0.381592	
-0.381775	
-0.381714	
-0.38208	
-0.381104	
-0.382568	
-0.382019	
-0.380432	
-0.379883	
-0.378845	
-0.38092	
-0.380493	
-0.381287	
-0.38092	
-0.380493	
-0.380676	
-0.381531	
-0.380127	
-0.380127	
-0.379456	
-0.38092	
-0.380676	
-0.381714	
-0.381165	
-0.38147	
-0.379883	
-0.381897	
-0.381348	
-0.381226	
-0.380981	
-0.381897	
-0.381714	
-0.383179	
-0.382629	
-0.382629	
-0.382446	
-0.383362	
-0.382874	
-0.382385	
-0.383118	
-0.383484	
-0.383606	
-0.384033	
-0.383606	
-0.384766	
-0.384155	
-0.38385	
-0.383423	
-0.382996	
-0.384277	
-0.384277	
-0.384949	
-0.386047	
-0.384705	
-0.385315	
-0.384094	
-0.385193	
-0.384888	
-0.385681	
-0.386047	
-0.385925	
-0.386963	
-0.38678	
-0.386658	
-0.385864	
-0.387207	
-0.386475	
-0.385498	
-0.385864	
-0.386292	
-0.386292	
-0.386902	
-0.38562	
-0.385193	
-0.385132	
-0.386047	
-0.384644	
-0.383301	
-0.383484	
-0.384155	
-0.38446	
-0.384521	
-0.383301	
-0.383667	
-0.383423	
-0.382874	
-0.381287	
-0.382202	
-0.382141	
-0.381409	
-0.381653	
-0.382263	
-0.381653	
-0.381165	
-0.38031	
-0.380554	
-0.380554	
-0.380554	
-0.380005	
-0.379883	
-0.380066	
-0.38031	
-0.379761	
-0.379883	
-0.380127	
-0.378906	
-0.377869	
-0.379028	
-0.379089	
-0.379089	
-0.379395	
-0.379028	
-0.379272	
-0.379517	
-0.379272	
-0.379211	
-0.379333	
-0.379089	
-0.379333	
-0.379272	
-0.380432	
-0.380432	
-0.380737	
-0.379333	
-0.380432	
-0.380249	
-0.381042	
-0.380615	
-0.380615	
-0.381226	
-0.382629	
-0.381104	
-0.382263	
-0.379395	
-0.381592	
-0.379761	
-0.381592	
-0.380981	
-0.381653	
-0.382019	
-0.383606	
-0.381958	
-0.383667	
-0.380188	
-0.382202	
-0.379883	
-0.382019	
-0.382385	
-0.382324	
-0.38269	
-0.384521	
-0.382996	
-0.384155	
-0.382324	
-0.383484	
-0.382202	
-0.382935	
-0.382385	
-0.38269	
-0.383057	
-0.383423	
-0.382813	
-0.382751	
-0.382019	
-0.382629	
-0.382263	
-0.382568	
-0.380737	
-0.381775	
-0.382263	
-0.381653	
-0.381897	
-0.380798	
-0.381226	
-0.380981	
-0.380676	
-0.380859	
-0.38031	
-0.380615	
-0.380676	
-0.380371	
-0.381165	
-0.379089	
-0.380188	
-0.378052	
-0.379883	
-0.379333	
-0.378845	
-0.378906	
-0.380005	
-0.379028	
-0.378601	
-0.377319	
-0.377991	
-0.377625	
-0.378052	
-0.377441	
-0.377319	
-0.377808	
-0.378723	
-0.377502	
-0.37738	
-0.376038	
-0.376892	
-0.376343	
-0.376343	
-0.376282	
-0.376465	
-0.376343	
-0.377502	
-0.376953	
-0.377136	
-0.37616	
-0.376282	
-0.375732	
-0.377258	
-0.376953	
-0.376831	
-0.37738	
-0.378235	
-0.378296	
-0.378662	
-0.377441	
-0.377686	
-0.378418	
-0.378723	
-0.377747	
-0.379272	
-0.3797	
-0.380371	
-0.380554	
-0.380615	
-0.380554	
-0.381226	
-0.380981	
-0.381714	
-0.381653	
-0.381897	
-0.382874	
-0.382568	
-0.383179	
-0.382813	
-0.383057	
-0.383972	
-0.383301	
-0.383911	
-0.383484	
-0.383728	
-0.384277	
-0.383911	
-0.383728	
-0.382263	
-0.383606	
-0.383789	
-0.383972	
-0.383667	
-0.383545	
-0.383606	
-0.384766	
-0.383667	
-0.38385	
-0.381653	
-0.382935	
-0.38208	
-0.382629	
-0.382629	
-0.38208	
-0.382141	
-0.382568	
-0.381958	
-0.381409	
-0.38031	
-0.380859	
-0.380127	
-0.380066	
-0.379639	
-0.379761	
-0.379639	
-0.379761	
-0.3797	
-0.379272	
-0.378845	
-0.378601	
-0.378662	
-0.378601	
-0.377808	
-0.378723	
-0.37854	
-0.378845	
-0.379211	
-0.378357	
-0.378052	
-0.378174	
-0.378723	
-0.37854	
-0.377319	
-0.378296	
-0.378845	
-0.379211	
-0.379395	
-0.37915	
-0.378784	
-0.379883	
-0.378662	
-0.379089	
-0.379272	
-0.379395	
-0.379761	
-0.380371	
-0.379639	
-0.380127	
-0.378845	
-0.379944	
-0.378906	
-0.379333	
-0.380005	
-0.380127	
-0.381042	
-0.381836	
-0.381104	
-0.38092	
-0.379395	
-0.381165	
-0.379761	
-0.381104	
-0.381042	
-0.381042	
-0.382507	
-0.382263	
-0.381348	
-0.38092	
-0.38147	
-0.381592	
-0.380737	
-0.381592	
-0.381531	
-0.382568	
-0.38324	
-0.382935	
-0.382385	
-0.382446	
-0.382629	
-0.382996	
-0.383301	
-0.38269	
-0.383545	
-0.383545	
-0.38385	
-0.383972	
-0.382813	
-0.383179	
-0.383545	
-0.382568	
-0.383118	
-0.381592	
-0.383667	
-0.383423	
-0.38385	
-0.383484	
-0.382874	
-0.382568	
-0.382446	
-0.381958	
-0.381653	
-0.38092	
-0.38208	
-0.381836	
-0.381897	
-0.381897	
-0.381104	
-0.380371	
-0.381287	
-0.380737	
-0.380188	
-0.38092	
-0.380676	
-0.380737	
-0.380859	
-0.380737	
-0.380127	
-0.379272	
-0.380188	
-0.380249	
-0.379639	
-0.380371	
-0.379883	
-0.380676	
-0.380859	
-0.379944	
-0.379333	
-0.378113	
-0.378906	
-0.378418	
-0.378845	
-0.378479	
-0.377869	
-0.379456	
-0.379272	
-0.378113	
-0.378174	
-0.378357	
-0.37854	
-0.378113	
-0.378845	
-0.379333	
-0.379822	
-0.38092	
-0.379761	
-0.379944	
-0.379456	
-0.381409	
-0.380798	
-0.379822	
-0.380066	
-0.380859	
-0.381531	
-0.382568	
-0.382629	
-0.38208	
-0.38324	
-0.383362	
-0.38269	
-0.382019	
-0.382019	
-0.383423	
-0.383667	
-0.384521	
-0.384583	
-0.383789	
-0.384766	
-0.385254	
-0.385071	
-0.384155	
-0.384155	
-0.385437	
-0.385681	
-0.386047	
-0.385986	
-0.385437	
-0.38623	
-0.385498	
-0.385803	
-0.385254	
-0.386047	
-0.386658	
-0.386475	
-0.386902	
-0.387024	
-0.38623	
-0.386536	
-0.385742	
-0.385925	
-0.384949	
-0.386108	
-0.38562	
-0.385986	
-0.386047	
-0.385742	
-0.383728	
-0.385376	
-0.383911	
-0.384583	
-0.383545	
-0.384094	
-0.383728	
-0.385071	
-0.384277	
-0.384583	
-0.382874	
-0.384277	
-0.383728	
-0.38385	
-0.382385	
-0.383484	
-0.38324	
-0.384705	
-0.383545	
-0.38324	
-0.381775	
-0.384277	
-0.382813	
-0.382751	
-0.381714	
-0.382629	
-0.382385	
-0.383606	
-0.382141	
-0.381958	
-0.381042	
-0.383423	
-0.382629	
-0.382751	
-0.381714	
-0.382568	
-0.383362	
-0.384277	
-0.383057	
-0.382874	
-0.381531	
-0.384338	
-0.383484	
-0.383484	
-0.382507	
-0.383911	
-0.384277	
-0.38562	
-0.38446	
-0.38446	
-0.383423	
-0.386047	
-0.384705	
-0.384827	
-0.383972	
-0.385559	
-0.385803	
-0.387207	
-0.386414	
-0.386047	
-0.385803	
-0.387024	
-0.386292	
-0.386841	
-0.384949	
-0.387085	
-0.386658	
-0.388489	
-0.388123	
-0.387756	
-0.387817	
-0.389038	
-0.387939	
-0.388489	
-0.386658	
-0.388733	
-0.389221	
-0.389221	
-0.389832	
-0.388794	
-0.38916	
-0.390686	
-0.390137	
-0.389038	
-0.387634	
-0.389648	
-0.389954	
-0.390259	
-0.39032	
-0.38855	
-0.388733	
-0.389465	
-0.388733	
-0.388062	
-0.386841	
-0.388611	
-0.388245	
-0.387695	
-0.388489	
-0.387146	
-0.386841	
-0.387939	
-0.386658	
-0.38623	
-0.385315	
-0.38623	
-0.38678	
-0.385925	
-0.385925	
-0.384277	
-0.384094	
-0.385132	
-0.384094	
-0.383606	
-0.383057	
-0.383606	
-0.383667	
-0.382813	
-0.382813	
-0.382019	
-0.38269	
-0.383118	
-0.38208	
-0.382385	
-0.381897	
-0.382385	
-0.382751	
-0.382568	
-0.382263	
-0.381531	
-0.382141	
-0.38269	
-0.382813	
-0.382324	
-0.38269	
-0.383301	
-0.384521	
-0.383972	
-0.383301	
-0.38269	
-0.383667	
-0.384338	
-0.384521	
-0.384155	
-0.384766	
-0.384827	
-0.386902	
-0.38623	
-0.385925	
-0.384949	
-0.386414	
-0.387146	
-0.386719	
-0.386353	
-0.387329	
-0.387451	
-0.388916	
-0.387939	
-0.387695	
-0.38623	
-0.387329	
-0.387817	
-0.387817	
-0.387756	
-0.388306	
-0.388428	
-0.389893	
-0.389038	
-0.388184	
-0.387451	
-0.388123	
-0.388306	
-0.388123	
-0.387695	
-0.387146	
-0.387878	
-0.38855	
-0.388245	
-0.387268	
-0.386414	
-0.387451	
-0.387085	
-0.387512	
-0.387451	
-0.387146	
-0.387207	
-0.388	
-0.387878	
-0.386597	
-0.38562	
-0.387268	
-0.386658	
-0.38623	
-0.385315	
-0.385986	
-0.385742	
-0.386902	
-0.386108	
-0.385498	
-0.384277	
-0.386108	
-0.385559	
-0.38562	
-0.384521	
-0.385254	
-0.385132	
-0.386292	
-0.38501	
-0.384521	
-0.383545	
-0.385498	
-0.384766	
-0.38446	
-0.383484	
-0.38446	
-0.384521	
-0.385132	
-0.38385	
-0.383606	
-0.383545	
-0.384827	
-0.383728	
-0.383301	
-0.381775	
-0.383728	
-0.384033	
-0.383545	
-0.383545	
-0.383789	
-0.383606	
-0.385498	
-0.383484	
-0.383484	
-0.382141	
-0.384094	
-0.384827	
-0.384521	
-0.384399	
-0.384644	
-0.384216	
-0.38623	
-0.384827	
-0.385254	
-0.383484	
-0.38562	
-0.385925	
-0.385986	
-0.386108	
-0.385315	
-0.385498	
-0.387878	
-0.386475	
-0.386597	
-0.384583	
-0.386536	
-0.387085	
-0.387451	
-0.38678	
-0.386292	
-0.386047	
-0.388184	
-0.387085	
-0.386963	
-0.384827	
-0.387512	
-0.388	
-0.389221	
-0.388245	
-0.388	
-0.387817	
-0.390442	
-0.388794	
-0.388916	
-0.38678	
-0.388428	
-0.38916	
-0.389038	
-0.388367	
-0.388123	
-0.388123	
-0.389465	
-0.38739	
-0.387207	
-0.38562	
-0.387024	
-0.387451	
-0.386414	
-0.38562	
-0.384827	
-0.385803	
-0.386658	
-0.384888	
-0.384644	
-0.383667	
-0.38446	
-0.385315	
-0.384277	
-0.383667	
-0.382324	
-0.383484	
-0.384705	
-0.382813	
-0.382629	
-0.381775	
-0.382813	
-0.383789	
-0.381897	
-0.381836	
-0.380127	
-0.381958	
-0.382935	
-0.381531	
-0.381592	
-0.380005	
-0.380981	
-0.382446	
-0.380737	
-0.380798	
-0.378906	
-0.380615	
-0.381836	
-0.38092	
-0.38092	
-0.379822	
-0.38147	
-0.382874	
-0.380798	
-0.380493	
-0.378723	
-0.381409	
-0.382813	
-0.381958	
-0.381409	
-0.382141	
-0.382507	
-0.384644	
-0.382629	
-0.382019	
-0.379944	
-0.383118	
-0.384338	
-0.382874	
-0.382629	
-0.382568	
-0.383301	
-0.385559	
-0.382813	
-0.382996	
-0.380371	
-0.383667	
-0.384888	
-0.383362	
-0.383484	
-0.383057	
-0.383545	
-0.386597	
-0.383667	
-0.38385	
-0.381104	
-0.384949	
-0.385681	
-0.385132	
-0.384399	
-0.383911	
-0.384705	
-0.386841	
-0.384094	
-0.384155	
-0.381897	
-0.384033	
-0.38446	
-0.383789	
-0.383789	
-0.383362	
-0.383972	
-0.385559	
-0.383423	
-0.382874	
-0.382202	
-0.383118	
-0.383118	
-0.382507	
-0.382019	
-0.382202	
-0.381714	
-0.382996	
-0.381836	
-0.38092	
-0.381226	
-0.381836	
-0.381592	
-0.381042	
-0.380615	
-0.380371	
-0.381165	
-0.381165	
-0.38031	
-0.379517	
-0.379944	
-0.380066	
-0.380005	
-0.379395	
-0.378662	
-0.379333	
-0.379761	
-0.379883	
-0.378357	
-0.377686	
-0.37854	
-0.378479	
-0.378174	
-0.377808	
-0.377441	
-0.377808	
-0.377808	
-0.377136	
-0.377686	
-0.376587	
-0.377502	
-0.37793	
-0.377563	
-0.377563	
-0.377319	
-0.378052	
-0.378784	
-0.377991	
-0.378235	
-0.377808	
-0.378723	
-0.379639	
-0.379272	
-0.37854	
-0.37915	
-0.379761	
-0.380615	
-0.379517	
-0.380127	
-0.379578	
-0.38092	
-0.381775	
-0.380981	
-0.381714	
-0.38147	
-0.382568	
-0.383484	
-0.382874	
-0.383118	
-0.382385	
-0.383606	
-0.383972	
-0.384216	
-0.384338	
-0.38385	
-0.384155	
-0.385315	
-0.384399	
-0.384705	
-0.382813	
-0.384705	
-0.385254	
-0.384338	
-0.384277	
-0.383484	
-0.385132	
-0.386292	
-0.384644	
-0.383972	
-0.382019	
-0.383911	
-0.384949	
-0.383606	
-0.383179	
-0.382568	
-0.383362	
-0.384766	
-0.382629	
-0.382385	
-0.379883	
-0.381836	
-0.382507	
-0.381165	
-0.380798	
-0.379456	
-0.380493	
-0.382568	
-0.38031	
-0.379883	
-0.377686	
-0.379517	
-0.380493	
-0.379395	
-0.379028	
-0.37793	
-0.379028	
-0.381042	
-0.378906	
-0.378784	
-0.377625	
-0.37854	
-0.379639	
-0.378418	
-0.379089	
-0.377869	
-0.379028	
-0.380005	
-0.378784	
-0.379272	
-0.378418	
-0.379456	
-0.380615	
-0.379639	
-0.379639	
-0.377991	
-0.380188	
-0.380798	
-0.379883	
-0.379639	
-0.378845	
-0.380188	
-0.38147	
-0.380493	
-0.379944	
-0.378052	
-0.380676	
-0.381592	
-0.380737	
-0.380432	
-0.380249	
-0.38092	
-0.38208	
-0.380859	
-0.380493	
-0.379517	
-0.381958	
-0.382446	
-0.381104	
-0.381104	
-0.380737	
-0.381775	
-0.383118	
-0.381958	
-0.381531	
-0.380127	
-0.382263	
-0.382751	
-0.381714	
-0.381897	
-0.382141	
-0.382446	
-0.384033	
-0.38324	
-0.38324	
-0.382141	
-0.384338	
-0.384094	
-0.38324	
-0.383118	
-0.382141	
-0.383789	
-0.384644	
-0.383179	
-0.383057	
-0.382507	
-0.383362	
-0.383667	
-0.383484	
-0.383179	
-0.381592	
-0.382874	
-0.383118	
-0.382507	
-0.381897	
-0.381226	
-0.382507	
-0.382568	
-0.381897	
-0.380554	
-0.379822	
	
