C:\DOCUMENTS AND SETTINGS\JASON\DESKTOP\UFRJ\UFRJ EPHYS\RSCI-BM 12 WK SERIES\070806-RSCI-BM-16\RSCI-BM-16-LEMG\070806-RSCI-BM-16-LEMG-0012.ACQ
0.025000 msec/sample
1 channel
Analog input
Volts
CH1	
2000	
-0.381104	
-0.380798	
-0.382141	
-0.381409	
-0.380676	
-0.379944	
-0.380615	
-0.381592	
-0.380493	
-0.380554	
-0.380737	
-0.381531	
-0.382874	
-0.38208	
-0.381226	
-0.380737	
-0.381287	
-0.382874	
-0.381409	
-0.381653	
-0.381226	
-0.382324	
-0.382996	
-0.382935	
-0.381897	
-0.382263	
-0.381653	
-0.383545	
-0.382263	
-0.382568	
-0.381531	
-0.382568	
-0.382996	
-0.383362	
-0.382507	
-0.38147	
-0.38208	
-0.383667	
-0.382263	
-0.381775	
-0.381348	
-0.38208	
-0.383301	
-0.38269	
-0.382263	
-0.380798	
-0.382263	
-0.383118	
-0.381836	
-0.381531	
-0.381104	
-0.382141	
-0.38324	
-0.382751	
-0.382019	
-0.381531	
-0.382568	
-0.383545	
-0.382568	
-0.381165	
-0.380615	
-0.38208	
-0.382874	
-0.383057	
-0.382568	
-0.381714	
-0.382751	
-0.38324	
-0.381897	
-0.381165	
-0.38147	
-0.382751	
-0.383789	
-0.382874	
-0.382507	
-0.381592	
-0.382629	
-0.382996	
-0.382324	
-0.381958	
-0.382141	
-0.382263	
-0.383606	
-0.38208	
-0.382813	
-0.381287	
-0.382324	
-0.382568	
-0.382446	
-0.382202	
-0.382446	
-0.382507	
-0.383057	
-0.38269	
-0.383057	
-0.381958	
-0.383179	
-0.383179	
-0.383179	
-0.382446	
-0.382446	
-0.38324	
-0.382996	
-0.383606	
-0.383179	
-0.383667	
-0.38324	
-0.383789	
-0.383911	
-0.382751	
-0.382813	
-0.383606	
-0.383301	
-0.383789	
-0.384033	
-0.383362	
-0.383362	
-0.383179	
-0.383667	
-0.382935	
-0.383362	
-0.382874	
-0.383972	
-0.383118	
-0.384094	
-0.382996	
-0.38385	
-0.383545	
-0.385498	
-0.383606	
-0.383545	
-0.383057	
-0.384583	
-0.384949	
-0.385315	
-0.384705	
-0.384644	
-0.384338	
-0.385437	
-0.384094	
-0.382996	
-0.382385	
-0.383179	
-0.384277	
-0.383606	
-0.382629	
-0.381348	
-0.383301	
-0.383789	
-0.38269	
-0.381348	
-0.381714	
-0.382813	
-0.383789	
-0.382813	
-0.382568	
-0.38147	
-0.382629	
-0.382996	
-0.382263	
-0.381592	
-0.381592	
-0.382141	
-0.382629	
-0.382813	
-0.382019	
-0.382629	
-0.382385	
-0.38385	
-0.382019	
-0.382446	
-0.381653	
-0.38269	
-0.382935	
-0.38208	
-0.381836	
-0.382141	
-0.382629	
-0.382874	
-0.382019	
-0.38208	
-0.381836	
-0.381897	
-0.382446	
-0.382446	
-0.383362	
-0.381653	
-0.382996	
-0.383118	
-0.383789	
-0.382568	
-0.382507	
-0.383118	
-0.383606	
-0.383606	
-0.383545	
-0.383545	
-0.365967	
-0.364624	
-0.367065	
-0.366577	
-0.36676	
-0.366638	
-0.390442	
-0.388184	
-0.384827	
-0.38446	
-0.383118	
-0.385376	
-0.383545	
-0.383423	
-0.382019	
-0.383362	
-0.383972	
-0.384827	
-0.383789	
-0.383667	
-0.382324	
-0.384766	
-0.383789	
-0.383728	
-0.382324	
-0.383484	
-0.384155	
-0.384644	
-0.384705	
-0.384399	
-0.383545	
-0.38501	
-0.385315	
-0.384644	
-0.383789	
-0.384521	
-0.385132	
-0.386108	
-0.386475	
-0.385132	
-0.383911	
-0.385315	
-0.386353	
-0.384644	
-0.384521	
-0.384094	
-0.385071	
-0.386169	
-0.386292	
-0.386047	
-0.386292	
-0.388062	
-0.390137	
-0.39209	
-0.393738	
-0.396667	
-0.400757	
-0.405701	
-0.409302	
-0.412842	
-0.415466	
-0.421448	
-0.425659	
-0.430176	
-0.434387	
-0.44281	
-0.449036	
-0.454956	
-0.459534	
-0.4646	
-0.468811	
-0.473083	
-0.474609	
-0.475464	
-0.476318	
-0.478149	
-0.480286	
-0.480286	
-0.481079	
-0.480713	
-0.461975	
-0.46167	
-0.462891	
-0.462158	
-0.460999	
-0.460388	
-0.483398	
-0.478821	
-0.47522	
-0.473633	
-0.473267	
-0.474243	
-0.4729	
-0.473022	
-0.472778	
-0.474121	
-0.474548	
-0.475769	
-0.476257	
-0.477539	
-0.479858	
-0.482666	
-0.482727	
-0.484436	
-0.48584	
-0.486816	
-0.487244	
-0.488647	
-0.487915	
-0.487427	
-0.487854	
-0.488464	
-0.488281	
-0.487244	
-0.487488	
-0.488037	
-0.488525	
-0.488403	
-0.488098	
-0.488037	
-0.48822	
-0.488464	
-0.488159	
-0.486816	
-0.486267	
-0.486145	
-0.486389	
-0.485962	
-0.484619	
-0.483704	
-0.483032	
-0.482605	
-0.480225	
-0.477783	
-0.475159	
-0.473755	
-0.471558	
-0.469421	
-0.465393	
-0.462219	
-0.458313	
-0.456177	
-0.450806	
-0.44635	
-0.440369	
-0.436462	
-0.431458	
-0.427368	
-0.420776	
-0.414185	
-0.406677	
-0.402527	
-0.393616	
-0.384827	
-0.375671	
-0.368347	
-0.36084	
-0.352417	
-0.34491	
-0.336975	
-0.330627	
-0.325439	
-0.32074	
-0.316101	
-0.312134	
-0.310913	
-0.309204	
-0.309937	
-0.309265	
-0.307495	
-0.306702	
-0.308533	
-0.309021	
-0.310486	
-0.310669	
-0.313416	
-0.314941	
-0.319214	
-0.320801	
-0.32428	
-0.325623	
-0.332336	
-0.334351	
-0.338257	
-0.340576	
-0.346191	
-0.349915	
-0.35437	
-0.357056	
-0.36084	
-0.36499	
-0.368408	
-0.371765	
-0.374268	
-0.379944	
-0.38269	
-0.386841	
-0.390808	
-0.394653	
-0.397339	
-0.401428	
-0.404724	
-0.40741	
-0.410034	
-0.413452	
-0.415833	
-0.418274	
-0.419556	
-0.420898	
-0.421143	
-0.42334	
-0.42511	
-0.426331	
-0.42749	
-0.428345	
-0.430359	
-0.431641	
-0.433044	
-0.432556	
-0.432434	
-0.433044	
-0.433411	
-0.432983	
-0.432556	
-0.432373	
-0.431152	
-0.429749	
-0.427612	
-0.423096	
-0.418884	
-0.414368	
-0.409973	
-0.404541	
-0.398071	
-0.392334	
-0.385193	
-0.378418	
-0.369812	
-0.360901	
-0.351685	
-0.34314	
-0.333313	
-0.323608	
-0.312561	
-0.304138	
-0.294617	
-0.287292	
-0.280518	
-0.273621	
-0.268127	
-0.264282	
-0.25946	
-0.255432	
-0.251648	
-0.249329	
-0.247375	
-0.245056	
-0.244141	
-0.241394	
-0.241333	
-0.240662	
-0.241821	
-0.241882	
-0.243591	
-0.246033	
-0.248535	
-0.251709	
-0.254761	
-0.257629	
-0.260925	
-0.266357	
-0.268738	
-0.271545	
-0.275452	
-0.280823	
-0.284912	
-0.289246	
-0.291382	
-0.295532	
-0.29895	
-0.303101	
-0.304993	
-0.308472	
-0.311279	
-0.314697	
-0.31781	
-0.32074	
-0.321899	
-0.323975	
-0.327148	
-0.328552	
-0.329956	
-0.331299	
-0.33374	
-0.335754	
-0.337891	
-0.339417	
-0.341797	
-0.342957	
-0.345093	
-0.344482	
-0.345825	
-0.346375	
-0.34845	
-0.349365	
-0.350769	
-0.351624	
-0.352356	
-0.352417	
-0.353455	
-0.353516	
-0.355042	
-0.355225	
-0.355957	
-0.356567	
-0.357605	
-0.357849	
-0.357666	
-0.359375	
-0.359314	
-0.359314	
-0.358704	
-0.360413	
-0.360474	
-0.362061	
-0.360596	
-0.360718	
-0.360229	
-0.362854	
-0.361145	
-0.36084	
-0.360291	
-0.361755	
-0.361694	
-0.362366	
-0.361511	
-0.362183	
-0.361877	
-0.36322	
-0.362	
-0.361084	
-0.360535	
-0.361877	
-0.363281	
-0.363037	
-0.364075	
-0.36261	
-0.364319	
-0.364502	
-0.36377	
-0.362305	
-0.362427	
-0.363708	
-0.364258	
-0.364319	
-0.363953	
-0.362976	
-0.364624	
-0.36499	
-0.363953	
-0.36377	
-0.363464	
-0.364929	
-0.366089	
-0.364624	
-0.364441	
-0.363647	
-0.366272	
-0.365906	
-0.365173	
-0.364563	
-0.365051	
-0.365906	
-0.366028	
-0.365845	
-0.365295	
-0.366455	
-0.366394	
-0.365845	
-0.365845	
-0.366638	
-0.366638	
-0.367737	
-0.367126	
-0.36615	
-0.365723	
-0.36731	
-0.367004	
-0.367004	
-0.366577	
-0.366882	
-0.368042	
-0.367554	
-0.367065	
-0.367188	
-0.368347	
-0.368713	
-0.36908	
-0.367859	
-0.367981	
-0.368896	
-0.369385	
-0.369263	
-0.368469	
-0.369446	
-0.370178	
-0.370056	
-0.369568	
-0.369263	
-0.369629	
-0.370239	
-0.36969	
-0.370422	
-0.369507	
-0.371338	
-0.371399	
-0.371887	
-0.371155	
-0.370728	
-0.370972	
-0.373108	
-0.372375	
-0.372681	
-0.372498	
-0.373962	
-0.373596	
-0.373596	
-0.37323	
-0.373169	
-0.374268	
-0.374084	
-0.373901	
-0.372803	
-0.373779	
-0.373596	
-0.37384	
-0.373779	
-0.373596	
-0.373718	
-0.375061	
-0.374268	
-0.37384	
-0.373535	
-0.374634	
-0.374634	
-0.373657	
-0.373596	
-0.373291	
-0.373779	
-0.374207	
-0.374084	
-0.37384	
-0.373413	
-0.37439	
-0.375183	
-0.375122	
-0.372864	
-0.37323	
-0.373535	
-0.375244	
-0.374634	
-0.374023	
-0.37384	
-0.375916	
-0.37439	
-0.37561	
-0.374023	
-0.374939	
-0.374329	
-0.375793	
-0.374512	
-0.374756	
-0.374512	
-0.376343	
-0.375061	
-0.375916	
-0.375183	
-0.375671	
-0.37677	
-0.376587	
-0.376221	
-0.37561	
-0.376221	
-0.377991	
-0.37793	
-0.377136	
-0.376648	
-0.377319	
-0.379395	
-0.378052	
-0.378052	
-0.376465	
-0.377747	
-0.379395	
-0.378723	
-0.378601	
-0.377441	
-0.378418	
-0.379517	
-0.37854	
-0.378845	
-0.378174	
-0.378662	
-0.379883	
-0.379639	
-0.379333	
-0.377686	
-0.378479	
-0.378906	
-0.378845	
-0.378296	
-0.377747	
-0.378052	
-0.378296	
-0.377869	
-0.377808	
-0.377441	
-0.378479	
-0.378174	
-0.377625	
-0.37677	
-0.375671	
-0.377075	
-0.37677	
-0.377197	
-0.376404	
-0.377441	
-0.37677	
-0.377136	
-0.376282	
-0.375854	
-0.375793	
-0.377747	
-0.376709	
-0.376465	
-0.374512	
-0.37561	
-0.37793	
-0.377197	
-0.376587	
-0.376343	
-0.376953	
-0.378723	
-0.377625	
-0.37677	
-0.375793	
-0.37738	
-0.378418	
-0.377136	
-0.377625	
-0.376953	
-0.377991	
-0.37854	
-0.37793	
-0.377258	
-0.377686	
-0.379333	
-0.379761	
-0.379456	
-0.379333	
-0.378052	
-0.379761	
-0.379639	
-0.379578	
-0.380005	
-0.379517	
-0.380188	
-0.380554	
-0.379456	
-0.37854	
-0.378662	
-0.380432	
-0.380066	
-0.380249	
-0.380066	
-0.379517	
-0.380493	
-0.381226	
-0.379028	
-0.380005	
-0.379883	
-0.381165	
-0.381592	
-0.379761	
-0.379395	
-0.37854	
-0.380005	
-0.380859	
-0.380127	
-0.379883	
-0.379883	
-0.381592	
-0.380615	
-0.38031	
-0.379578	
-0.379028	
-0.382019	
-0.381165	
-0.381165	
-0.380554	
-0.380554	
-0.381836	
-0.382446	
-0.381897	
-0.380066	
-0.380554	
-0.382446	
-0.38208	
-0.381653	
-0.38092	
-0.380859	
-0.382019	
-0.381348	
-0.380798	
-0.380066	
-0.379822	
-0.380798	
-0.381592	
-0.380188	
-0.380249	
-0.38031	
-0.381287	
-0.380859	
-0.380127	
-0.379761	
-0.380066	
-0.381409	
-0.380981	
-0.380371	
-0.379211	
-0.380127	
-0.38031	
-0.380554	
-0.380432	
-0.38031	
-0.380432	
-0.382141	
-0.380615	
-0.380798	
-0.379517	
-0.382446	
-0.381104	
-0.381165	
-0.38031	
-0.380676	
-0.381897	
-0.381775	
-0.38147	
-0.381042	
-0.380859	
-0.382629	
-0.38147	
-0.381653	
-0.380859	
-0.38208	
-0.382141	
-0.383423	
-0.382935	
-0.38324	
-0.381897	
-0.382568	
-0.384216	
-0.38269	
-0.382263	
-0.381836	
-0.383606	
-0.385132	
-0.382813	
-0.383362	
-0.382629	
-0.383301	
-0.384888	
-0.382263	
-0.383789	
-0.381165	
-0.383911	
-0.383911	
-0.384094	
-0.383179	
-0.383118	
-0.38269	
-0.38385	
-0.383301	
-0.38324	
-0.382141	
-0.384033	
-0.383545	
-0.38501	
-0.38385	
-0.384216	
-0.384094	
-0.385559	
-0.383728	
-0.383118	
-0.384949	
-0.385437	
-0.384338	
-0.384583	
-0.384399	
-0.386292	
-0.384399	
-0.385986	
-0.383545	
-0.38446	
-0.38562	
-0.385376	
-0.387207	
-0.385071	
-0.386353	
-0.386475	
-0.386169	
-0.387146	
-0.384521	
-0.386414	
-0.385132	
-0.386353	
-0.385864	
-0.384705	
-0.384521	
-0.384949	
-0.385864	
-0.385925	
-0.38562	
-0.384766	
-0.384644	
-0.385132	
-0.384338	
-0.384216	
-0.383484	
-0.384399	
-0.384521	
-0.38446	
-0.384583	
-0.384033	
-0.384094	
-0.385498	
-0.384583	
-0.384521	
-0.383667	
-0.384888	
-0.384521	
-0.384705	
-0.384827	
-0.384583	
-0.385376	
-0.387634	
-0.386108	
-0.385742	
-0.384216	
-0.384338	
-0.384644	
-0.384094	
-0.384644	
-0.383728	
-0.383545	
-0.385071	
-0.384277	
-0.38324	
-0.38269	
-0.383179	
-0.383911	
-0.384094	
-0.383606	
-0.382813	
-0.383789	
-0.383789	
-0.383423	
-0.383789	
-0.383179	
-0.384155	
-0.38385	
-0.383728	
-0.383362	
-0.382996	
-0.381775	
-0.38385	
-0.384216	
-0.383789	
-0.383606	
-0.383667	
-0.384338	
-0.384766	
-0.384155	
-0.384094	
-0.383484	
-0.386475	
-0.38501	
-0.385315	
-0.38562	
-0.385132	
-0.385803	
-0.385803	
-0.386169	
-0.384521	
-0.384705	
-0.386536	
-0.386169	
-0.385864	
-0.386475	
-0.386047	
-0.387268	
-0.385864	
-0.387573	
-0.386047	
-0.387817	
-0.387512	
-0.387634	
-0.386536	
-0.387146	
-0.387268	
-0.38739	
-0.385498	
-0.386536	
-0.384888	
-0.38678	
-0.387024	
-0.386292	
-0.385437	
-0.385742	
-0.38623	
-0.386597	
-0.385376	
-0.385986	
-0.385132	
-0.385803	
-0.385925	
-0.38623	
-0.386597	
-0.386719	
-0.386414	
-0.387207	
-0.385681	
-0.385681	
-0.385925	
-0.385864	
-0.385986	
-0.38623	
-0.385559	
-0.385437	
-0.385315	
-0.386169	
-0.385376	
-0.386353	
-0.386047	
-0.386475	
-0.385803	
-0.386414	
-0.38562	
-0.38623	
-0.385681	
-0.38623	
-0.38623	
-0.385437	
-0.38562	
-0.38562	
-0.38623	
-0.386047	
-0.386353	
-0.386292	
-0.38562	
-0.386658	
-0.386292	
-0.386719	
-0.387024	
-0.386353	
-0.385803	
-0.385681	
-0.385132	
-0.384705	
-0.38501	
-0.386841	
-0.385193	
-0.386292	
-0.38562	
-0.385803	
-0.384644	
-0.386719	
-0.386658	
-0.385071	
-0.384216	
-0.385864	
-0.385681	
-0.386169	
-0.386047	
-0.386169	
-0.385925	
-0.387268	
-0.385437	
-0.385925	
-0.385193	
-0.387146	
-0.386475	
-0.385742	
-0.385986	
-0.38446	
-0.385986	
-0.386169	
-0.386108	
-0.385071	
-0.384399	
-0.385559	
-0.384827	
-0.384583	
-0.385742	
-0.385315	
-0.385559	
-0.386841	
-0.385681	
-0.384583	
-0.383423	
-0.384827	
-0.38385	
-0.385193	
-0.38446	
-0.385132	
-0.385193	
-0.386047	
-0.385132	
-0.384277	
-0.383667	
-0.384338	
-0.384949	
-0.38446	
-0.384338	
-0.384949	
-0.384583	
-0.386414	
-0.385437	
-0.384705	
-0.382751	
-0.383972	
-0.384705	
-0.384155	
-0.383728	
-0.384094	
-0.384766	
-0.385742	
-0.384949	
-0.384277	
-0.383606	
-0.384216	
-0.383972	
-0.384216	
-0.384277	
-0.384766	
-0.385498	
-0.387634	
-0.38623	
-0.384888	
-0.383667	
-0.38446	
-0.386108	
-0.385986	
-0.385071	
-0.386353	
-0.386292	
-0.387634	
-0.386902	
-0.385925	
-0.385132	
-0.385315	
-0.386841	
-0.386047	
-0.385986	
-0.385376	
-0.386475	
-0.388062	
-0.38678	
-0.385559	
-0.384033	
-0.386169	
-0.386108	
-0.386719	
-0.385925	
-0.38623	
-0.38623	
-0.387756	
-0.387329	
-0.386108	
-0.384338	
-0.386292	
-0.38678	
-0.386902	
-0.386169	
-0.386292	
-0.386169	
-0.388062	
-0.387573	
-0.38562	
-0.384521	
-0.384888	
-0.385864	
-0.384827	
-0.385071	
-0.385132	
-0.384949	
-0.386292	
-0.385376	
-0.384277	
-0.38385	
-0.384033	
-0.384521	
-0.383789	
-0.38446	
-0.384277	
-0.384583	
-0.385315	
-0.385132	
-0.384399	
-0.383789	
-0.383789	
-0.38501	
-0.385132	
-0.385559	
-0.385193	
-0.386047	
-0.385986	
-0.38678	
-0.384888	
-0.38501	
-0.384705	
-0.384583	
-0.384399	
-0.385071	
-0.38623	
-0.384827	
-0.384033	
-0.38501	
-0.38324	
-0.383362	
-0.383179	
-0.384399	
-0.383118	
-0.384521	
-0.384216	
-0.384949	
-0.386169	
-0.384705	
-0.385559	
-0.384277	
-0.384521	
-0.384094	
-0.385437	
-0.384583	
-0.384644	
-0.384521	
-0.386108	
-0.385315	
-0.386414	
-0.385498	
-0.38562	
-0.386169	
-0.385742	
-0.384399	
-0.384949	
-0.383484	
-0.383911	
-0.385071	
-0.383118	
-0.383667	
-0.383911	
-0.384888	
-0.38446	
-0.384521	
-0.383667	
-0.384033	
-0.385132	
-0.385315	
-0.385437	
-0.384644	
-0.38385	
-0.385132	
-0.38324	
-0.383545	
-0.38385	
-0.384949	
-0.384644	
-0.384155	
-0.382446	
-0.381653	
-0.38324	
-0.383667	
-0.384277	
-0.38501	
-0.384827	
-0.385315	
-0.38562	
-0.385254	
-0.384399	
-0.38446	
-0.383362	
-0.383789	
-0.384033	
-0.384338	
-0.38446	
-0.385376	
-0.385864	
-0.38562	
-0.384155	
-0.38446	
-0.383789	
-0.385132	
-0.385193	
-0.384705	
-0.385071	
-0.384705	
-0.386536	
-0.384949	
-0.383972	
-0.384094	
-0.383606	
-0.384827	
-0.383301	
-0.383728	
-0.382996	
-0.383606	
-0.384216	
-0.383972	
-0.382568	
-0.38092	
-0.381653	
-0.382141	
-0.381836	
-0.38208	
-0.382141	
-0.382202	
-0.382263	
-0.382507	
-0.38208	
-0.38092	
-0.380615	
-0.381775	
-0.38092	
-0.381226	
-0.381409	
-0.38208	
-0.382813	
-0.382141	
-0.381165	
-0.381042	
-0.380188	
-0.381226	
-0.380981	
-0.381042	
-0.381348	
-0.382141	
-0.382629	
-0.382202	
-0.381592	
-0.38208	
-0.380981	
-0.381714	
-0.381714	
-0.381958	
-0.382568	
-0.382507	
-0.38269	
-0.383301	
-0.382446	
-0.382385	
-0.38147	
-0.382385	
-0.382507	
-0.382629	
-0.38269	
-0.383118	
-0.383606	
-0.383606	
-0.382568	
-0.38324	
-0.381775	
-0.383423	
-0.382568	
-0.38269	
-0.382385	
-0.382813	
-0.38385	
-0.383118	
-0.382019	
-0.382446	
-0.381653	
-0.382751	
-0.38208	
-0.382629	
-0.382507	
-0.382507	
-0.383606	
-0.383301	
-0.382874	
-0.382385	
-0.38269	
-0.382568	
-0.382324	
-0.382263	
-0.382813	
-0.382874	
-0.383301	
-0.383179	
-0.38269	
-0.38208	
-0.382324	
-0.382629	
-0.383057	
-0.382324	
-0.382568	
-0.382751	
-0.383545	
-0.383484	
-0.382751	
-0.382813	
-0.382446	
-0.383179	
-0.382813	
-0.382568	
-0.382874	
-0.38324	
-0.383728	
-0.382568	
-0.382507	
-0.382507	
-0.383118	
-0.383362	
-0.382507	
-0.38269	
-0.382568	
-0.382324	
-0.383789	
-0.383301	
-0.382874	
-0.382202	
-0.383423	
-0.383484	
-0.382874	
-0.382874	
-0.382507	
-0.383179	
-0.384888	
-0.384277	
-0.383545	
-0.382935	
-0.383911	
-0.383911	
-0.383118	
-0.383301	
-0.382874	
-0.383667	
-0.384705	
-0.384338	
-0.383545	
-0.382202	
-0.383423	
-0.384277	
-0.383667	
-0.384399	
-0.382629	
-0.384216	
-0.384949	
-0.384338	
-0.383301	
-0.382751	
-0.38446	
-0.384583	
-0.384033	
-0.383911	
-0.382935	
-0.384583	
-0.385132	
-0.385315	
-0.384644	
-0.383789	
-0.385437	
-0.385559	
-0.385193	
-0.384033	
-0.383972	
-0.384155	
-0.385376	
-0.384338	
-0.384338	
-0.38269	
-0.383484	
-0.383911	
-0.383179	
-0.382324	
-0.382751	
-0.382813	
-0.383728	
-0.38324	
-0.382629	
-0.38208	
-0.382935	
-0.383667	
-0.382263	
-0.382874	
-0.382202	
-0.383057	
-0.383179	
-0.383179	
-0.38269	
-0.382507	
-0.383057	
-0.38324	
-0.382813	
-0.382568	
-0.382629	
-0.383362	
-0.38324	
-0.383423	
-0.383179	
-0.381958	
-0.383545	
-0.383057	
-0.382629	
-0.381226	
-0.382935	
-0.382813	
-0.383301	
-0.382996	
-0.382568	
-0.382202	
-0.383484	
-0.38324	
-0.382874	
-0.382263	
-0.383057	
-0.383179	
-0.384583	
-0.384338	
-0.383301	
-0.383118	
-0.384216	
-0.384705	
-0.38446	
-0.383362	
-0.384338	
-0.384827	
-0.385315	
-0.384949	
-0.384338	
-0.384338	
-0.384766	
-0.384888	
-0.384338	
-0.383484	
-0.384155	
-0.384216	
-0.384827	
-0.384949	
-0.384216	
-0.383728	
-0.384338	
-0.38446	
-0.383972	
-0.383606	
-0.384338	
-0.38446	
-0.385315	
-0.385498	
-0.384644	
-0.383728	
-0.384827	
-0.384644	
-0.384705	
-0.383789	
-0.384888	
-0.384827	
-0.385559	
-0.386536	
-0.385193	
-0.384949	
-0.385071	
-0.385742	
-0.385559	
-0.384644	
-0.385132	
-0.385803	
-0.386292	
-0.387695	
-0.386292	
-0.385925	
-0.385254	
-0.386292	
-0.386047	
-0.385437	
-0.386658	
-0.386353	
-0.386108	
-0.387573	
-0.38623	
-0.385559	
-0.384949	
-0.386658	
-0.385986	
-0.385986	
-0.386414	
-0.385925	
-0.38678	
-0.388184	
-0.386719	
-0.386047	
-0.384949	
-0.38678	
-0.386719	
-0.386475	
-0.386658	
-0.386963	
-0.387268	
-0.388245	
-0.386841	
-0.386475	
-0.385498	
-0.386658	
-0.386902	
-0.386353	
-0.38623	
-0.386414	
-0.38623	
-0.387817	
-0.386108	
-0.385254	
-0.383789	
-0.385864	
-0.385559	
-0.385376	
-0.384949	
-0.385559	
-0.385315	
-0.386902	
-0.384827	
-0.384766	
-0.383057	
-0.385376	
-0.385437	
-0.384827	
-0.384949	
-0.385681	
-0.384949	
-0.386108	
-0.384827	
-0.384705	
-0.383484	
-0.385986	
-0.385681	
-0.385254	
-0.38501	
-0.385071	
-0.385864	
-0.387573	
-0.385498	
-0.385986	
-0.383911	
-0.387085	
-0.386963	
-0.386475	
-0.385559	
-0.38562	
-0.387085	
-0.388611	
-0.385986	
-0.386719	
-0.384888	
-0.387573	
-0.387024	
-0.386658	
-0.385925	
-0.386414	
-0.387451	
-0.389526	
-0.387573	
-0.387329	
-0.385315	
-0.388489	
-0.387695	
-0.387878	
-0.386475	
-0.386902	
-0.387634	
-0.389771	
-0.388489	
-0.387207	
-0.384705	
-0.387634	
-0.387939	
-0.386536	
-0.385681	
-0.385986	
-0.387512	
-0.388611	
-0.387085	
-0.386658	
-0.385193	
-0.386719	
-0.387695	
-0.386902	
-0.385925	
-0.386597	
-0.386414	
-0.388977	
-0.387512	
-0.387695	
-0.384583	
-0.387207	
-0.387512	
-0.387573	
-0.386108	
-0.385864	
-0.386963	
-0.388245	
-0.388367	
-0.38739	
-0.384644	
-0.386841	
-0.38855	
-0.388611	
-0.387146	
-0.387939	
-0.389465	
-0.391724	
-0.389526	
-0.388	
-0.387573	
-0.389404	
-0.391907	
-0.390442	
-0.387817	
-0.387451	
-0.388672	
-0.390442	
-0.389221	
-0.388855	
-0.387024	
-0.387329	
-0.38916	
-0.388306	
-0.388367	
-0.388489	
-0.388672	
-0.389771	
-0.388489	
-0.388855	
-0.38678	
-0.388794	
-0.389282	
-0.388123	
-0.388428	
-0.388611	
-0.388916	
-0.389038	
-0.388489	
-0.387207	
-0.386047	
-0.388062	
-0.388672	
-0.388123	
-0.386719	
-0.386902	
-0.386536	
-0.388	
-0.387024	
-0.386963	
-0.386169	
-0.387207	
-0.388062	
-0.385803	
-0.38678	
-0.384705	
-0.386536	
-0.387756	
-0.386353	
-0.386719	
-0.386475	
-0.386353	
-0.387024	
-0.385437	
-0.386292	
-0.384521	
-0.386414	
-0.387756	
-0.386841	
-0.386597	
-0.384888	
-0.386353	
-0.385376	
-0.386353	
-0.385071	
-0.385864	
-0.386169	
-0.387573	
-0.385681	
-0.385986	
-0.38385	
-0.385681	
-0.387024	
-0.386597	
-0.384766	
-0.385132	
-0.384277	
-0.385559	
-0.384827	
-0.385071	
-0.383728	
-0.384399	
-0.385742	
-0.384583	
-0.385498	
-0.384399	
-0.384705	
-0.385986	
-0.385254	
-0.38562	
-0.384521	
-0.386108	
-0.385437	
-0.385254	
-0.385925	
-0.384705	
-0.387207	
-0.387695	
-0.38623	
-0.387146	
-0.385193	
-0.387634	
-0.386536	
-0.387329	
-0.385925	
-0.384888	
-0.385742	
-0.386597	
-0.385925	
-0.386597	
-0.386353	
-0.387268	
-0.387451	
-0.385864	
-0.385071	
-0.38385	
-0.385559	
-0.385803	
-0.384949	
-0.38562	
-0.384644	
-0.385559	
-0.386414	
-0.385315	
-0.385071	
-0.38385	
-0.385742	
-0.386169	
-0.385376	
-0.385132	
-0.385376	
-0.385498	
-0.38623	
-0.385742	
-0.385254	
-0.384521	
-0.385498	
-0.385742	
-0.386108	
-0.385986	
-0.385132	
-0.386108	
-0.385742	
-0.386353	
-0.384277	
-0.38446	
-0.384155	
-0.386047	
-0.384766	
-0.384094	
-0.383728	
-0.38446	
-0.384644	
-0.384094	
-0.383423	
-0.383789	
-0.383423	
-0.385742	
-0.384766	
-0.385986	
-0.384033	
-0.384583	
-0.383789	
-0.385803	
-0.383911	
-0.38501	
-0.383606	
-0.384827	
-0.38501	
-0.385376	
-0.384583	
-0.385071	
-0.384766	
-0.384766	
-0.383484	
-0.383972	
-0.385254	
-0.383911	
-0.385376	
-0.383362	
-0.385498	
-0.383606	
-0.384888	
-0.382996	
-0.383911	
-0.382568	
-0.383179	
-0.383484	
-0.38446	
-0.382996	
-0.383972	
-0.382568	
-0.383057	
-0.381836	
-0.383728	
-0.382507	
-0.382629	
-0.384033	
-0.383789	
-0.383606	
-0.383362	
-0.382263	
-0.382507	
-0.383057	
-0.382568	
-0.382568	
-0.382446	
-0.383606	
-0.383667	
-0.382935	
-0.38269	
-0.381714	
-0.382446	
-0.382446	
-0.38208	
-0.381714	
-0.381592	
-0.38208	
-0.383362	
-0.382141	
-0.382568	
-0.380493	
-0.382813	
-0.382874	
-0.382874	
-0.382019	
-0.382446	
-0.382263	
-0.384766	
-0.382629	
-0.382935	
-0.38208	
-0.383667	
-0.383789	
-0.383972	
-0.382935	
-0.384277	
-0.38446	
-0.385742	
-0.384521	
-0.384521	
-0.383606	
-0.384827	
-0.385742	
-0.384277	
-0.384094	
-0.382385	
-0.383728	
-0.384521	
-0.383423	
-0.383972	
-0.383606	
-0.383911	
-0.385559	
-0.383301	
-0.383362	
-0.381287	
-0.383606	
-0.383789	
-0.383545	
-0.383423	
-0.381897	
-0.383972	
-0.383179	
-0.382935	
-0.382446	
-0.382568	
-0.382446	
-0.383179	
-0.38208	
-0.382568	
-0.380737	
-0.383545	
-0.382751	
-0.381775	
-0.38092	
-0.380615	
-0.380981	
-0.382813	
-0.38208	
-0.380615	
-0.38092	
-0.380615	
	
