C:\DOCUMENTS AND SETTINGS\JASON\DESKTOP\UFRJ\UFRJ EPHYS\RSCI-BM 12 WK SERIES\070806-RSCI-BM-16\RSCI-BM-16-LEMG\070806-RSCI-BM-16-LEMG-0008.ACQ
0.025000 msec/sample
1 channel
Analog input
Volts
CH1	
2000	
-0.384216	
-0.384216	
-0.384827	
-0.383972	
-0.383606	
-0.381165	
-0.381775	
-0.383057	
-0.383911	
-0.382813	
-0.382568	
-0.382263	
-0.383789	
-0.383118	
-0.382507	
-0.382019	
-0.382751	
-0.382751	
-0.383301	
-0.382935	
-0.382935	
-0.382996	
-0.38385	
-0.383667	
-0.383362	
-0.383545	
-0.383118	
-0.382874	
-0.383484	
-0.38324	
-0.383423	
-0.383057	
-0.38385	
-0.38385	
-0.383606	
-0.384399	
-0.38208	
-0.383545	
-0.382813	
-0.383545	
-0.383362	
-0.383728	
-0.383301	
-0.383911	
-0.384155	
-0.383118	
-0.382568	
-0.382935	
-0.383362	
-0.384949	
-0.383667	
-0.383545	
-0.382996	
-0.384399	
-0.383728	
-0.383362	
-0.382935	
-0.382935	
-0.382935	
-0.383545	
-0.382202	
-0.383423	
-0.381958	
-0.38324	
-0.382751	
-0.382629	
-0.382507	
-0.38208	
-0.382202	
-0.382446	
-0.382935	
-0.382874	
-0.382813	
-0.383667	
-0.383179	
-0.383606	
-0.382385	
-0.382324	
-0.382935	
-0.38208	
-0.383667	
-0.383728	
-0.383972	
-0.384644	
-0.384888	
-0.384766	
-0.384033	
-0.38324	
-0.383606	
-0.383789	
-0.385071	
-0.384094	
-0.384338	
-0.384521	
-0.385864	
-0.384644	
-0.384277	
-0.384644	
-0.384277	
-0.384338	
-0.385071	
-0.38446	
-0.383911	
-0.383606	
-0.385132	
-0.384338	
-0.384155	
-0.384766	
-0.384094	
-0.383911	
-0.384827	
-0.384399	
-0.384705	
-0.384277	
-0.384338	
-0.38385	
-0.38446	
-0.384338	
-0.384155	
-0.383789	
-0.384033	
-0.384216	
-0.384216	
-0.383667	
-0.384033	
-0.38385	
-0.38385	
-0.383728	
-0.383606	
-0.383362	
-0.382385	
-0.38385	
-0.383179	
-0.382813	
-0.383118	
-0.383728	
-0.383179	
-0.382629	
-0.381653	
-0.381714	
-0.382385	
-0.383179	
-0.382935	
-0.382935	
-0.382446	
-0.383484	
-0.382813	
-0.38208	
-0.382996	
-0.382019	
-0.382568	
-0.382996	
-0.382874	
-0.382324	
-0.382996	
-0.382751	
-0.382935	
-0.381897	
-0.381897	
-0.381653	
-0.381287	
-0.381409	
-0.381592	
-0.381104	
-0.38092	
-0.380615	
-0.381592	
-0.380737	
-0.380493	
-0.380066	
-0.380188	
-0.380859	
-0.380127	
-0.380798	
-0.380737	
-0.381104	
-0.381653	
-0.381104	
-0.380615	
-0.380249	
-0.380432	
-0.38092	
-0.381287	
-0.380859	
-0.380859	
-0.381592	
-0.380981	
-0.381836	
-0.381653	
-0.381104	
-0.379883	
-0.38031	
-0.382324	
-0.381714	
-0.381958	
-0.381409	
-0.382141	
-0.360657	
-0.359558	
-0.363464	
-0.363159	
-0.364258	
-0.365601	
-0.393433	
-0.388	
-0.385437	
-0.384033	
-0.385498	
-0.383423	
-0.384155	
-0.382996	
-0.38446	
-0.384155	
-0.385559	
-0.384766	
-0.386047	
-0.383911	
-0.386902	
-0.384949	
-0.384766	
-0.383484	
-0.384644	
-0.384399	
-0.385376	
-0.385254	
-0.385193	
-0.384277	
-0.385376	
-0.385315	
-0.384766	
-0.384277	
-0.384033	
-0.384949	
-0.384949	
-0.385742	
-0.384827	
-0.385315	
-0.360168	
-0.363281	
-0.365356	
-0.365967	
-0.366028	
-0.366882	
-0.396301	
-0.389221	
-0.385864	
-0.385803	
-0.385803	
-0.387573	
-0.388	
-0.390198	
-0.391357	
-0.394958	
-0.398804	
-0.401978	
-0.405823	
-0.409607	
-0.414124	
-0.417847	
-0.421326	
-0.424927	
-0.431763	
-0.437988	
-0.444458	
-0.449463	
-0.455322	
-0.459229	
-0.465149	
-0.466492	
-0.469238	
-0.469238	
-0.471252	
-0.471802	
-0.472168	
-0.473572	
-0.473816	
-0.474243	
-0.474548	
-0.473328	
-0.472778	
-0.471802	
-0.471008	
-0.47052	
-0.469604	
-0.46875	
-0.466431	
-0.465637	
-0.465332	
-0.463989	
-0.46283	
-0.46228	
-0.46228	
-0.462708	
-0.462891	
-0.462891	
-0.462463	
-0.462769	
-0.46405	
-0.465637	
-0.466919	
-0.467896	
-0.469421	
-0.471069	
-0.472229	
-0.472595	
-0.47229	
-0.471741	
-0.472229	
-0.47345	
-0.473145	
-0.473145	
-0.472412	
-0.473694	
-0.474121	
-0.474365	
-0.474365	
-0.475159	
-0.474121	
-0.476685	
-0.475342	
-0.475769	
-0.474487	
-0.476501	
-0.476868	
-0.479065	
-0.478271	
-0.47876	
-0.477539	
-0.479797	
-0.47644	
-0.476013	
-0.472351	
-0.472107	
-0.469238	
-0.467041	
-0.462769	
-0.459229	
-0.453674	
-0.451599	
-0.444763	
-0.440735	
-0.434814	
-0.429749	
-0.424133	
-0.417908	
-0.410706	
-0.404053	
-0.39563	
-0.388611	
-0.378845	
-0.369385	
-0.359192	
-0.35083	
-0.340454	
-0.330688	
-0.32019	
-0.310242	
-0.299927	
-0.291992	
-0.282471	
-0.275024	
-0.268066	
-0.262207	
-0.258667	
-0.255981	
-0.253357	
-0.252808	
-0.252014	
-0.25354	
-0.253113	
-0.255249	
-0.256958	
-0.260559	
-0.264099	
-0.268738	
-0.272339	
-0.276672	
-0.281067	
-0.286438	
-0.290222	
-0.294189	
-0.296753	
-0.302307	
-0.305847	
-0.310364	
-0.312988	
-0.315674	
-0.316589	
-0.321655	
-0.322876	
-0.324402	
-0.32605	
-0.329834	
-0.332703	
-0.3349	
-0.337769	
-0.341187	
-0.345337	
-0.349304	
-0.352051	
-0.355164	
-0.357239	
-0.361694	
-0.364014	
-0.366943	
-0.369568	
-0.371094	
-0.373962	
-0.374939	
-0.376099	
-0.376282	
-0.378418	
-0.378845	
-0.379944	
-0.379761	
-0.380676	
-0.379456	
-0.381409	
-0.378357	
-0.379761	
-0.378052	
-0.379333	
-0.37854	
-0.37915	
-0.376892	
-0.376892	
-0.374634	
-0.376099	
-0.372803	
-0.372986	
-0.370056	
-0.370667	
-0.368958	
-0.367859	
-0.364624	
-0.362915	
-0.359009	
-0.358582	
-0.353577	
-0.350708	
-0.347168	
-0.345093	
-0.342957	
-0.341797	
-0.340027	
-0.338928	
-0.336792	
-0.337952	
-0.336487	
-0.335693	
-0.334961	
-0.336304	
-0.337036	
-0.336304	
-0.33667	
-0.336243	
-0.336792	
-0.336426	
-0.335144	
-0.334045	
-0.333496	
-0.335205	
-0.335144	
-0.335022	
-0.335632	
-0.335632	
-0.337158	
-0.338379	
-0.338074	
-0.339355	
-0.338501	
-0.341125	
-0.34198	
-0.343262	
-0.344055	
-0.345703	
-0.346375	
-0.347473	
-0.34845	
-0.349426	
-0.35022	
-0.352417	
-0.35437	
-0.354431	
-0.35614	
-0.356323	
-0.358521	
-0.359192	
-0.359741	
-0.360291	
-0.360535	
-0.361755	
-0.363464	
-0.362671	
-0.363708	
-0.363403	
-0.363464	
-0.364136	
-0.363281	
-0.363342	
-0.362793	
-0.364746	
-0.363892	
-0.363708	
-0.363892	
-0.364075	
-0.362976	
-0.363403	
-0.361389	
-0.361755	
-0.360657	
-0.362549	
-0.361694	
-0.361084	
-0.36084	
-0.36084	
-0.360718	
-0.362183	
-0.360901	
-0.360474	
-0.360535	
-0.361572	
-0.361511	
-0.361023	
-0.362366	
-0.362488	
-0.363281	
-0.36322	
-0.363892	
-0.36377	
-0.364136	
-0.365112	
-0.365356	
-0.365662	
-0.365417	
-0.365417	
-0.365906	
-0.365662	
-0.36554	
-0.365356	
-0.365662	
-0.366211	
-0.365784	
-0.366272	
-0.366211	
-0.366455	
-0.366577	
-0.367615	
-0.366516	
-0.367004	
-0.367065	
-0.36731	
-0.367432	
-0.367981	
-0.367676	
-0.36792	
-0.368896	
-0.36969	
-0.368713	
-0.367615	
-0.367676	
-0.369507	
-0.369629	
-0.36969	
-0.37085	
-0.369446	
-0.371765	
-0.370605	
-0.370422	
-0.369507	
-0.370056	
-0.370972	
-0.372131	
-0.371521	
-0.372314	
-0.370056	
-0.372559	
-0.371643	
-0.371521	
-0.370911	
-0.370605	
-0.372375	
-0.373169	
-0.372742	
-0.372498	
-0.371948	
-0.373108	
-0.373352	
-0.372803	
-0.37262	
-0.371765	
-0.37323	
-0.373718	
-0.373718	
-0.373657	
-0.373535	
-0.374207	
-0.37561	
-0.374329	
-0.373962	
-0.373474	
-0.375305	
-0.375977	
-0.375061	
-0.375244	
-0.374512	
-0.375549	
-0.376892	
-0.376282	
-0.375244	
-0.374023	
-0.375549	
-0.377441	
-0.377136	
-0.377014	
-0.375061	
-0.376221	
-0.37793	
-0.376831	
-0.377197	
-0.377869	
-0.37793	
-0.379456	
-0.379761	
-0.379211	
-0.3797	
-0.378723	
-0.379578	
-0.379211	
-0.380249	
-0.379395	
-0.380615	
-0.380066	
-0.380676	
-0.379944	
-0.38092	
-0.379822	
-0.379517	
-0.378357	
-0.379211	
-0.379456	
-0.379639	
-0.379517	
-0.37915	
-0.378418	
-0.379028	
-0.379578	
-0.378174	
-0.378235	
-0.377747	
-0.37854	
-0.378235	
-0.379089	
-0.378357	
-0.378113	
-0.378601	
-0.379395	
-0.378662	
-0.377441	
-0.377258	
-0.378418	
-0.377563	
-0.378174	
-0.377136	
-0.377502	
-0.377625	
-0.377747	
-0.377625	
-0.376099	
-0.376831	
-0.376831	
-0.37738	
-0.377625	
-0.377258	
-0.376526	
-0.376648	
-0.377808	
-0.377014	
-0.375977	
-0.376953	
-0.37738	
-0.377747	
-0.37738	
-0.377258	
-0.377197	
-0.377197	
-0.379456	
-0.377686	
-0.37738	
-0.37677	
-0.378479	
-0.377747	
-0.378967	
-0.378479	
-0.378662	
-0.378174	
-0.379517	
-0.378418	
-0.37793	
-0.377197	
-0.378723	
-0.378967	
-0.379211	
-0.378845	
-0.378479	
-0.3797	
-0.380127	
-0.379272	
-0.378174	
-0.378296	
-0.379272	
-0.380493	
-0.380493	
-0.379883	
-0.379333	
-0.381226	
-0.380737	
-0.380493	
-0.379272	
-0.378418	
-0.380127	
-0.38031	
-0.379639	
-0.379822	
-0.379517	
-0.38031	
-0.381226	
-0.379211	
-0.379578	
-0.37854	
-0.379578	
-0.379517	
-0.380249	
-0.379089	
-0.379639	
-0.380127	
-0.380554	
-0.379822	
-0.379944	
-0.379456	
-0.380127	
-0.380066	
-0.379822	
-0.379883	
-0.380432	
-0.380188	
-0.381531	
-0.380188	
-0.380188	
-0.38092	
-0.380798	
-0.381714	
-0.381226	
-0.381165	
-0.380981	
-0.382019	
-0.381836	
-0.381836	
-0.381592	
-0.381409	
-0.381226	
-0.383606	
-0.382446	
-0.382141	
-0.380737	
-0.383057	
-0.38208	
-0.381287	
-0.381531	
-0.381531	
-0.381958	
-0.382813	
-0.38324	
-0.382385	
-0.381897	
-0.383057	
-0.382874	
-0.382019	
-0.382141	
-0.381836	
-0.382263	
-0.382324	
-0.38324	
-0.381531	
-0.382446	
-0.382324	
-0.38324	
-0.382202	
-0.381897	
-0.381836	
-0.382568	
-0.383484	
-0.382324	
-0.382935	
-0.381226	
-0.382813	
-0.382019	
-0.381714	
-0.381104	
-0.381714	
-0.381592	
-0.381775	
-0.381104	
-0.381592	
-0.38092	
-0.380981	
-0.380981	
-0.381165	
-0.380554	
-0.380371	
-0.380615	
-0.381226	
-0.381042	
-0.380798	
-0.380249	
-0.380859	
-0.381042	
-0.380737	
-0.379944	
-0.380371	
-0.380737	
-0.380859	
-0.38092	
-0.380432	
-0.380005	
-0.380371	
-0.379944	
-0.3797	
-0.378967	
-0.379333	
-0.379211	
-0.379395	
-0.3797	
-0.378723	
-0.378601	
-0.378723	
-0.37854	
-0.378906	
-0.37793	
-0.379028	
-0.378784	
-0.37915	
-0.379761	
-0.378723	
-0.378784	
-0.37915	
-0.379089	
-0.378845	
-0.377258	
-0.379028	
-0.379456	
-0.379944	
-0.380554	
-0.379517	
-0.380127	
-0.38031	
-0.380798	
-0.379639	
-0.378479	
-0.379883	
-0.380615	
-0.380554	
-0.381653	
-0.380615	
-0.380859	
-0.381104	
-0.381042	
-0.380493	
-0.379517	
-0.381348	
-0.382507	
-0.38269	
-0.382996	
-0.382751	
-0.381653	
-0.383301	
-0.382996	
-0.382568	
-0.380798	
-0.383606	
-0.38324	
-0.383606	
-0.384277	
-0.383484	
-0.383362	
-0.385193	
-0.384705	
-0.384521	
-0.382507	
-0.38562	
-0.384277	
-0.384094	
-0.384399	
-0.384033	
-0.384033	
-0.383545	
-0.384644	
-0.383606	
-0.382996	
-0.383484	
-0.383972	
-0.38324	
-0.384583	
-0.383728	
-0.383057	
-0.382874	
-0.383484	
-0.383301	
-0.382751	
-0.38269	
-0.382935	
-0.383484	
-0.383728	
-0.383606	
-0.382935	
-0.383179	
-0.382751	
-0.383179	
-0.382751	
-0.383911	
-0.382813	
-0.384094	
-0.38385	
-0.382751	
-0.382263	
-0.383118	
-0.383423	
-0.383423	
-0.382263	
-0.382263	
-0.382813	
-0.382568	
-0.383423	
-0.383057	
-0.382263	
-0.382019	
-0.383606	
-0.382141	
-0.38269	
-0.382263	
-0.383545	
-0.382568	
-0.384338	
-0.38269	
-0.382935	
-0.381897	
-0.383911	
-0.38269	
-0.382629	
-0.381592	
-0.382629	
-0.382446	
-0.383789	
-0.382507	
-0.381409	
-0.38092	
-0.382324	
-0.381165	
-0.380615	
-0.379944	
-0.380859	
-0.380554	
-0.381897	
-0.380188	
-0.380188	
-0.379028	
-0.380981	
-0.380188	
-0.379578	
-0.379333	
-0.380249	
-0.380676	
-0.381958	
-0.380127	
-0.379944	
-0.379395	
-0.381592	
-0.380615	
-0.380981	
-0.379822	
-0.381409	
-0.381104	
-0.381897	
-0.380676	
-0.381592	
-0.381348	
-0.382629	
-0.381958	
-0.382019	
-0.381653	
-0.382385	
-0.381592	
-0.382813	
-0.382874	
-0.383057	
-0.383118	
-0.383728	
-0.384521	
-0.38324	
-0.383606	
-0.383179	
-0.384766	
-0.384827	
-0.385193	
-0.384583	
-0.385498	
-0.385559	
-0.385864	
-0.384949	
-0.38562	
-0.383911	
-0.385254	
-0.385498	
-0.38562	
-0.384705	
-0.385254	
-0.385742	
-0.385315	
-0.385193	
-0.384277	
-0.383484	
-0.384094	
-0.385437	
-0.38446	
-0.384338	
-0.384033	
-0.38501	
-0.385437	
-0.384155	
-0.384155	
-0.383118	
-0.38385	
-0.385132	
-0.385132	
-0.384155	
-0.383911	
-0.383789	
-0.385254	
-0.383545	
-0.384338	
-0.382507	
-0.384583	
-0.38385	
-0.38562	
-0.383911	
-0.384399	
-0.382507	
-0.384705	
-0.384033	
-0.384155	
-0.383789	
-0.384949	
-0.384338	
-0.387207	
-0.384216	
-0.385132	
-0.383789	
-0.386475	
-0.385193	
-0.384338	
-0.384033	
-0.384827	
-0.385315	
-0.386902	
-0.384888	
-0.385132	
-0.38446	
-0.386108	
-0.384583	
-0.38446	
-0.385132	
-0.38446	
-0.385498	
-0.385803	
-0.385864	
-0.384766	
-0.385193	
-0.386047	
-0.385193	
-0.384216	
-0.383118	
-0.38501	
-0.384521	
-0.385376	
-0.38446	
-0.384705	
-0.383911	
-0.384827	
-0.383423	
-0.383667	
-0.383301	
-0.385193	
-0.382996	
-0.384399	
-0.383972	
-0.383728	
-0.38324	
-0.38385	
-0.383301	
-0.383057	
-0.383972	
-0.383911	
-0.383057	
-0.383789	
-0.384888	
-0.383118	
-0.384094	
-0.383362	
-0.385315	
-0.383423	
-0.38385	
-0.383118	
-0.384766	
-0.38385	
-0.384888	
-0.383972	
-0.384766	
-0.38269	
-0.38446	
-0.383545	
-0.38385	
-0.383423	
-0.384338	
-0.384705	
-0.384827	
-0.384583	
-0.383545	
-0.383972	
-0.385437	
-0.38446	
-0.384399	
-0.384033	
-0.384766	
-0.385498	
-0.385132	
-0.385376	
-0.38501	
-0.385437	
-0.386414	
-0.38501	
-0.385376	
-0.384338	
-0.385681	
-0.386047	
-0.386108	
-0.384827	
-0.385559	
-0.385742	
-0.386108	
-0.38501	
-0.385437	
-0.383789	
-0.385254	
-0.385681	
-0.386353	
-0.385315	
-0.385986	
-0.386169	
-0.387451	
-0.386414	
-0.385986	
-0.385315	
-0.387146	
-0.388062	
-0.387756	
-0.387817	
-0.387085	
-0.387756	
-0.388245	
-0.387756	
-0.386597	
-0.387024	
-0.38739	
-0.388062	
-0.387756	
-0.388306	
-0.386719	
-0.386902	
-0.386536	
-0.387207	
-0.386658	
-0.386353	
-0.38739	
-0.386658	
-0.387939	
-0.387939	
-0.387024	
-0.385742	
-0.385986	
-0.38678	
-0.38623	
-0.386292	
-0.387085	
-0.386292	
-0.387756	
-0.386719	
-0.387207	
-0.386658	
-0.38623	
-0.387024	
-0.386169	
-0.385193	
-0.385315	
-0.386047	
-0.385132	
-0.385498	
-0.384644	
-0.385132	
-0.384644	
-0.386047	
-0.383606	
-0.384277	
-0.382629	
-0.384277	
-0.38385	
-0.384644	
-0.38324	
-0.384705	
-0.38385	
-0.384521	
-0.382629	
-0.383789	
-0.382813	
-0.382813	
-0.383972	
-0.384338	
-0.385376	
-0.383484	
-0.384705	
-0.383301	
-0.382751	
-0.382935	
-0.384155	
-0.383667	
-0.385132	
-0.384521	
-0.384644	
-0.382813	
-0.383728	
-0.382263	
-0.38324	
-0.382874	
-0.382751	
-0.383423	
-0.383057	
-0.384277	
-0.38385	
-0.383789	
-0.382751	
-0.383179	
-0.383118	
-0.382446	
-0.383301	
-0.383362	
-0.38385	
-0.384888	
-0.384949	
-0.384033	
-0.383911	
-0.38501	
-0.384033	
-0.38269	
-0.383118	
-0.38446	
-0.384766	
-0.384338	
-0.38501	
-0.383545	
-0.384644	
-0.384705	
-0.384033	
-0.383484	
-0.382874	
-0.384399	
-0.383667	
-0.384155	
-0.384583	
-0.383728	
-0.383972	
-0.384705	
-0.384277	
-0.383667	
-0.383179	
-0.384216	
-0.383972	
-0.385254	
-0.385132	
-0.385376	
-0.385254	
-0.38562	
-0.385803	
-0.385315	
-0.385193	
-0.386169	
-0.386292	
-0.385986	
-0.386536	
-0.38678	
-0.386475	
-0.386658	
-0.386658	
-0.38623	
-0.386719	
-0.386047	
-0.38678	
-0.386658	
-0.387756	
-0.387024	
-0.386597	
-0.386536	
-0.387451	
-0.386902	
-0.385864	
-0.385254	
-0.386414	
-0.385986	
-0.387085	
-0.386841	
-0.386169	
-0.386292	
-0.38678	
-0.386047	
-0.384094	
-0.385376	
-0.385559	
-0.385803	
-0.385742	
-0.385803	
-0.384827	
-0.38501	
-0.383789	
-0.384033	
-0.382568	
-0.382629	
-0.383423	
-0.38385	
-0.38324	
-0.383728	
-0.382751	
-0.382874	
-0.382629	
-0.382324	
-0.38208	
-0.381775	
-0.382507	
-0.382507	
-0.382568	
-0.383057	
-0.382813	
-0.382568	
-0.382202	
-0.382507	
-0.38269	
-0.382019	
-0.383057	
-0.383057	
-0.38324	
-0.38446	
-0.383545	
-0.383362	
-0.38385	
-0.383606	
-0.38385	
-0.382263	
-0.38324	
-0.383606	
-0.384766	
-0.384888	
-0.383972	
-0.384338	
-0.383179	
-0.384888	
-0.383423	
-0.384094	
-0.383667	
-0.383667	
-0.384033	
-0.384521	
-0.38385	
-0.38385	
-0.383606	
-0.384888	
-0.383606	
-0.384583	
-0.383301	
-0.38501	
-0.384521	
-0.38501	
-0.384155	
-0.383911	
-0.383545	
-0.38385	
-0.383057	
-0.382446	
-0.383057	
-0.383362	
-0.382935	
-0.384216	
-0.383667	
-0.383057	
-0.383545	
-0.382202	
-0.383362	
-0.381897	
-0.383423	
-0.383362	
-0.383118	
-0.383484	
-0.384277	
-0.382629	
-0.38324	
-0.383118	
-0.384094	
-0.381958	
-0.383911	
-0.383606	
-0.384277	
-0.384949	
-0.384338	
-0.384399	
-0.384949	
-0.384277	
-0.384827	
-0.383301	
-0.384033	
-0.383667	
-0.38446	
-0.385071	
-0.384949	
-0.384155	
-0.385315	
-0.384033	
-0.384949	
-0.383362	
-0.384216	
-0.383423	
-0.384338	
-0.384583	
-0.384949	
-0.384277	
-0.385742	
-0.384216	
-0.384766	
-0.383301	
-0.384155	
-0.38385	
-0.384766	
-0.384583	
-0.385803	
-0.384583	
-0.385254	
-0.384583	
-0.384399	
-0.38446	
-0.383301	
-0.384827	
-0.384216	
-0.38501	
-0.384644	
-0.384094	
-0.384827	
-0.384644	
-0.383728	
-0.384338	
-0.382629	
-0.384277	
-0.382019	
-0.384277	
-0.38385	
-0.383423	
-0.383728	
-0.382813	
-0.383545	
-0.382996	
-0.382751	
-0.382568	
-0.382629	
-0.382568	
-0.383789	
-0.38324	
-0.383484	
-0.383301	
-0.382996	
-0.382141	
-0.382996	
-0.382141	
-0.38324	
-0.382629	
-0.384338	
-0.383423	
-0.38324	
-0.382324	
-0.38147	
-0.381653	
-0.381653	
-0.381897	
-0.38092	
-0.381409	
-0.381409	
-0.381653	
-0.380737	
-0.381042	
-0.379761	
-0.380798	
-0.380066	
-0.380676	
-0.379944	
-0.380188	
-0.380859	
-0.381897	
-0.380615	
-0.380249	
-0.380371	
-0.380249	
-0.379883	
-0.379761	
-0.380249	
-0.380005	
-0.381287	
-0.382019	
-0.381104	
-0.380798	
-0.380859	
-0.380981	
-0.381592	
-0.379944	
-0.380859	
-0.381226	
-0.381287	
-0.382568	
-0.381042	
-0.381531	
-0.380981	
-0.381897	
-0.382507	
-0.381287	
-0.381958	
-0.381592	
-0.382629	
-0.383972	
-0.383301	
-0.384277	
-0.382385	
-0.383362	
-0.384094	
-0.383423	
-0.383789	
-0.383545	
-0.384338	
-0.38562	
-0.38446	
-0.385315	
-0.38385	
-0.384827	
-0.383972	
-0.384033	
-0.384521	
-0.384155	
-0.385742	
-0.384888	
-0.385559	
-0.385071	
-0.384583	
-0.384094	
-0.38385	
-0.383972	
-0.384766	
-0.384338	
-0.385254	
-0.384338	
-0.384949	
-0.384277	
-0.383545	
-0.383179	
-0.383484	
-0.384094	
-0.383667	
-0.384033	
-0.383179	
-0.384033	
-0.384644	
-0.384033	
-0.383728	
-0.383728	
-0.383545	
-0.383911	
-0.382141	
-0.383545	
-0.382324	
-0.383545	
-0.38385	
-0.383911	
-0.382996	
-0.384094	
-0.382874	
-0.384155	
-0.382813	
-0.383118	
-0.383545	
-0.382751	
-0.384155	
-0.383118	
-0.384338	
-0.383545	
-0.384094	
-0.383545	
-0.38324	
-0.38324	
-0.384033	
-0.384094	
-0.384888	
-0.38385	
-0.38385	
-0.382324	
-0.383423	
-0.383118	
-0.382874	
-0.383728	
-0.383057	
-0.383301	
-0.383423	
-0.383911	
-0.382568	
-0.380615	
-0.38092	
-0.380737	
-0.381409	
-0.380859	
-0.380615	
-0.381165	
-0.381775	
-0.381409	
-0.381409	
-0.380371	
-0.380066	
-0.380615	
-0.381775	
-0.379944	
-0.38147	
-0.380493	
-0.382446	
-0.381226	
-0.382385	
-0.380127	
-0.381592	
-0.379883	
-0.381714	
-0.380127	
-0.381042	
-0.380432	
-0.381836	
-0.381226	
-0.381775	
-0.380676	
-0.382751	
-0.380798	
-0.38324	
-0.381653	
-0.382874	
-0.382263	
-0.382202	
-0.384155	
-0.383728	
-0.383606	
-0.384033	
-0.384216	
-0.385193	
-0.383911	
-0.383789	
-0.384277	
-0.383972	
-0.38623	
-0.384888	
-0.385559	
-0.384521	
-0.384399	
-0.384888	
-0.384583	
-0.385132	
-0.384827	
-0.385742	
-0.385742	
-0.385559	
-0.385071	
-0.38446	
-0.384155	
-0.384583	
-0.384583	
-0.384338	
-0.383728	
-0.385193	
-0.385193	
-0.38562	
-0.383484	
-0.383545	
-0.383423	
-0.384644	
-0.384521	
-0.383667	
-0.383545	
-0.383667	
-0.384644	
-0.385132	
-0.384338	
-0.383972	
-0.38385	
-0.384583	
-0.385193	
-0.383179	
-0.383972	
-0.382629	
-0.385254	
-0.384766	
-0.38623	
-0.38385	
-0.384644	
-0.382751	
-0.384949	
-0.382751	
-0.384338	
-0.38269	
-0.38501	
-0.38501	
-0.384888	
-0.384827	
-0.385559	
-0.38446	
-0.38623	
-0.384216	
-0.384827	
-0.38446	
-0.385315	
-0.386597	
-0.385315	
-0.385437	
-0.384949	
-0.385559	
-0.38562	
-0.386475	
-0.384888	
-0.384888	
-0.384766	
-0.386047	
-0.386353	
-0.385498	
-0.384888	
-0.384399	
-0.384827	
-0.383728	
-0.383362	
-0.383118	
-0.383667	
-0.384277	
-0.38446	
-0.38324	
-0.382446	
-0.381592	
-0.383301	
-0.382629	
-0.38324	
-0.382813	
-0.382385	
-0.383606	
-0.383789	
-0.38385	
-0.382019	
-0.382263	
-0.381958	
-0.382935	
-0.38269	
-0.382813	
-0.382751	
-0.383972	
-0.383301	
-0.383301	
-0.381958	
-0.383545	
-0.382507	
-0.38324	
-0.382202	
-0.383057	
-0.383362	
-0.383179	
-0.383423	
-0.383484	
-0.383118	
-0.383789	
-0.382751	
-0.383972	
-0.382324	
-0.382935	
-0.382324	
-0.382996	
-0.384644	
-0.384094	
-0.385071	
-0.383789	
-0.384949	
-0.384705	
-0.384705	
-0.384216	
-0.385071	
-0.385132	
-0.385864	
-0.385681	
-0.385803	
-0.38501	
-0.385986	
-0.386597	
-0.385742	
-0.385681	
-0.386047	
-0.386108	
-0.385132	
-0.387024	
-0.385559	
-0.385437	
-0.383484	
-0.385864	
-0.385071	
-0.386108	
-0.385071	
-0.386963	
-0.385925	
-0.386414	
-0.387024	
-0.385559	
-0.38739	
-0.386047	
-0.387207	
-0.386353	
-0.387756	
-0.386658	
-0.389038	
-0.388184	
-0.388	
-0.386292	
-0.388184	
-0.386414	
-0.387268	
-0.386047	
-0.388184	
-0.386658	
-0.388245	
-0.388855	
-0.388916	
-0.38739	
-0.388428	
-0.388489	
-0.387878	
-0.386475	
-0.388245	
-0.386414	
-0.387146	
-0.387695	
-0.387573	
-0.387695	
-0.387024	
-0.388245	
-0.386719	
-0.386536	
-0.386353	
-0.387146	
-0.386108	
-0.386475	
-0.387939	
-0.385986	
-0.386475	
-0.385437	
-0.386902	
-0.384949	
-0.386108	
-0.38446	
-0.386414	
-0.384705	
-0.385803	
-0.384766	
-0.385864	
-0.382935	
-0.385193	
-0.38385	
-0.384094	
-0.383667	
-0.383789	
-0.384033	
-0.383728	
-0.384888	
-0.382141	
-0.381653	
-0.382202	
-0.383179	
-0.38324	
-0.38269	
-0.383179	
-0.384033	
-0.383484	
-0.384338	
-0.382446	
-0.382751	
-0.382263	
-0.383728	
-0.38324	
-0.38269	
-0.383789	
-0.38385	
-0.384094	
-0.383667	
-0.383606	
-0.383545	
-0.383972	
-0.384033	
-0.383667	
-0.384094	
-0.384521	
-0.38385	
-0.384094	
-0.384277	
-0.38385	
-0.383667	
-0.383911	
-0.384521	
-0.384277	
-0.384338	
-0.383362	
-0.384888	
-0.385315	
-0.385559	
-0.384949	
-0.385803	
-0.383362	
-0.385132	
-0.383728	
-0.385132	
-0.383484	
-0.385437	
-0.385925	
-0.385437	
-0.384094	
-0.384033	
-0.383118	
-0.384888	
-0.383423	
-0.384949	
-0.38269	
-0.385132	
-0.385681	
-0.385376	
-0.385132	
-0.383789	
-0.383362	
-0.384094	
-0.384766	
-0.384583	
-0.384583	
-0.38562	
-0.386169	
-0.386719	
-0.386719	
-0.385559	
-0.385986	
-0.38623	
-0.386108	
-0.386047	
-0.386353	
-0.385986	
-0.387329	
-0.387817	
-0.387329	
-0.388123	
-0.386719	
-0.387878	
-0.387085	
-0.387207	
-0.387146	
-0.387146	
-0.387573	
-0.387695	
-0.387207	
-0.387878	
-0.386963	
-0.388306	
-0.387085	
-0.387573	
-0.386841	
-0.387268	
-0.386658	
-0.387695	
-0.386841	
-0.386353	
-0.386047	
-0.386169	
-0.386475	
-0.384583	
-0.385742	
-0.385132	
-0.385132	
-0.385742	
-0.38562	
-0.38501	
-0.384094	
	
