C:\DOCUMENTS AND SETTINGS\JASON\DESKTOP\UFRJ\UFRJ EPHYS\RSCI-BM 12 WK SERIES\070806-RSCI-BM-16\RSCI-BM-16-LEMG\070806-RSCI-BM-16-LEMG-0010.ACQ
0.025000 msec/sample
1 channel
Analog input
Volts
CH1	
2000	
-0.383057	
-0.382629	
-0.382935	
-0.383118	
-0.383728	
-0.383728	
-0.382629	
-0.38269	
-0.383118	
-0.384094	
-0.382996	
-0.38324	
-0.382202	
-0.383484	
-0.383606	
-0.383057	
-0.381897	
-0.381104	
-0.381653	
-0.382568	
-0.381958	
-0.381775	
-0.381592	
-0.382446	
-0.382385	
-0.382324	
-0.380676	
-0.380676	
-0.380554	
-0.382019	
-0.38147	
-0.381531	
-0.381836	
-0.382813	
-0.381592	
-0.382385	
-0.380798	
-0.381409	
-0.380554	
-0.381714	
-0.38208	
-0.381653	
-0.381042	
-0.381897	
-0.381714	
-0.381775	
-0.380798	
-0.380554	
-0.381348	
-0.381104	
-0.382324	
-0.380981	
-0.381531	
-0.380981	
-0.382019	
-0.382324	
-0.38147	
-0.381042	
-0.381042	
-0.380981	
-0.382568	
-0.381775	
-0.382202	
-0.381714	
-0.381836	
-0.381836	
-0.382935	
-0.382141	
-0.381958	
-0.38092	
-0.382629	
-0.382263	
-0.38269	
-0.382019	
-0.382446	
-0.382874	
-0.384277	
-0.382568	
-0.381531	
-0.380432	
-0.382446	
-0.38269	
-0.38269	
-0.382385	
-0.383606	
-0.383728	
-0.384277	
-0.381592	
-0.382019	
-0.38147	
-0.382996	
-0.383118	
-0.383118	
-0.383423	
-0.384033	
-0.383545	
-0.38385	
-0.381531	
-0.381958	
-0.382446	
-0.382935	
-0.383728	
-0.382446	
-0.382446	
-0.38208	
-0.382568	
-0.382385	
-0.381592	
-0.381653	
-0.380859	
-0.381409	
-0.381714	
-0.380981	
-0.380798	
-0.380127	
-0.380798	
-0.380432	
-0.380188	
-0.380005	
-0.379944	
-0.380127	
-0.380249	
-0.380066	
-0.379883	
-0.379822	
-0.380249	
-0.380432	
-0.380798	
-0.380188	
-0.380493	
-0.380005	
-0.381165	
-0.381531	
-0.381042	
-0.381409	
-0.38269	
-0.38269	
-0.383545	
-0.381592	
-0.382751	
-0.381531	
-0.383667	
-0.383179	
-0.383789	
-0.383545	
-0.384827	
-0.38446	
-0.385742	
-0.382935	
-0.384338	
-0.383179	
-0.384583	
-0.384094	
-0.383911	
-0.384155	
-0.38501	
-0.385132	
-0.385193	
-0.383667	
-0.382813	
-0.383057	
-0.384338	
-0.38385	
-0.384033	
-0.384033	
-0.384399	
-0.384827	
-0.384888	
-0.383789	
-0.382446	
-0.38269	
-0.383545	
-0.38385	
-0.382996	
-0.382813	
-0.382813	
-0.383118	
-0.38269	
-0.382263	
-0.381409	
-0.381348	
-0.381531	
-0.383179	
-0.382263	
-0.382141	
-0.380981	
-0.382751	
-0.382019	
-0.382019	
-0.380798	
-0.38208	
-0.381348	
-0.382385	
-0.381592	
-0.381836	
-0.381348	
-0.383545	
-0.364746	
-0.363281	
-0.363281	
-0.364807	
-0.364563	
-0.36615	
-0.387268	
-0.385803	
-0.383118	
-0.384277	
-0.383545	
-0.383728	
-0.381653	
-0.382874	
-0.381653	
-0.382874	
-0.38324	
-0.382751	
-0.382629	
-0.382324	
-0.382507	
-0.382751	
-0.381348	
-0.382446	
-0.382141	
-0.38208	
-0.382935	
-0.381897	
-0.381897	
-0.381714	
-0.383057	
-0.383423	
-0.382141	
-0.381592	
-0.381226	
-0.382935	
-0.383179	
-0.382996	
-0.383179	
-0.382996	
-0.38446	
-0.383728	
-0.38269	
-0.381653	
-0.381531	
-0.383057	
-0.383789	
-0.383484	
-0.383362	
-0.383789	
-0.385986	
-0.386169	
-0.386719	
-0.387695	
-0.391052	
-0.394897	
-0.398071	
-0.401855	
-0.405579	
-0.409119	
-0.395691	
-0.397888	
-0.403748	
-0.407837	
-0.414673	
-0.421448	
-0.449158	
-0.453125	
-0.456238	
-0.460632	
-0.465027	
-0.468384	
-0.469055	
-0.470581	
-0.470642	
-0.473145	
-0.474121	
-0.473999	
-0.475037	
-0.475586	
-0.475037	
-0.475464	
-0.473816	
-0.473083	
-0.471863	
-0.472351	
-0.471619	
-0.470581	
-0.470459	
-0.469666	
-0.470032	
-0.470459	
-0.469666	
-0.470276	
-0.470581	
-0.471558	
-0.472656	
-0.472839	
-0.473511	
-0.475037	
-0.477295	
-0.47937	
-0.480225	
-0.482422	
-0.483765	
-0.485779	
-0.486572	
-0.486633	
-0.486389	
-0.486328	
-0.48584	
-0.485657	
-0.484924	
-0.484497	
-0.483887	
-0.483826	
-0.484253	
-0.484436	
-0.484009	
-0.484131	
-0.48407	
-0.484924	
-0.485168	
-0.48584	
-0.486511	
-0.48761	
-0.488281	
-0.489197	
-0.489624	
-0.490295	
-0.489868	
-0.491089	
-0.489197	
-0.487854	
-0.486389	
-0.484436	
-0.482178	
-0.47998	
-0.476135	
-0.473022	
-0.469482	
-0.466431	
-0.461731	
-0.457764	
-0.453308	
-0.447937	
-0.443115	
-0.438293	
-0.431152	
-0.424438	
-0.419189	
-0.410889	
-0.402649	
-0.3927	
-0.385864	
-0.376953	
-0.367615	
-0.358154	
-0.348816	
-0.339233	
-0.331482	
-0.322998	
-0.315125	
-0.307678	
-0.302246	
-0.298462	
-0.296875	
-0.29541	
-0.294373	
-0.293945	
-0.294861	
-0.295471	
-0.296753	
-0.29657	
-0.297791	
-0.299927	
-0.303284	
-0.306152	
-0.307556	
-0.310669	
-0.314758	
-0.316956	
-0.321167	
-0.323181	
-0.329163	
-0.33374	
-0.339111	
-0.344666	
-0.349609	
-0.355286	
-0.360596	
-0.364197	
-0.368469	
-0.372498	
-0.377258	
-0.381653	
-0.38623	
-0.390259	
-0.393127	
-0.396912	
-0.399658	
-0.403137	
-0.405151	
-0.406616	
-0.409485	
-0.412048	
-0.413879	
-0.41626	
-0.417725	
-0.419312	
-0.420959	
-0.422974	
-0.423401	
-0.423706	
-0.425415	
-0.42688	
-0.427246	
-0.428711	
-0.428528	
-0.42865	
-0.428528	
-0.427979	
-0.425903	
-0.423828	
-0.422363	
-0.421448	
-0.419312	
-0.417664	
-0.413879	
-0.410461	
-0.407288	
-0.402405	
-0.396545	
-0.39093	
-0.385986	
-0.379639	
-0.373108	
-0.365967	
-0.357849	
-0.350403	
-0.343628	
-0.33429	
-0.326416	
-0.316772	
-0.312134	
-0.305542	
-0.299622	
-0.294189	
-0.289124	
-0.28418	
-0.28064	
-0.275208	
-0.270264	
-0.264648	
-0.263123	
-0.260803	
-0.257996	
-0.255798	
-0.254028	
-0.252747	
-0.253235	
-0.252502	
-0.252014	
-0.252258	
-0.254578	
-0.257446	
-0.259521	
-0.263	
-0.265625	
-0.268921	
-0.271912	
-0.276062	
-0.278137	
-0.282654	
-0.285828	
-0.289368	
-0.292786	
-0.29657	
-0.300049	
-0.305359	
-0.306946	
-0.309326	
-0.310181	
-0.31543	
-0.317932	
-0.320313	
-0.323486	
-0.325134	
-0.326904	
-0.329529	
-0.331604	
-0.332214	
-0.334595	
-0.335022	
-0.33783	
-0.339294	
-0.340881	
-0.342468	
-0.343872	
-0.344727	
-0.346741	
-0.346619	
-0.348511	
-0.349792	
-0.351379	
-0.352417	
-0.353516	
-0.354187	
-0.356262	
-0.355652	
-0.356201	
-0.355713	
-0.357544	
-0.358826	
-0.359375	
-0.36084	
-0.360352	
-0.360718	
-0.363159	
-0.362122	
-0.362366	
-0.360962	
-0.362732	
-0.363342	
-0.363586	
-0.365295	
-0.364746	
-0.365112	
-0.365417	
-0.365051	
-0.365051	
-0.364441	
-0.365173	
-0.365479	
-0.365906	
-0.365479	
-0.365417	
-0.365417	
-0.366028	
-0.365417	
-0.364502	
-0.363525	
-0.36438	
-0.36438	
-0.365295	
-0.364807	
-0.364624	
-0.365112	
-0.365356	
-0.365295	
-0.363892	
-0.363831	
-0.364441	
-0.365112	
-0.366699	
-0.365723	
-0.366394	
-0.365906	
-0.367065	
-0.366577	
-0.36554	
-0.366211	
-0.366699	
-0.36731	
-0.367615	
-0.367493	
-0.36731	
-0.367249	
-0.368896	
-0.367981	
-0.368103	
-0.36731	
-0.367493	
-0.369141	
-0.368774	
-0.368225	
-0.368835	
-0.36969	
-0.368958	
-0.368103	
-0.367981	
-0.368591	
-0.368408	
-0.369141	
-0.369202	
-0.369873	
-0.370239	
-0.370239	
-0.36969	
-0.370178	
-0.370056	
-0.369751	
-0.371277	
-0.370911	
-0.37085	
-0.370667	
-0.372131	
-0.37262	
-0.370728	
-0.370728	
-0.371277	
-0.371582	
-0.372131	
-0.372437	
-0.37262	
-0.372742	
-0.373108	
-0.373352	
-0.373291	
-0.372803	
-0.373169	
-0.374207	
-0.373901	
-0.373962	
-0.373962	
-0.374817	
-0.375061	
-0.374695	
-0.37384	
-0.374512	
-0.374695	
-0.374512	
-0.373535	
-0.373596	
-0.374268	
-0.373413	
-0.374084	
-0.372437	
-0.37323	
-0.37207	
-0.372864	
-0.372375	
-0.372314	
-0.37262	
-0.37384	
-0.372986	
-0.372986	
-0.372192	
-0.372559	
-0.371826	
-0.372375	
-0.372498	
-0.37262	
-0.372803	
-0.37384	
-0.373047	
-0.372681	
-0.372192	
-0.372925	
-0.373352	
-0.373901	
-0.373047	
-0.373169	
-0.372681	
-0.37323	
-0.373657	
-0.373108	
-0.373901	
-0.372986	
-0.373413	
-0.374512	
-0.373657	
-0.373779	
-0.37384	
-0.374817	
-0.374756	
-0.374695	
-0.375244	
-0.375549	
-0.375488	
-0.376465	
-0.375549	
-0.376221	
-0.37616	
-0.375793	
-0.376343	
-0.375977	
-0.376221	
-0.376221	
-0.376343	
-0.377563	
-0.376709	
-0.376404	
-0.376892	
-0.376587	
-0.37677	
-0.375549	
-0.375793	
-0.375305	
-0.375977	
-0.376404	
-0.375244	
-0.375732	
-0.37677	
-0.375732	
-0.376648	
-0.375305	
-0.376282	
-0.375305	
-0.375488	
-0.377014	
-0.376526	
-0.376465	
-0.37677	
-0.376648	
-0.377502	
-0.376648	
-0.37677	
-0.376221	
-0.376282	
-0.377441	
-0.376587	
-0.377014	
-0.376404	
-0.376465	
-0.376892	
-0.376587	
-0.376709	
-0.376648	
-0.376892	
-0.378174	
-0.377502	
-0.37793	
-0.377014	
-0.377686	
-0.377319	
-0.376709	
-0.377258	
-0.377686	
-0.377991	
-0.378052	
-0.378052	
-0.37854	
-0.378662	
-0.37915	
-0.377808	
-0.378662	
-0.378113	
-0.378113	
-0.378662	
-0.378845	
-0.378906	
-0.379944	
-0.379028	
-0.380188	
-0.378174	
-0.378723	
-0.378296	
-0.378906	
-0.379272	
-0.379211	
-0.379578	
-0.379883	
-0.379883	
-0.380005	
-0.380005	
-0.379395	
-0.379272	
-0.378906	
-0.380005	
-0.379944	
-0.380127	
-0.379822	
-0.379883	
-0.379639	
-0.380127	
-0.379395	
-0.379517	
-0.378601	
-0.380554	
-0.3797	
-0.379761	
-0.379761	
-0.379333	
-0.379028	
-0.379333	
-0.378784	
-0.37854	
-0.378906	
-0.379272	
-0.378296	
-0.378723	
-0.37793	
-0.377747	
-0.377686	
-0.377258	
-0.377625	
-0.377502	
-0.377441	
-0.377808	
-0.377319	
-0.378174	
-0.377991	
-0.377869	
-0.377075	
-0.377136	
-0.377441	
-0.377441	
-0.378296	
-0.378418	
-0.378357	
-0.379089	
-0.378601	
-0.379517	
-0.378845	
-0.379761	
-0.379517	
-0.380127	
-0.380493	
-0.381287	
-0.380798	
-0.381714	
-0.380737	
-0.382263	
-0.380676	
-0.381165	
-0.38147	
-0.382019	
-0.382141	
-0.382935	
-0.382324	
-0.383118	
-0.382751	
-0.38269	
-0.38147	
-0.381592	
-0.381592	
-0.382141	
-0.382263	
-0.382996	
-0.382507	
-0.382813	
-0.381958	
-0.382629	
-0.381714	
-0.381409	
-0.381775	
-0.381531	
-0.381958	
-0.383362	
-0.381958	
-0.382385	
-0.381226	
-0.382141	
-0.380493	
-0.379883	
-0.379822	
-0.38031	
-0.380798	
-0.381531	
-0.380554	
-0.381409	
-0.38031	
-0.380981	
-0.379883	
-0.379578	
-0.379761	
-0.380005	
-0.38092	
-0.381165	
-0.380188	
-0.380981	
-0.3797	
-0.381226	
-0.380737	
-0.379944	
-0.37915	
-0.380066	
-0.381042	
-0.381531	
-0.38147	
-0.381592	
-0.380615	
-0.381592	
-0.381653	
-0.381104	
-0.381165	
-0.380432	
-0.381714	
-0.382202	
-0.381409	
-0.38208	
-0.381042	
-0.381836	
-0.381409	
-0.381165	
-0.38092	
-0.380554	
-0.381226	
-0.382202	
-0.380981	
-0.381226	
-0.380371	
-0.382141	
-0.381775	
-0.380676	
-0.380798	
-0.380493	
-0.381165	
-0.382324	
-0.381287	
-0.381836	
-0.380798	
-0.382385	
-0.382629	
-0.381775	
-0.38147	
-0.381592	
-0.381958	
-0.382874	
-0.383179	
-0.382202	
-0.381592	
-0.38324	
-0.38208	
-0.381897	
-0.382324	
-0.382202	
-0.382629	
-0.383057	
-0.382385	
-0.382507	
-0.381287	
-0.38269	
-0.382935	
-0.382568	
-0.382507	
-0.383118	
-0.382507	
-0.382996	
-0.382996	
-0.382141	
-0.381042	
-0.382996	
-0.381592	
-0.382813	
-0.38208	
-0.382568	
-0.382263	
-0.383362	
-0.382996	
-0.382507	
-0.382141	
-0.38269	
-0.382446	
-0.382202	
-0.381775	
-0.383423	
-0.382202	
-0.384216	
-0.383057	
-0.382629	
-0.382446	
-0.383484	
-0.383423	
-0.383179	
-0.384399	
-0.38446	
-0.385071	
-0.385925	
-0.385925	
-0.384827	
-0.385071	
-0.385681	
-0.386414	
-0.384949	
-0.386169	
-0.38623	
-0.387451	
-0.387512	
-0.387146	
-0.387146	
-0.386414	
-0.388	
-0.387085	
-0.386353	
-0.386902	
-0.387146	
-0.38739	
-0.388489	
-0.38678	
-0.388306	
-0.387146	
-0.388611	
-0.386475	
-0.386536	
-0.385864	
-0.387512	
-0.387451	
-0.387573	
-0.387024	
-0.386597	
-0.387634	
-0.387634	
-0.387329	
-0.385803	
-0.387024	
-0.386414	
-0.386475	
-0.386719	
-0.386292	
-0.385803	
-0.38623	
-0.38562	
-0.385681	
-0.385132	
-0.385315	
-0.385132	
-0.385559	
-0.386292	
-0.385681	
-0.384888	
-0.38446	
-0.385315	
-0.385315	
-0.384888	
-0.384827	
-0.385681	
-0.385986	
-0.386475	
-0.385376	
-0.386047	
-0.385559	
-0.386963	
-0.386353	
-0.386047	
-0.385925	
-0.386353	
-0.386658	
-0.387756	
-0.38678	
-0.387146	
-0.386719	
-0.387695	
-0.386414	
-0.385803	
-0.38562	
-0.386108	
-0.386414	
-0.387085	
-0.386963	
-0.386963	
-0.385742	
-0.387817	
-0.38678	
-0.386536	
-0.385071	
-0.387207	
-0.387268	
-0.38739	
-0.387207	
-0.387878	
-0.386169	
-0.388367	
-0.385986	
-0.386841	
-0.384766	
-0.386475	
-0.386841	
-0.387817	
-0.387085	
-0.387878	
-0.386353	
-0.389038	
-0.385681	
-0.387268	
-0.384033	
-0.387512	
-0.385864	
-0.387146	
-0.386108	
-0.386475	
-0.385071	
-0.388245	
-0.385193	
-0.385803	
-0.384583	
-0.385864	
-0.385986	
-0.386536	
-0.385986	
-0.386719	
-0.386108	
-0.387268	
-0.384888	
-0.385376	
-0.384888	
-0.385193	
-0.386292	
-0.385498	
-0.386536	
-0.386414	
-0.385803	
-0.387817	
-0.385071	
-0.385071	
-0.384155	
-0.385681	
-0.385437	
-0.38623	
-0.386169	
-0.386353	
-0.386414	
-0.388306	
-0.384766	
-0.386475	
-0.38324	
-0.385925	
-0.386108	
-0.386902	
-0.386169	
-0.388062	
-0.387085	
-0.389526	
-0.387939	
-0.388184	
-0.385559	
-0.388367	
-0.388367	
-0.388184	
-0.38855	
-0.387756	
-0.388123	
-0.390259	
-0.388855	
-0.388428	
-0.387024	
-0.387939	
-0.389099	
-0.388123	
-0.388916	
-0.388	
-0.387817	
-0.389893	
-0.388062	
-0.386719	
-0.384888	
-0.38739	
-0.386597	
-0.386719	
-0.38678	
-0.386108	
-0.385803	
-0.387573	
-0.384521	
-0.385376	
-0.382813	
-0.385193	
-0.384644	
-0.384766	
-0.384277	
-0.384888	
-0.384277	
-0.386047	
-0.383545	
-0.384705	
-0.382019	
-0.383972	
-0.384827	
-0.384644	
-0.38562	
-0.38385	
-0.385193	
-0.384949	
-0.384705	
-0.384766	
-0.383911	
-0.38562	
-0.385864	
-0.38501	
-0.386108	
-0.384521	
-0.38623	
-0.385376	
-0.385742	
-0.385925	
-0.384521	
-0.386597	
-0.385925	
-0.386719	
-0.387207	
-0.386841	
-0.386658	
-0.386841	
-0.38562	
-0.385986	
-0.384949	
-0.387085	
-0.386719	
-0.386536	
-0.387024	
-0.38678	
-0.387329	
-0.387695	
-0.386719	
-0.386658	
-0.385864	
-0.386597	
-0.386719	
-0.386597	
-0.387573	
-0.38678	
-0.386963	
-0.387024	
-0.386536	
-0.38623	
-0.385132	
-0.385864	
-0.386353	
-0.38623	
-0.387207	
-0.38623	
-0.387024	
-0.386719	
-0.385681	
-0.385742	
-0.384644	
-0.386353	
-0.38623	
-0.386353	
-0.387268	
-0.386353	
-0.387146	
-0.387512	
-0.386536	
-0.385437	
-0.385254	
-0.386902	
-0.386292	
-0.386353	
-0.386719	
-0.385925	
-0.387695	
-0.387634	
-0.387268	
-0.384827	
-0.385376	
-0.385681	
-0.38623	
-0.386047	
-0.386719	
-0.386108	
-0.387207	
-0.387512	
-0.38739	
-0.385132	
-0.384766	
-0.385071	
-0.386597	
-0.38623	
-0.388123	
-0.386292	
-0.387817	
-0.38739	
-0.387024	
-0.385254	
-0.38385	
-0.386108	
-0.386963	
-0.386719	
-0.387085	
-0.387024	
-0.387268	
-0.388306	
-0.387085	
-0.387451	
-0.384583	
-0.386353	
-0.38678	
-0.387634	
-0.386169	
-0.387634	
-0.386902	
-0.387878	
-0.38678	
-0.386536	
-0.384583	
-0.385315	
-0.386414	
-0.386353	
-0.386719	
-0.386475	
-0.386963	
-0.387329	
-0.386902	
-0.385681	
-0.384827	
-0.384521	
-0.384949	
-0.384888	
-0.384583	
-0.384216	
-0.384338	
-0.384216	
-0.384216	
-0.382751	
-0.382751	
-0.382751	
-0.383118	
-0.383118	
-0.382751	
-0.382507	
-0.382996	
-0.383179	
-0.38269	
-0.38208	
-0.381042	
-0.381287	
-0.382568	
-0.38208	
-0.38208	
-0.382446	
-0.382385	
-0.383362	
-0.382446	
-0.381958	
-0.380981	
-0.381958	
-0.38269	
-0.382202	
-0.382751	
-0.383118	
-0.38269	
-0.38324	
-0.381714	
-0.38208	
-0.381104	
-0.382141	
-0.382446	
-0.382874	
-0.383423	
-0.384094	
-0.383484	
-0.384583	
-0.383911	
-0.383545	
-0.382385	
-0.383911	
-0.384094	
-0.384277	
-0.384277	
-0.385254	
-0.384888	
-0.385254	
-0.384033	
-0.384644	
-0.383789	
-0.384644	
-0.383789	
-0.384583	
-0.384399	
-0.385498	
-0.383789	
-0.385071	
-0.383789	
-0.383911	
-0.383362	
-0.382629	
-0.382935	
-0.383362	
-0.383484	
-0.383484	
-0.382751	
-0.383545	
-0.383484	
-0.382629	
-0.383728	
-0.38269	
-0.384338	
-0.383118	
-0.384705	
-0.383484	
-0.384033	
-0.383911	
-0.383545	
-0.382813	
-0.382996	
-0.382874	
-0.383362	
-0.383118	
-0.383362	
-0.383362	
-0.383118	
-0.383789	
-0.382874	
-0.383606	
-0.381653	
-0.384155	
-0.382935	
-0.383545	
-0.383179	
-0.384033	
-0.383423	
-0.384766	
-0.383179	
-0.38324	
-0.381836	
-0.383362	
-0.383484	
-0.38385	
-0.383606	
-0.384155	
-0.384888	
-0.384583	
-0.384338	
-0.382507	
-0.383423	
-0.383606	
-0.38446	
-0.383728	
-0.384766	
-0.384033	
-0.385925	
-0.384888	
-0.38562	
-0.384033	
-0.383423	
-0.383179	
-0.384094	
-0.384521	
-0.384277	
-0.38446	
-0.385254	
-0.385925	
-0.386047	
-0.384155	
-0.383179	
-0.38385	
-0.383789	
-0.38501	
-0.38385	
-0.385132	
-0.385193	
-0.386292	
-0.385498	
-0.384949	
-0.382996	
-0.381958	
-0.383789	
-0.384094	
-0.384338	
-0.384399	
-0.383789	
-0.384583	
-0.384949	
-0.383423	
-0.381165	
-0.380615	
-0.38208	
-0.382141	
-0.383179	
-0.381958	
-0.382568	
-0.382141	
-0.383484	
-0.38208	
-0.381165	
-0.380432	
-0.38092	
-0.38147	
-0.381653	
-0.381226	
-0.382324	
-0.383362	
-0.383484	
-0.382751	
-0.381714	
-0.38147	
-0.381775	
-0.38385	
-0.383118	
-0.38385	
-0.383911	
-0.384827	
-0.38446	
-0.384521	
-0.384094	
-0.384277	
-0.384521	
-0.385132	
-0.38562	
-0.385925	
-0.385681	
-0.386047	
-0.386841	
-0.385742	
-0.385559	
-0.385071	
-0.386047	
-0.38562	
-0.385986	
-0.386292	
-0.386536	
-0.386292	
-0.386353	
-0.385986	
-0.385681	
-0.385315	
-0.385986	
-0.385864	
-0.386475	
-0.386047	
-0.38562	
-0.386292	
-0.386658	
-0.386475	
-0.384583	
-0.384766	
-0.384705	
-0.385193	
-0.384644	
-0.384949	
-0.384277	
-0.385681	
-0.384155	
-0.384705	
-0.382202	
-0.383484	
-0.38269	
-0.384399	
-0.384644	
-0.384338	
-0.384155	
-0.385742	
-0.384949	
-0.385193	
-0.382996	
-0.383606	
-0.382996	
-0.38385	
-0.384094	
-0.383545	
-0.384949	
-0.384521	
-0.384399	
-0.384583	
-0.384521	
-0.383789	
-0.383057	
-0.384033	
-0.384705	
-0.384949	
-0.384644	
-0.384888	
-0.385803	
-0.385559	
-0.385376	
-0.38385	
-0.383728	
-0.383606	
-0.384094	
-0.384399	
-0.384216	
-0.384338	
-0.384399	
-0.384644	
-0.384216	
-0.383545	
-0.383545	
-0.384583	
-0.384338	
-0.384216	
-0.384094	
-0.385071	
-0.385071	
-0.384644	
-0.384827	
-0.382568	
-0.383484	
-0.38324	
-0.384521	
-0.383667	
-0.385559	
-0.384155	
-0.386475	
-0.385193	
-0.385681	
-0.382751	
-0.38501	
-0.38385	
-0.385864	
-0.385437	
-0.386047	
-0.38501	
-0.387207	
-0.385864	
-0.385437	
-0.382935	
-0.383728	
-0.383606	
-0.38501	
-0.385193	
-0.384277	
-0.385803	
-0.385681	
-0.38623	
-0.38562	
-0.382446	
-0.383667	
-0.383728	
-0.384094	
-0.385315	
-0.384338	
-0.384521	
-0.386475	
-0.38623	
-0.384949	
-0.382751	
-0.383423	
-0.383179	
-0.384277	
-0.384094	
-0.384644	
-0.384827	
-0.385376	
-0.384949	
-0.385193	
-0.382324	
-0.38324	
-0.38385	
-0.385071	
-0.385498	
-0.386658	
-0.385925	
-0.38739	
-0.387329	
-0.38678	
-0.385498	
-0.386597	
-0.387024	
-0.386963	
-0.387634	
-0.387451	
-0.387817	
-0.388733	
-0.388794	
-0.387939	
-0.388306	
-0.387695	
-0.388062	
-0.387573	
-0.389343	
-0.388367	
-0.388733	
-0.389099	
-0.389038	
-0.389282	
-0.389465	
-0.388306	
-0.387695	
-0.387329	
-0.388611	
-0.388672	
-0.388611	
-0.38916	
-0.388611	
-0.389221	
-0.388794	
-0.389038	
-0.388184	
-0.387939	
-0.387817	
-0.388489	
-0.388367	
-0.388367	
-0.387939	
-0.387939	
-0.387634	
-0.387329	
-0.38678	
-0.38678	
-0.387024	
-0.386719	
-0.387329	
-0.386658	
-0.387634	
-0.386719	
-0.38739	
-0.386169	
-0.386597	
-0.385559	
-0.38678	
-0.386658	
-0.386841	
-0.386597	
-0.387939	
-0.387756	
-0.388306	
-0.386658	
-0.387268	
-0.386475	
-0.38739	
-0.388	
-0.388184	
-0.387878	
-0.389099	
-0.388733	
-0.388672	
-0.386414	
-0.386292	
-0.386841	
-0.387695	
-0.388245	
-0.387268	
-0.388123	
-0.388977	
-0.389526	
-0.387878	
-0.386536	
-0.386353	
-0.387878	
-0.387634	
-0.388672	
-0.388306	
-0.388855	
-0.39032	
-0.389648	
-0.388672	
-0.387146	
-0.387634	
-0.388489	
-0.387146	
-0.387756	
-0.389221	
-0.388062	
-0.390076	
-0.38855	
-0.389526	
-0.386841	
-0.387817	
-0.387024	
-0.388062	
-0.387817	
-0.38855	
-0.387146	
-0.388855	
-0.387939	
-0.387695	
-0.387024	
-0.387024	
-0.387085	
-0.386841	
-0.387451	
-0.386902	
-0.387146	
-0.38678	
-0.388489	
-0.386414	
-0.387451	
-0.385742	
-0.387146	
-0.385681	
-0.387329	
-0.386047	
-0.387207	
-0.387146	
-0.387451	
-0.386047	
-0.386108	
-0.385864	
-0.385925	
-0.386292	
-0.386353	
-0.385986	
-0.386658	
-0.387695	
-0.386841	
-0.387451	
-0.386414	
-0.385864	
-0.386047	
-0.387268	
-0.386169	
-0.387451	
-0.38678	
-0.387329	
-0.388245	
-0.387878	
-0.388	
-0.387817	
-0.388428	
-0.387634	
-0.388611	
-0.388489	
-0.388428	
-0.388977	
-0.390808	
-0.388611	
-0.390625	
-0.387634	
-0.389221	
-0.387451	
-0.387939	
-0.388672	
-0.388855	
-0.388672	
-0.390198	
-0.388306	
-0.388794	
-0.388306	
-0.38739	
-0.386353	
-0.38678	
-0.387329	
-0.38739	
-0.387207	
-0.387268	
-0.386658	
-0.38678	
-0.385864	
-0.385376	
-0.384949	
-0.38501	
-0.385071	
-0.384949	
-0.384399	
-0.385681	
-0.385498	
-0.385132	
-0.38324	
-0.383789	
-0.384155	
-0.384705	
-0.384094	
-0.384705	
-0.38385	
-0.385681	
-0.385315	
-0.385254	
-0.382996	
-0.383484	
-0.38385	
-0.384399	
-0.38446	
-0.383972	
-0.384827	
-0.386047	
-0.386536	
-0.385498	
-0.384277	
-0.383301	
-0.385559	
-0.385132	
-0.386353	
-0.385437	
-0.387451	
-0.387085	
-0.388245	
-0.386658	
-0.386902	
-0.386536	
-0.386841	
-0.386536	
-0.386475	
-0.38678	
-0.387085	
-0.387573	
-0.387573	
-0.387329	
-0.385803	
-0.387207	
-0.385925	
-0.386597	
-0.384827	
-0.386658	
-0.386658	
-0.387024	
-0.386475	
-0.386169	
-0.38623	
-0.38623	
-0.385742	
-0.385437	
-0.384949	
-0.385681	
-0.384521	
-0.386414	
-0.385315	
-0.386414	
-0.38562	
-0.385193	
-0.385315	
-0.385376	
-0.38562	
-0.385559	
-0.385742	
-0.385864	
-0.385925	
-0.387329	
-0.387024	
-0.385437	
-0.38562	
-0.385376	
-0.385376	
-0.384827	
-0.386108	
-0.385864	
-0.38623	
-0.387512	
-0.387146	
-0.385803	
-0.383972	
-0.384705	
-0.385132	
-0.385315	
-0.385681	
-0.385498	
-0.386047	
-0.387329	
-0.38562	
-0.38385	
-0.383484	
-0.384216	
-0.384705	
-0.384949	
-0.384827	
-0.385315	
-0.385803	
-0.385681	
-0.385559	
-0.38446	
-0.384949	
-0.38446	
-0.385132	
-0.383545	
-0.385254	
-0.385132	
-0.385559	
-0.385498	
-0.386536	
-0.384583	
-0.385559	
-0.384583	
-0.385498	
-0.384155	
-0.385193	
-0.385315	
-0.385803	
-0.385925	
-0.385986	
-0.385071	
-0.385193	
-0.384521	
-0.384888	
-0.384766	
-0.385559	
-0.386047	
-0.385803	
-0.386108	
-0.385925	
-0.385071	
-0.38501	
-0.384705	
-0.385071	
-0.384277	
-0.384338	
-0.383423	
-0.38324	
-0.383118	
-0.383301	
-0.382385	
-0.382996	
-0.38208	
-0.382446	
-0.382019	
-0.381836	
-0.381348	
-0.382751	
-0.382263	
-0.382996	
-0.381653	
-0.381592	
-0.379272	
-0.381287	
-0.380981	
-0.380737	
-0.380981	
-0.381531	
-0.381775	
-0.382935	
-0.380859	
-0.380554	
-0.3797	
-0.380493	
-0.381348	
-0.381348	
-0.381531	
-0.381165	
-0.382507	
-0.382263	
-0.381592	
-0.380188	
-0.38092	
-0.380066	
-0.380981	
-0.380371	
-0.381897	
-0.381592	
-0.382751	
-0.382446	
-0.38324	
-0.381958	
-0.383057	
	
