C:\DOCUMENTS AND SETTINGS\JASON\DESKTOP\UFRJ\UFRJ EPHYS\RSCI-BM 12 WK SERIES\070806-RSCI-BM-16\RSCI-BM-16-LEMG\070806-RSCI-BM-16-LEMG-0007.ACQ
0.025000 msec/sample
1 channel
Analog input
Volts
CH1	
2000	
-0.385315	
-0.385132	
-0.38446	
-0.384277	
-0.384888	
-0.384338	
-0.384338	
-0.38324	
-0.384399	
-0.384277	
-0.384705	
-0.385742	
-0.384277	
-0.384216	
-0.383606	
-0.384644	
-0.385437	
-0.384338	
-0.384521	
-0.383789	
-0.384583	
-0.386292	
-0.384644	
-0.384583	
-0.384705	
-0.385986	
-0.385925	
-0.384705	
-0.385132	
-0.385071	
-0.385559	
-0.38623	
-0.386108	
-0.38562	
-0.384949	
-0.386108	
-0.385681	
-0.385315	
-0.384949	
-0.38562	
-0.385986	
-0.386353	
-0.385864	
-0.385498	
-0.384949	
-0.385986	
-0.38501	
-0.38501	
-0.384155	
-0.384827	
-0.384827	
-0.38562	
-0.385803	
-0.385498	
-0.38501	
-0.385742	
-0.385193	
-0.386169	
-0.384033	
-0.38562	
-0.384766	
-0.385681	
-0.385864	
-0.385254	
-0.385681	
-0.386108	
-0.386414	
-0.386719	
-0.384766	
-0.38446	
-0.385315	
-0.385376	
-0.387085	
-0.385315	
-0.385864	
-0.384644	
-0.386841	
-0.386475	
-0.38562	
-0.385437	
-0.386658	
-0.386658	
-0.387512	
-0.38739	
-0.38739	
-0.386719	
-0.387756	
-0.387329	
-0.38678	
-0.387207	
-0.387024	
-0.387573	
-0.386902	
-0.388489	
-0.387207	
-0.387329	
-0.38678	
-0.387756	
-0.387329	
-0.385742	
-0.387024	
-0.386169	
-0.38678	
-0.387268	
-0.385864	
-0.38562	
-0.385376	
-0.386047	
-0.385559	
-0.383362	
-0.384094	
-0.383667	
-0.385132	
-0.385071	
-0.384399	
-0.38385	
-0.383362	
-0.384094	
-0.384216	
-0.383972	
-0.383789	
-0.383362	
-0.383789	
-0.383728	
-0.383667	
-0.382874	
-0.382874	
-0.382874	
-0.38269	
-0.382935	
-0.382141	
-0.382751	
-0.381897	
-0.383057	
-0.38324	
-0.383057	
-0.382446	
-0.381775	
-0.382996	
-0.382813	
-0.382507	
-0.382568	
-0.382507	
-0.38269	
-0.384033	
-0.383118	
-0.383362	
-0.381775	
-0.383789	
-0.384399	
-0.383789	
-0.382263	
-0.382568	
-0.383911	
-0.385071	
-0.383423	
-0.384094	
-0.383057	
-0.384949	
-0.38446	
-0.383118	
-0.383911	
-0.383606	
-0.383972	
-0.384827	
-0.384277	
-0.384155	
-0.384216	
-0.384827	
-0.38385	
-0.382568	
-0.383362	
-0.383118	
-0.383972	
-0.382935	
-0.384277	
-0.382935	
-0.383789	
-0.382263	
-0.384216	
-0.382813	
-0.383423	
-0.382751	
-0.38324	
-0.384033	
-0.384827	
-0.383606	
-0.383728	
-0.383118	
-0.384949	
-0.384521	
-0.383972	
-0.383667	
-0.383301	
-0.385437	
-0.38562	
-0.386169	
-0.362976	
-0.363037	
-0.367554	
-0.36853	
-0.367798	
-0.368042	
-0.395935	
-0.391174	
-0.388733	
-0.387146	
-0.386536	
-0.386658	
-0.387207	
-0.386963	
-0.385559	
-0.385986	
-0.386353	
-0.385986	
-0.387329	
-0.385986	
-0.38623	
-0.386536	
-0.386047	
-0.385803	
-0.385132	
-0.385925	
-0.385864	
-0.385986	
-0.386353	
-0.387207	
-0.38623	
-0.385681	
-0.359924	
-0.364624	
-0.367615	
-0.368591	
-0.368103	
-0.368286	
-0.39801	
-0.391357	
-0.386841	
-0.385315	
-0.385132	
-0.384644	
-0.384216	
-0.383484	
-0.383362	
-0.383606	
-0.383301	
-0.384827	
-0.384338	
-0.38562	
-0.385864	
-0.388611	
-0.391052	
-0.393311	
-0.396667	
-0.399353	
-0.404358	
-0.408264	
-0.411438	
-0.415283	
-0.419739	
-0.424377	
-0.430237	
-0.435791	
-0.442017	
-0.447815	
-0.454041	
-0.458923	
-0.462524	
-0.465698	
-0.467407	
-0.468628	
-0.469666	
-0.46991	
-0.470398	
-0.470886	
-0.471436	
-0.471802	
-0.471558	
-0.472046	
-0.470886	
-0.470764	
-0.469116	
-0.468323	
-0.467041	
-0.466003	
-0.464783	
-0.464111	
-0.463013	
-0.462585	
-0.462463	
-0.462708	
-0.462158	
-0.462341	
-0.461975	
-0.461426	
-0.462708	
-0.462585	
-0.463684	
-0.464233	
-0.46698	
-0.468262	
-0.470459	
-0.470337	
-0.471802	
-0.470886	
-0.472473	
-0.473206	
-0.472595	
-0.472107	
-0.472412	
-0.473145	
-0.47467	
-0.473694	
-0.473083	
-0.473267	
-0.47467	
-0.47522	
-0.474976	
-0.474976	
-0.473877	
-0.475342	
-0.476318	
-0.475159	
-0.474731	
-0.47644	
-0.476746	
-0.477722	
-0.477112	
-0.476379	
-0.474854	
-0.474243	
-0.472168	
-0.468567	
-0.465637	
-0.46283	
-0.459534	
-0.455811	
-0.451782	
-0.447021	
-0.443237	
-0.437927	
-0.432617	
-0.426086	
-0.421021	
-0.414307	
-0.408142	
-0.40094	
-0.394531	
-0.386658	
-0.378235	
-0.368896	
-0.359741	
-0.349731	
-0.3396	
-0.328308	
-0.31842	
-0.308716	
-0.298706	
-0.288269	
-0.277832	
-0.269226	
-0.262207	
-0.255859	
-0.249939	
-0.245483	
-0.24231	
-0.241638	
-0.241455	
-0.240906	
-0.24054	
-0.240601	
-0.24353	
-0.245972	
-0.24762	
-0.250244	
-0.254639	
-0.26001	
-0.265198	
-0.270508	
-0.275024	
-0.279724	
-0.284119	
-0.289124	
-0.29425	
-0.297302	
-0.302124	
-0.305664	
-0.309021	
-0.312073	
-0.314697	
-0.317139	
-0.319031	
-0.319275	
-0.322388	
-0.323853	
-0.326111	
-0.329041	
-0.331055	
-0.333252	
-0.3349	
-0.339294	
-0.341187	
-0.343811	
-0.344788	
-0.348267	
-0.350586	
-0.354309	
-0.355896	
-0.357056	
-0.357605	
-0.359497	
-0.361084	
-0.362915	
-0.363953	
-0.364624	
-0.365173	
-0.366394	
-0.36731	
-0.367004	
-0.367371	
-0.366699	
-0.367615	
-0.367126	
-0.367737	
-0.366638	
-0.367004	
-0.366455	
-0.366394	
-0.365967	
-0.365723	
-0.364319	
-0.363464	
-0.363159	
-0.363281	
-0.362427	
-0.36261	
-0.361572	
-0.360596	
-0.359314	
-0.357117	
-0.355225	
-0.351563	
-0.350525	
-0.348328	
-0.347046	
-0.344971	
-0.343567	
-0.342224	
-0.342041	
-0.342102	
-0.342224	
-0.341431	
-0.341736	
-0.342041	
-0.34314	
-0.344055	
-0.344238	
-0.344727	
-0.344116	
-0.346558	
-0.347046	
-0.347107	
-0.346497	
-0.347961	
-0.348755	
-0.350769	
-0.351563	
-0.352417	
-0.352356	
-0.354675	
-0.354492	
-0.355042	
-0.354309	
-0.356445	
-0.357544	
-0.357605	
-0.358337	
-0.35907	
-0.359375	
-0.359924	
-0.359741	
-0.359619	
-0.359985	
-0.360168	
-0.361877	
-0.361755	
-0.362427	
-0.362	
-0.363159	
-0.36377	
-0.363464	
-0.363831	
-0.363281	
-0.364197	
-0.36499	
-0.364319	
-0.364868	
-0.363953	
-0.364563	
-0.364746	
-0.36377	
-0.364563	
-0.362793	
-0.365662	
-0.364136	
-0.364502	
-0.364929	
-0.365295	
-0.36377	
-0.363892	
-0.363098	
-0.363281	
-0.36145	
-0.362854	
-0.362671	
-0.362427	
-0.362488	
-0.36261	
-0.361511	
-0.362366	
-0.361694	
-0.362183	
-0.360596	
-0.362427	
-0.362671	
-0.362488	
-0.364197	
-0.363464	
-0.36377	
-0.363892	
-0.363403	
-0.363281	
-0.362793	
-0.36438	
-0.364929	
-0.365112	
-0.365967	
-0.365723	
-0.36615	
-0.366089	
-0.366272	
-0.367126	
-0.365601	
-0.367432	
-0.367676	
-0.368774	
-0.368591	
-0.369202	
-0.368835	
-0.370117	
-0.369385	
-0.370178	
-0.369141	
-0.371094	
-0.370728	
-0.371277	
-0.371094	
-0.371216	
-0.371826	
-0.372559	
-0.371094	
-0.371582	
-0.371033	
-0.372253	
-0.371887	
-0.371887	
-0.372925	
-0.372253	
-0.372925	
-0.373596	
-0.373657	
-0.373291	
-0.373413	
-0.374268	
-0.374451	
-0.374817	
-0.375183	
-0.375427	
-0.375183	
-0.37561	
-0.375061	
-0.375122	
-0.375122	
-0.375427	
-0.376099	
-0.375916	
-0.375366	
-0.375366	
-0.374695	
-0.376526	
-0.375122	
-0.375244	
-0.374512	
-0.375366	
-0.37616	
-0.375183	
-0.374756	
-0.374023	
-0.375183	
-0.375244	
-0.374084	
-0.374634	
-0.374084	
-0.375305	
-0.375549	
-0.375427	
-0.375366	
-0.374329	
-0.375305	
-0.375977	
-0.376099	
-0.375305	
-0.374817	
-0.375793	
-0.376282	
-0.376404	
-0.37561	
-0.375122	
-0.374329	
-0.375366	
-0.374146	
-0.374268	
-0.37323	
-0.374023	
-0.374817	
-0.375549	
-0.374207	
-0.375427	
-0.37384	
-0.375427	
-0.374512	
-0.37561	
-0.375549	
-0.375732	
-0.375854	
-0.376404	
-0.376404	
-0.377747	
-0.377747	
-0.37738	
-0.376038	
-0.376648	
-0.377502	
-0.377808	
-0.37793	
-0.377563	
-0.377563	
-0.377991	
-0.378357	
-0.376892	
-0.376038	
-0.375488	
-0.376648	
-0.376953	
-0.377502	
-0.376282	
-0.376953	
-0.377258	
-0.378113	
-0.37677	
-0.37616	
-0.37561	
-0.377197	
-0.37793	
-0.377869	
-0.377502	
-0.37738	
-0.378662	
-0.379089	
-0.378174	
-0.37738	
-0.377319	
-0.377747	
-0.378418	
-0.377747	
-0.378357	
-0.378235	
-0.379395	
-0.379639	
-0.378601	
-0.377991	
-0.377747	
-0.378418	
-0.378845	
-0.379333	
-0.379639	
-0.378967	
-0.380554	
-0.380737	
-0.3797	
-0.378845	
-0.378784	
-0.380737	
-0.380493	
-0.381104	
-0.380554	
-0.38092	
-0.381226	
-0.381531	
-0.380615	
-0.380005	
-0.380737	
-0.381592	
-0.381653	
-0.382202	
-0.38147	
-0.381287	
-0.382141	
-0.381958	
-0.381958	
-0.380371	
-0.381409	
-0.381042	
-0.38208	
-0.38147	
-0.380981	
-0.380981	
-0.382324	
-0.382874	
-0.381409	
-0.38031	
-0.380981	
-0.381836	
-0.382202	
-0.381958	
-0.38208	
-0.38208	
-0.382996	
-0.383667	
-0.381836	
-0.381531	
-0.381104	
-0.382874	
-0.382629	
-0.383423	
-0.382507	
-0.382568	
-0.383545	
-0.384094	
-0.382874	
-0.381592	
-0.38092	
-0.383179	
-0.383057	
-0.384094	
-0.384033	
-0.383423	
-0.384338	
-0.385193	
-0.384338	
-0.383362	
-0.383179	
-0.384399	
-0.385376	
-0.384155	
-0.385437	
-0.384155	
-0.385803	
-0.386597	
-0.385071	
-0.384033	
-0.38269	
-0.384949	
-0.385315	
-0.384888	
-0.38446	
-0.384216	
-0.385193	
-0.386169	
-0.383911	
-0.384155	
-0.381897	
-0.384216	
-0.383423	
-0.384155	
-0.382874	
-0.383301	
-0.382263	
-0.384094	
-0.382019	
-0.382935	
-0.379883	
-0.382446	
-0.382324	
-0.382568	
-0.381531	
-0.381897	
-0.381653	
-0.383606	
-0.38147	
-0.381836	
-0.379822	
-0.381531	
-0.381653	
-0.381042	
-0.38208	
-0.380493	
-0.381531	
-0.382568	
-0.381042	
-0.380981	
-0.379272	
-0.380615	
-0.381104	
-0.38147	
-0.382141	
-0.381042	
-0.381348	
-0.38269	
-0.381714	
-0.381531	
-0.379395	
-0.381775	
-0.381287	
-0.384033	
-0.381958	
-0.382568	
-0.380737	
-0.383911	
-0.381714	
-0.382263	
-0.38147	
-0.382874	
-0.38269	
-0.384094	
-0.382874	
-0.383545	
-0.381775	
-0.38385	
-0.382874	
-0.38269	
-0.381653	
-0.382324	
-0.382935	
-0.383057	
-0.383545	
-0.382141	
-0.381042	
-0.382629	
-0.382263	
-0.382263	
-0.38147	
-0.381897	
-0.382324	
-0.38269	
-0.382874	
-0.382385	
-0.381287	
-0.38147	
-0.382263	
-0.38269	
-0.381531	
-0.382996	
-0.382568	
-0.383728	
-0.382874	
-0.383301	
-0.381714	
-0.382935	
-0.382813	
-0.383728	
-0.383423	
-0.384583	
-0.384521	
-0.385925	
-0.385803	
-0.385559	
-0.384521	
-0.384827	
-0.385132	
-0.385193	
-0.38501	
-0.385071	
-0.386108	
-0.386414	
-0.386414	
-0.385498	
-0.385315	
-0.385193	
-0.387024	
-0.38562	
-0.385559	
-0.384766	
-0.386169	
-0.386108	
-0.386169	
-0.385681	
-0.384583	
-0.38501	
-0.38623	
-0.385437	
-0.385193	
-0.384033	
-0.385437	
-0.386414	
-0.385071	
-0.385864	
-0.384888	
-0.386414	
-0.385681	
-0.385864	
-0.384827	
-0.383972	
-0.384521	
-0.384766	
-0.384644	
-0.383667	
-0.382568	
-0.383118	
-0.383667	
-0.382751	
-0.382019	
-0.381775	
-0.382263	
-0.38324	
-0.382446	
-0.382263	
-0.381714	
-0.382019	
-0.382935	
-0.381958	
-0.381958	
-0.381531	
-0.382202	
-0.38324	
-0.382263	
-0.382568	
-0.381775	
-0.382324	
-0.383484	
-0.382507	
-0.382629	
-0.38147	
-0.382935	
-0.383606	
-0.383423	
-0.383911	
-0.382568	
-0.382874	
-0.383484	
-0.382568	
-0.383118	
-0.381836	
-0.382813	
-0.382813	
-0.38269	
-0.383667	
-0.383667	
-0.383728	
-0.382446	
-0.383545	
-0.383545	
-0.382874	
-0.383728	
-0.383789	
-0.383484	
-0.384521	
-0.384277	
-0.383423	
-0.383362	
-0.383423	
-0.383728	
-0.383667	
-0.383484	
-0.384216	
-0.383728	
-0.384766	
-0.384277	
-0.38385	
-0.382568	
-0.382996	
-0.383118	
-0.382813	
-0.383362	
-0.383545	
-0.382935	
-0.384094	
-0.384155	
-0.383179	
-0.382446	
-0.38385	
-0.383606	
-0.384399	
-0.383423	
-0.384521	
-0.38446	
-0.385193	
-0.38501	
-0.384033	
-0.383667	
-0.384399	
-0.384827	
-0.384644	
-0.383057	
-0.384827	
-0.384521	
-0.384705	
-0.384705	
-0.384277	
-0.383972	
-0.384705	
-0.384766	
-0.384338	
-0.383057	
-0.384644	
-0.384949	
-0.385071	
-0.384705	
-0.384644	
-0.383545	
-0.384705	
-0.384399	
-0.384033	
-0.382874	
-0.384399	
-0.385437	
-0.385254	
-0.384705	
-0.38385	
-0.383057	
-0.383911	
-0.383484	
-0.383606	
-0.382935	
-0.384216	
-0.384827	
-0.384155	
-0.384583	
-0.382507	
-0.382507	
-0.382935	
-0.383423	
-0.383911	
-0.382751	
-0.383362	
-0.38446	
-0.384155	
-0.38385	
-0.381653	
-0.383484	
-0.383118	
-0.384155	
-0.382507	
-0.383118	
-0.382996	
-0.38385	
-0.384094	
-0.384277	
-0.382935	
-0.383728	
-0.382996	
-0.384399	
-0.383667	
-0.383362	
-0.382385	
-0.383667	
-0.383118	
-0.383728	
-0.383423	
-0.382568	
-0.383057	
-0.383972	
-0.383118	
-0.383118	
-0.382324	
-0.383545	
-0.383301	
-0.383118	
-0.382446	
-0.382202	
-0.382629	
-0.38446	
-0.382874	
-0.382751	
-0.381836	
-0.383606	
-0.383423	
-0.382874	
-0.382263	
-0.38208	
-0.382019	
-0.38324	
-0.381836	
-0.382141	
-0.380371	
-0.381714	
-0.381714	
-0.381836	
-0.381226	
-0.381287	
-0.381042	
-0.381653	
-0.381226	
-0.38092	
-0.380615	
-0.381531	
-0.38208	
-0.381592	
-0.381592	
-0.381104	
-0.381531	
-0.381348	
-0.382385	
-0.382141	
-0.38269	
-0.382751	
-0.384399	
-0.383179	
-0.384338	
-0.383057	
-0.383728	
-0.383484	
-0.384277	
-0.384277	
-0.383606	
-0.383484	
-0.385254	
-0.385254	
-0.385071	
-0.383301	
-0.384033	
-0.384766	
-0.385498	
-0.384888	
-0.384399	
-0.384705	
-0.385986	
-0.386963	
-0.386108	
-0.38446	
-0.384644	
-0.385437	
-0.38678	
-0.38562	
-0.385742	
-0.38562	
-0.386658	
-0.38678	
-0.386597	
-0.385437	
-0.385559	
-0.385803	
-0.386719	
-0.385254	
-0.386047	
-0.385864	
-0.386353	
-0.385376	
-0.385254	
-0.384766	
-0.38501	
-0.384705	
-0.38562	
-0.384827	
-0.384583	
-0.383789	
-0.384399	
-0.384949	
-0.384766	
-0.384644	
-0.384583	
-0.384888	
-0.385254	
-0.384521	
-0.384399	
-0.384033	
-0.384521	
-0.385315	
-0.384705	
-0.384827	
-0.38501	
-0.385559	
-0.386047	
-0.385559	
-0.385254	
-0.384094	
-0.385132	
-0.386536	
-0.385864	
-0.385559	
-0.38446	
-0.385193	
-0.385681	
-0.386292	
-0.385437	
-0.384216	
-0.384338	
-0.385559	
-0.386108	
-0.385193	
-0.383484	
-0.383789	
-0.383667	
-0.384949	
-0.38385	
-0.383545	
-0.383118	
-0.384094	
-0.38385	
-0.383728	
-0.382446	
-0.381348	
-0.381592	
-0.38269	
-0.382507	
-0.382019	
-0.381714	
-0.382385	
-0.382568	
-0.383362	
-0.382141	
-0.381592	
-0.382141	
-0.382507	
-0.382385	
-0.382019	
-0.38208	
-0.382385	
-0.382813	
-0.382935	
-0.381958	
-0.382019	
-0.382507	
-0.382874	
-0.382629	
-0.38208	
-0.382568	
-0.381897	
-0.382996	
-0.382629	
-0.382507	
-0.381531	
-0.382019	
-0.38269	
-0.383789	
-0.382568	
-0.383057	
-0.382751	
-0.385498	
-0.384094	
-0.384155	
-0.383301	
-0.384766	
-0.385437	
-0.385437	
-0.385681	
-0.384766	
-0.384766	
-0.386108	
-0.386597	
-0.385986	
-0.385071	
-0.386169	
-0.387512	
-0.386658	
-0.386353	
-0.384827	
-0.386169	
-0.386963	
-0.38678	
-0.386108	
-0.385193	
-0.385803	
-0.386292	
-0.385925	
-0.385132	
-0.385132	
-0.385071	
-0.38623	
-0.386108	
-0.386414	
-0.38501	
-0.384766	
-0.38446	
-0.386108	
-0.385071	
-0.385254	
-0.385193	
-0.385681	
-0.385864	
-0.385864	
-0.384949	
-0.384216	
-0.384888	
-0.385376	
-0.385437	
-0.384583	
-0.385071	
-0.384888	
-0.385559	
-0.384583	
-0.384216	
-0.38324	
-0.384277	
-0.38501	
-0.385742	
-0.384033	
-0.384521	
-0.384766	
-0.385437	
-0.385132	
-0.384888	
-0.383301	
-0.385193	
-0.385376	
-0.385742	
-0.384644	
-0.38501	
-0.38446	
-0.386169	
-0.385742	
-0.385132	
-0.384155	
-0.384338	
-0.385315	
-0.385132	
-0.38385	
-0.383728	
-0.383179	
-0.384583	
-0.385193	
-0.384399	
-0.383911	
-0.382813	
-0.385437	
-0.384338	
-0.383911	
-0.382935	
-0.383118	
-0.384277	
-0.384521	
-0.385071	
-0.383545	
-0.383911	
-0.384888	
-0.384644	
-0.383667	
-0.383728	
-0.383789	
-0.384766	
-0.384583	
-0.384888	
-0.383972	
-0.384033	
-0.384155	
-0.384644	
-0.384277	
-0.383728	
-0.384583	
-0.38446	
-0.384888	
-0.385071	
-0.384949	
-0.38385	
-0.382751	
-0.384399	
-0.385071	
-0.384521	
-0.384766	
-0.384766	
-0.385437	
-0.385864	
-0.385071	
-0.385376	
-0.384827	
-0.385559	
-0.385986	
-0.385071	
-0.385437	
-0.385376	
-0.386353	
-0.386658	
-0.385742	
-0.384766	
-0.384888	
-0.386169	
-0.385681	
-0.385376	
-0.384827	
-0.384094	
-0.385864	
-0.385681	
-0.38501	
-0.383911	
-0.384949	
-0.385925	
-0.385681	
-0.385254	
-0.384888	
-0.384888	
-0.386169	
-0.385437	
-0.38678	
-0.384338	
-0.385986	
-0.384521	
-0.386169	
-0.384949	
-0.384766	
-0.384949	
-0.385864	
-0.385986	
-0.387329	
-0.385193	
-0.38562	
-0.384338	
-0.386475	
-0.386047	
-0.38501	
-0.385315	
-0.385254	
-0.386047	
-0.387329	
-0.386841	
-0.385803	
-0.386353	
-0.386597	
-0.387146	
-0.386414	
-0.387329	
-0.387329	
-0.387817	
-0.388	
-0.387146	
-0.386902	
-0.387756	
-0.387695	
-0.388062	
-0.386719	
-0.387085	
-0.386353	
-0.388367	
-0.388	
-0.386353	
-0.386536	
-0.386658	
-0.386536	
-0.386841	
-0.386108	
-0.385742	
-0.38501	
-0.386292	
-0.385315	
-0.385559	
-0.384277	
-0.384705	
-0.38385	
-0.384827	
-0.38446	
-0.384277	
-0.383606	
-0.38446	
-0.383972	
-0.38446	
-0.382874	
-0.383362	
-0.383911	
-0.383728	
-0.383179	
-0.382996	
-0.382813	
-0.383057	
-0.382996	
-0.384033	
-0.382507	
-0.382629	
-0.383423	
-0.382751	
-0.382568	
-0.381531	
-0.382446	
-0.382813	
-0.382874	
-0.383911	
-0.382385	
-0.382507	
-0.382751	
-0.382935	
-0.384338	
-0.382629	
-0.383301	
-0.382324	
-0.384155	
-0.384521	
-0.383484	
-0.383545	
-0.382568	
-0.383606	
-0.384277	
-0.383545	
-0.384155	
-0.383484	
-0.384644	
-0.384949	
-0.384521	
-0.383057	
-0.382874	
-0.383789	
-0.384277	
-0.383728	
-0.383606	
-0.383606	
-0.384644	
-0.384521	
-0.384094	
-0.382446	
-0.383057	
-0.383118	
-0.383911	
-0.383423	
-0.38269	
-0.38385	
-0.383911	
-0.383545	
-0.383972	
-0.382874	
-0.38324	
-0.383728	
-0.384216	
-0.383667	
-0.383545	
-0.384033	
-0.384216	
-0.384033	
-0.384277	
-0.383911	
-0.384155	
-0.384705	
-0.385193	
-0.385071	
-0.384094	
-0.385071	
-0.386169	
-0.386292	
-0.386169	
-0.385925	
-0.385742	
-0.386414	
-0.385986	
-0.387207	
-0.385925	
-0.386536	
-0.385742	
-0.386169	
-0.386902	
-0.387146	
-0.385803	
-0.38623	
-0.385315	
-0.387268	
-0.385803	
-0.386047	
-0.385376	
-0.386597	
-0.386719	
-0.386292	
-0.385803	
-0.384949	
-0.385925	
-0.386414	
-0.385681	
-0.385925	
-0.386169	
-0.386292	
-0.386292	
-0.38623	
-0.385254	
-0.385071	
-0.385803	
-0.385864	
-0.385132	
-0.38385	
-0.383789	
-0.385254	
-0.383728	
-0.383484	
-0.383057	
-0.383728	
-0.38324	
-0.382324	
-0.382324	
-0.381531	
-0.382202	
-0.383362	
-0.382629	
-0.38269	
-0.382568	
-0.382019	
-0.383057	
-0.381409	
-0.383301	
-0.381531	
-0.382019	
-0.381897	
-0.382629	
-0.382385	
-0.382385	
-0.382813	
-0.383423	
-0.382751	
-0.383789	
-0.38208	
-0.383484	
-0.383606	
-0.383362	
-0.382996	
-0.382507	
-0.382935	
-0.382874	
-0.382874	
-0.382813	
-0.382629	
-0.382446	
-0.382629	
-0.383179	
-0.383972	
-0.382935	
-0.383667	
-0.38324	
-0.383606	
-0.382202	
-0.383728	
-0.383057	
-0.383545	
-0.383667	
-0.384216	
-0.383972	
-0.38385	
-0.382507	
-0.383667	
-0.383362	
-0.384705	
-0.383423	
-0.383728	
-0.382996	
-0.383972	
-0.383057	
-0.38324	
-0.38269	
-0.383545	
-0.383118	
-0.383728	
-0.381287	
-0.382507	
-0.382813	
-0.383911	
-0.383667	
-0.383667	
-0.383362	
-0.384399	
-0.38385	
-0.383789	
-0.382813	
-0.38385	
-0.385071	
-0.384521	
-0.384338	
-0.382935	
-0.383911	
-0.384583	
-0.38385	
-0.383667	
-0.384277	
-0.384399	
-0.384216	
-0.384399	
-0.383667	
-0.383545	
-0.384338	
-0.384644	
-0.383911	
-0.383911	
-0.385559	
-0.384094	
-0.384277	
-0.383423	
-0.384155	
-0.38385	
-0.384888	
-0.385498	
-0.384583	
-0.383484	
-0.384888	
-0.383545	
-0.384277	
-0.382813	
-0.384155	
-0.383667	
-0.384277	
-0.383728	
-0.383545	
-0.383545	
-0.38324	
-0.381958	
-0.382996	
-0.383789	
-0.383606	
-0.382507	
-0.382874	
-0.382202	
-0.383423	
-0.382751	
-0.383118	
-0.382813	
-0.382568	
-0.384094	
-0.383118	
-0.382996	
-0.381836	
-0.381409	
-0.383972	
-0.382507	
-0.38324	
-0.383484	
-0.382996	
-0.383606	
-0.38269	
-0.383423	
-0.382263	
-0.383118	
-0.383179	
-0.382813	
-0.382935	
-0.382568	
-0.382751	
-0.382629	
-0.382324	
-0.382446	
-0.382385	
-0.383362	
-0.382324	
-0.38269	
-0.381348	
-0.382751	
-0.382385	
-0.38269	
-0.382507	
-0.382324	
-0.382446	
-0.382935	
-0.382324	
-0.382935	
-0.381714	
-0.382629	
-0.382385	
-0.382263	
-0.381531	
-0.381897	
-0.381409	
-0.38147	
-0.380981	
-0.381775	
-0.38031	
-0.381104	
-0.380249	
-0.381104	
-0.381348	
-0.381348	
-0.380798	
-0.380859	
-0.380249	
-0.381287	
-0.380554	
-0.381165	
-0.38092	
-0.380432	
-0.382019	
-0.380188	
-0.38147	
-0.380371	
-0.382263	
-0.382385	
-0.382629	
-0.382446	
-0.383606	
-0.382751	
-0.383728	
-0.382874	
-0.382996	
-0.382751	
-0.384705	
-0.384033	
-0.383545	
-0.382996	
-0.384155	
-0.384644	
-0.384399	
-0.38446	
-0.38446	
-0.384644	
-0.384949	
-0.385132	
-0.385315	
-0.383484	
-0.384888	
-0.385376	
-0.385803	
-0.384949	
-0.386292	
-0.385498	
-0.385986	
-0.384277	
-0.385437	
-0.384766	
-0.385559	
-0.384583	
-0.385681	
-0.384216	
-0.38678	
-0.385071	
-0.385437	
-0.383728	
-0.385986	
-0.38501	
-0.384094	
-0.384827	
-0.384033	
-0.38446	
-0.383545	
-0.38324	
-0.383728	
-0.384644	
-0.384888	
-0.383484	
-0.383789	
-0.383972	
-0.384033	
-0.385498	
-0.383972	
-0.384705	
-0.382935	
-0.384766	
-0.385254	
-0.384338	
-0.383301	
-0.383728	
-0.384338	
-0.384949	
-0.384827	
-0.385254	
-0.384094	
-0.385498	
-0.385132	
-0.384705	
-0.384277	
-0.384583	
-0.385193	
-0.384949	
-0.385071	
-0.385376	
-0.384705	
-0.385315	
-0.383911	
-0.384521	
-0.38385	
-0.384583	
-0.385193	
-0.384521	
-0.384155	
-0.38501	
-0.383179	
-0.383484	
-0.382874	
-0.383362	
-0.382263	
-0.382813	
-0.383057	
-0.382446	
-0.382324	
-0.381775	
-0.382019	
-0.382629	
-0.381775	
-0.382324	
-0.38147	
-0.381226	
-0.381714	
-0.382324	
-0.382507	
-0.381592	
-0.382324	
-0.381531	
-0.382813	
-0.382935	
-0.381958	
-0.380798	
-0.381226	
-0.38208	
-0.382751	
-0.381592	
-0.382324	
-0.381409	
-0.383057	
-0.382446	
-0.382874	
-0.381714	
-0.381592	
-0.38269	
-0.383057	
-0.382019	
-0.382751	
-0.382263	
-0.383606	
-0.382263	
-0.383484	
-0.383789	
-0.384155	
-0.384155	
-0.384338	
-0.384888	
-0.385498	
-0.384705	
-0.385437	
-0.38446	
-0.385437	
-0.385193	
-0.385803	
-0.386169	
-0.385986	
-0.386597	
-0.385437	
-0.386047	
-0.384888	
-0.386169	
-0.386047	
-0.385559	
-0.386047	
-0.387024	
-0.385986	
-0.385925	
-0.385376	
-0.384888	
-0.384888	
-0.385132	
-0.385742	
-0.384705	
-0.385437	
-0.384521	
-0.384888	
-0.385681	
-0.385376	
-0.385437	
-0.385193	
-0.385559	
-0.385742	
-0.38501	
-0.383728	
-0.384583	
-0.38501	
-0.38501	
-0.384583	
-0.386108	
-0.384644	
-0.385925	
-0.385315	
-0.384583	
-0.383423	
-0.384399	
-0.384399	
-0.384949	
-0.384338	
-0.385193	
-0.384521	
-0.385498	
-0.384399	
-0.384766	
-0.384094	
-0.38501	
-0.385376	
-0.385193	
-0.385681	
-0.385193	
-0.38501	
-0.384583	
-0.385132	
-0.384949	
-0.385254	
-0.385437	
-0.386047	
-0.385071	
-0.38562	
-0.383789	
-0.384583	
-0.383789	
-0.384216	
-0.384705	
-0.383911	
-0.384033	
-0.384521	
-0.383728	
-0.384521	
-0.383545	
-0.384521	
-0.383789	
-0.384583	
-0.384644	
-0.383545	
-0.38324	
-0.383911	
-0.384338	
	
