C:\DOCUMENTS AND SETTINGS\JASON\DESKTOP\UFRJ\UFRJ EPHYS\RSCI-BM 12 WK SERIES\070806-RSCI-BM-16\RSCI-BM-16-LEMG\070806-RSCI-BM-16-LEMG-0006.ACQ
0.025000 msec/sample
1 channel
Analog input
Volts
CH1	
2000	
-0.388672	
-0.387146	
-0.38739	
-0.387024	
-0.387695	
-0.387878	
-0.387329	
-0.387573	
-0.387085	
-0.387085	
-0.387146	
-0.387024	
-0.38739	
-0.38678	
-0.386841	
-0.386658	
-0.387634	
-0.386475	
-0.386414	
-0.38623	
-0.386414	
-0.386475	
-0.385071	
-0.385864	
-0.386353	
-0.385559	
-0.386108	
-0.383667	
-0.38501	
-0.383789	
-0.384216	
-0.384644	
-0.383545	
-0.383728	
-0.384033	
-0.383789	
-0.384583	
-0.383301	
-0.383789	
-0.382813	
-0.383911	
-0.384033	
-0.383606	
-0.383911	
-0.38385	
-0.384216	
-0.384644	
-0.383728	
-0.383789	
-0.383179	
-0.384888	
-0.384155	
-0.384705	
-0.382996	
-0.384583	
-0.384521	
-0.384277	
-0.384949	
-0.384216	
-0.383972	
-0.383301	
-0.384216	
-0.385315	
-0.383972	
-0.384216	
-0.383911	
-0.384094	
-0.385437	
-0.382813	
-0.383972	
-0.383179	
-0.384277	
-0.384338	
-0.383911	
-0.384644	
-0.384521	
-0.384827	
-0.385376	
-0.38446	
-0.384644	
-0.384277	
-0.385132	
-0.385193	
-0.38501	
-0.384949	
-0.384949	
-0.384766	
-0.385254	
-0.385559	
-0.384766	
-0.384766	
-0.384827	
-0.384583	
-0.385254	
-0.383179	
-0.38446	
-0.384033	
-0.384827	
-0.385742	
-0.384216	
-0.385315	
-0.385681	
-0.385864	
-0.386169	
-0.385315	
-0.386108	
-0.386536	
-0.386108	
-0.387085	
-0.385742	
-0.386292	
-0.385132	
-0.386719	
-0.386658	
-0.386169	
-0.386597	
-0.386536	
-0.386536	
-0.387207	
-0.386597	
-0.386902	
-0.386719	
-0.386963	
-0.386536	
-0.38678	
-0.387024	
-0.386841	
-0.385803	
-0.386841	
-0.38739	
-0.386169	
-0.386719	
-0.385742	
-0.386353	
-0.386658	
-0.385864	
-0.386353	
-0.386108	
-0.385864	
-0.387085	
-0.385437	
-0.385559	
-0.38501	
-0.385864	
-0.385437	
-0.384033	
-0.385681	
-0.38562	
-0.384949	
-0.385986	
-0.38385	
-0.384583	
-0.384399	
-0.384827	
-0.384766	
-0.384338	
-0.384705	
-0.38501	
-0.384705	
-0.38501	
-0.384949	
-0.383911	
-0.384155	
-0.384521	
-0.384583	
-0.385498	
-0.384399	
-0.384277	
-0.383118	
-0.383728	
-0.383972	
-0.382751	
-0.382751	
-0.381897	
-0.38269	
-0.38269	
-0.381897	
-0.381958	
-0.382874	
-0.382019	
-0.382813	
-0.380615	
-0.381592	
-0.380737	
-0.381592	
-0.381531	
-0.380554	
-0.381592	
-0.381409	
-0.381348	
-0.382446	
-0.381897	
-0.381653	
-0.381531	
-0.381836	
-0.381714	
-0.382385	
-0.362671	
-0.360657	
-0.363098	
-0.36377	
-0.364502	
-0.363953	
-0.387878	
-0.384888	
-0.383728	
-0.383911	
-0.382385	
-0.382751	
-0.381287	
-0.383301	
-0.383606	
-0.382446	
-0.382813	
-0.383118	
-0.382751	
-0.383484	
-0.382813	
-0.383545	
-0.383667	
-0.384033	
-0.36261	
-0.362854	
-0.365662	
-0.365723	
-0.366699	
-0.366577	
-0.391846	
-0.388672	
-0.387268	
-0.385437	
-0.386902	
-0.384705	
-0.38562	
-0.384583	
-0.385681	
-0.385132	
-0.385498	
-0.384949	
-0.385193	
-0.38446	
-0.385315	
-0.385193	
-0.384399	
-0.384277	
-0.384094	
-0.385132	
-0.385376	
-0.386597	
-0.388611	
-0.389465	
-0.392883	
-0.395447	
-0.398376	
-0.401917	
-0.405518	
-0.409729	
-0.412964	
-0.416748	
-0.421143	
-0.425354	
-0.431274	
-0.43573	
-0.441589	
-0.446472	
-0.451843	
-0.457458	
-0.461609	
-0.464355	
-0.466431	
-0.466736	
-0.468445	
-0.468384	
-0.468384	
-0.467285	
-0.467957	
-0.468384	
-0.467834	
-0.467712	
-0.467957	
-0.466492	
-0.465637	
-0.464417	
-0.462891	
-0.461853	
-0.461426	
-0.460266	
-0.460022	
-0.458923	
-0.459412	
-0.459167	
-0.457703	
-0.458496	
-0.458496	
-0.458862	
-0.459778	
-0.459106	
-0.459167	
-0.460205	
-0.463013	
-0.463501	
-0.464478	
-0.465881	
-0.46637	
-0.466675	
-0.467285	
-0.466553	
-0.46637	
-0.466431	
-0.467041	
-0.467529	
-0.467957	
-0.468262	
-0.468323	
-0.467651	
-0.467773	
-0.467102	
-0.467712	
-0.467773	
-0.467468	
-0.468445	
-0.46759	
-0.468262	
-0.468201	
-0.468689	
-0.468628	
-0.468445	
-0.470337	
-0.469788	
-0.469421	
-0.469666	
-0.467102	
-0.466248	
-0.463135	
-0.460999	
-0.457703	
-0.45459	
-0.451843	
-0.448242	
-0.444458	
-0.440369	
-0.43512	
-0.429993	
-0.424377	
-0.419617	
-0.413391	
-0.40741	
-0.400696	
-0.394165	
-0.386597	
-0.379333	
-0.370789	
-0.362305	
-0.352661	
-0.343323	
-0.33252	
-0.32251	
-0.311035	
-0.302063	
-0.292725	
-0.284668	
-0.277527	
-0.270508	
-0.265869	
-0.261475	
-0.258972	
-0.257141	
-0.257446	
-0.258606	
-0.259888	
-0.262451	
-0.264404	
-0.265991	
-0.269531	
-0.272156	
-0.275513	
-0.277954	
-0.28064	
-0.285095	
-0.288879	
-0.292664	
-0.296082	
-0.299438	
-0.302856	
-0.305786	
-0.308533	
-0.311707	
-0.314819	
-0.317993	
-0.32135	
-0.324585	
-0.327698	
-0.330811	
-0.334351	
-0.337708	
-0.341187	
-0.345154	
-0.348267	
-0.351563	
-0.354248	
-0.358154	
-0.360962	
-0.363525	
-0.36554	
-0.367554	
-0.369263	
-0.370911	
-0.37207	
-0.372437	
-0.373596	
-0.374146	
-0.373718	
-0.373901	
-0.374634	
-0.375305	
-0.374939	
-0.37561	
-0.37616	
-0.377197	
-0.377991	
-0.378296	
-0.377441	
-0.377014	
-0.377258	
-0.377197	
-0.375671	
-0.375488	
-0.375488	
-0.374878	
-0.374634	
-0.373047	
-0.370361	
-0.367737	
-0.36499	
-0.361755	
-0.358826	
-0.356018	
-0.35376	
-0.350647	
-0.348999	
-0.346619	
-0.343445	
-0.341125	
-0.34021	
-0.339417	
-0.338623	
-0.336914	
-0.337402	
-0.336853	
-0.336975	
-0.334839	
-0.334106	
-0.332092	
-0.332397	
-0.330017	
-0.32843	
-0.325684	
-0.325012	
-0.323669	
-0.32312	
-0.320984	
-0.320801	
-0.319519	
-0.320557	
-0.320068	
-0.32019	
-0.319885	
-0.321472	
-0.322205	
-0.324768	
-0.325195	
-0.326477	
-0.326965	
-0.330811	
-0.331543	
-0.333923	
-0.335754	
-0.338013	
-0.340576	
-0.344421	
-0.344727	
-0.346924	
-0.346313	
-0.349792	
-0.35199	
-0.353455	
-0.354553	
-0.355408	
-0.356689	
-0.35907	
-0.358276	
-0.358704	
-0.357422	
-0.359497	
-0.359131	
-0.359619	
-0.360046	
-0.359619	
-0.359558	
-0.361145	
-0.359375	
-0.359436	
-0.358643	
-0.359802	
-0.359558	
-0.360291	
-0.360229	
-0.359924	
-0.360107	
-0.361328	
-0.360413	
-0.360718	
-0.361816	
-0.361511	
-0.361511	
-0.36084	
-0.362793	
-0.362976	
-0.36322	
-0.362976	
-0.364136	
-0.364624	
-0.366089	
-0.364868	
-0.365601	
-0.363953	
-0.366394	
-0.366272	
-0.366516	
-0.366821	
-0.368225	
-0.367249	
-0.36853	
-0.366394	
-0.368408	
-0.367737	
-0.368774	
-0.368225	
-0.368774	
-0.368652	
-0.368896	
-0.36908	
-0.369568	
-0.368713	
-0.368896	
-0.368469	
-0.369507	
-0.369141	
-0.369446	
-0.369507	
-0.370667	
-0.369629	
-0.369568	
-0.367981	
-0.369324	
-0.369141	
-0.369629	
-0.369934	
-0.369873	
-0.369446	
-0.370544	
-0.370056	
-0.369995	
-0.36853	
-0.369568	
-0.369263	
-0.36969	
-0.370972	
-0.370605	
-0.370667	
-0.370117	
-0.370789	
-0.371277	
-0.370728	
-0.371582	
-0.371216	
-0.371826	
-0.372742	
-0.371887	
-0.371704	
-0.371582	
-0.372803	
-0.373047	
-0.371643	
-0.372742	
-0.372314	
-0.372864	
-0.373657	
-0.37262	
-0.373413	
-0.37323	
-0.373535	
-0.373962	
-0.372864	
-0.373901	
-0.37262	
-0.373962	
-0.374939	
-0.373962	
-0.374146	
-0.374939	
-0.374451	
-0.374817	
-0.373108	
-0.374451	
-0.373474	
-0.375061	
-0.375488	
-0.375488	
-0.375854	
-0.376343	
-0.376343	
-0.376343	
-0.375671	
-0.376282	
-0.376282	
-0.376587	
-0.376465	
-0.37677	
-0.376404	
-0.377258	
-0.376709	
-0.376343	
-0.376526	
-0.375916	
-0.376587	
-0.376587	
-0.376648	
-0.376587	
-0.376587	
-0.376953	
-0.376953	
-0.376953	
-0.375549	
-0.376038	
-0.376404	
-0.376953	
-0.377502	
-0.378052	
-0.378052	
-0.378357	
-0.379028	
-0.378052	
-0.377258	
-0.37738	
-0.378174	
-0.378784	
-0.378662	
-0.378784	
-0.379761	
-0.380005	
-0.379883	
-0.37915	
-0.378723	
-0.378967	
-0.379333	
-0.3797	
-0.380066	
-0.379578	
-0.380005	
-0.38031	
-0.38092	
-0.379639	
-0.37915	
-0.378967	
-0.379272	
-0.380432	
-0.380066	
-0.380005	
-0.380127	
-0.38092	
-0.380737	
-0.380066	
-0.379089	
-0.379333	
-0.380005	
-0.380371	
-0.38031	
-0.38092	
-0.380371	
-0.380798	
-0.380371	
-0.380066	
-0.379883	
-0.379761	
-0.380432	
-0.380188	
-0.380127	
-0.380188	
-0.380432	
-0.381348	
-0.380737	
-0.3797	
-0.379456	
-0.378967	
-0.379089	
-0.378174	
-0.379517	
-0.378784	
-0.378906	
-0.379333	
-0.379822	
-0.378967	
-0.378662	
-0.378052	
-0.378845	
-0.377747	
-0.379456	
-0.379333	
-0.379517	
-0.380249	
-0.380249	
-0.379456	
-0.379395	
-0.378723	
-0.379272	
-0.378357	
-0.380371	
-0.380371	
-0.380005	
-0.380127	
-0.380981	
-0.380066	
-0.380371	
-0.379517	
-0.380676	
-0.379333	
-0.381226	
-0.380737	
-0.380615	
-0.380615	
-0.381348	
-0.380554	
-0.380676	
-0.3797	
-0.380859	
-0.379761	
-0.38147	
-0.380737	
-0.381348	
-0.38208	
-0.381836	
-0.381226	
-0.381592	
-0.380432	
-0.381775	
-0.38092	
-0.382141	
-0.381958	
-0.382019	
-0.383057	
-0.382751	
-0.381958	
-0.381653	
-0.381104	
-0.381775	
-0.381348	
-0.382385	
-0.381958	
-0.381958	
-0.382385	
-0.382568	
-0.382019	
-0.38147	
-0.381897	
-0.382141	
-0.382141	
-0.382996	
-0.382751	
-0.38324	
-0.38385	
-0.384277	
-0.383362	
-0.383423	
-0.383301	
-0.383667	
-0.384155	
-0.384277	
-0.384216	
-0.384155	
-0.384583	
-0.385315	
-0.383972	
-0.384399	
-0.384094	
-0.384827	
-0.384827	
-0.385254	
-0.385071	
-0.384888	
-0.385315	
-0.385559	
-0.384766	
-0.384827	
-0.384216	
-0.385315	
-0.385071	
-0.38562	
-0.385132	
-0.38501	
-0.384583	
-0.385132	
-0.384277	
-0.384705	
-0.383545	
-0.384888	
-0.38446	
-0.384949	
-0.383972	
-0.384399	
-0.383362	
-0.384644	
-0.383545	
-0.383789	
-0.383362	
-0.383484	
-0.383301	
-0.384155	
-0.383362	
-0.38324	
-0.38269	
-0.384521	
-0.383301	
-0.383057	
-0.383362	
-0.382996	
-0.383606	
-0.382996	
-0.382996	
-0.383362	
-0.382446	
-0.384277	
-0.382874	
-0.382324	
-0.382507	
-0.382507	
-0.382385	
-0.382019	
-0.382263	
-0.381653	
-0.380859	
-0.382324	
-0.380676	
-0.380493	
-0.381042	
-0.381226	
-0.380432	
-0.380371	
-0.380554	
-0.38031	
-0.380432	
-0.381287	
-0.380127	
-0.379395	
-0.380737	
-0.38092	
-0.380554	
-0.381592	
-0.38092	
-0.380737	
-0.380676	
-0.381775	
-0.381165	
-0.380493	
-0.380432	
-0.381042	
-0.381042	
-0.381897	
-0.381165	
-0.381287	
-0.380798	
-0.382446	
-0.381653	
-0.380981	
-0.380615	
-0.381836	
-0.382202	
-0.382629	
-0.382324	
-0.382324	
-0.381714	
-0.383118	
-0.382446	
-0.382385	
-0.381897	
-0.382813	
-0.383728	
-0.38385	
-0.384155	
-0.384094	
-0.383789	
-0.385132	
-0.384094	
-0.384216	
-0.383179	
-0.384277	
-0.384583	
-0.385315	
-0.384949	
-0.384338	
-0.384033	
-0.385254	
-0.38385	
-0.383667	
-0.383118	
-0.384949	
-0.383667	
-0.384155	
-0.38324	
-0.383911	
-0.38385	
-0.385193	
-0.383972	
-0.383545	
-0.382813	
-0.385193	
-0.384155	
-0.384888	
-0.38324	
-0.38446	
-0.38446	
-0.38562	
-0.384521	
-0.384033	
-0.382996	
-0.385315	
-0.384399	
-0.384277	
-0.38324	
-0.384399	
-0.384155	
-0.385315	
-0.384888	
-0.38446	
-0.383057	
-0.383789	
-0.384216	
-0.384277	
-0.383057	
-0.384216	
-0.383789	
-0.385132	
-0.384888	
-0.383789	
-0.382446	
-0.383423	
-0.384094	
-0.384094	
-0.383545	
-0.383484	
-0.383911	
-0.384399	
-0.384827	
-0.384521	
-0.383606	
-0.383423	
-0.384033	
-0.384155	
-0.384705	
-0.384094	
-0.38446	
-0.383362	
-0.384888	
-0.38385	
-0.383545	
-0.382874	
-0.38385	
-0.384277	
-0.384399	
-0.383606	
-0.383728	
-0.382263	
-0.383667	
-0.382324	
-0.382324	
-0.381897	
-0.382568	
-0.38269	
-0.382568	
-0.38208	
-0.381958	
-0.38092	
-0.382385	
-0.381714	
-0.381165	
-0.380615	
-0.381226	
-0.38147	
-0.381714	
-0.381348	
-0.380981	
-0.380615	
-0.382568	
-0.382385	
-0.381226	
-0.380066	
-0.380676	
-0.381531	
-0.382019	
-0.381714	
-0.381409	
-0.380615	
-0.382751	
-0.382324	
-0.381653	
-0.380798	
-0.381409	
-0.381836	
-0.382996	
-0.381958	
-0.382263	
-0.381165	
-0.383057	
-0.382874	
-0.382263	
-0.381653	
-0.38269	
-0.382202	
-0.383423	
-0.382019	
-0.382996	
-0.382324	
-0.384399	
-0.383972	
-0.383545	
-0.383667	
-0.384583	
-0.384766	
-0.385498	
-0.384338	
-0.385193	
-0.384949	
-0.386597	
-0.385925	
-0.385437	
-0.385193	
-0.386353	
-0.385498	
-0.385498	
-0.384705	
-0.385986	
-0.385071	
-0.385681	
-0.38562	
-0.385864	
-0.384705	
-0.385803	
-0.385254	
-0.385437	
-0.38446	
-0.385315	
-0.384827	
-0.38501	
-0.386536	
-0.385681	
-0.384705	
-0.384949	
-0.384033	
-0.385681	
-0.384644	
-0.385254	
-0.385315	
-0.385071	
-0.38678	
-0.385986	
-0.385071	
-0.383728	
-0.384155	
-0.385559	
-0.384827	
-0.385254	
-0.384521	
-0.385315	
-0.386902	
-0.385376	
-0.384827	
-0.383728	
-0.384644	
-0.384705	
-0.384338	
-0.384705	
-0.38446	
-0.384827	
-0.385498	
-0.385132	
-0.384521	
-0.384033	
-0.384949	
-0.384888	
-0.385254	
-0.38446	
-0.384644	
-0.384277	
-0.385803	
-0.38623	
-0.385071	
-0.384644	
-0.385437	
-0.384949	
-0.385803	
-0.383362	
-0.384216	
-0.383484	
-0.384521	
-0.384216	
-0.384033	
-0.382996	
-0.383972	
-0.383728	
-0.383667	
-0.382935	
-0.383423	
-0.383179	
-0.383728	
-0.384216	
-0.383362	
-0.382507	
-0.382507	
-0.38324	
-0.383362	
-0.382935	
-0.382996	
-0.382385	
-0.383118	
-0.384094	
-0.383789	
-0.382568	
-0.382446	
-0.382202	
-0.38269	
-0.382751	
-0.383118	
-0.38324	
-0.383667	
-0.384827	
-0.384338	
-0.383362	
-0.381958	
-0.383118	
-0.38385	
-0.384216	
-0.383301	
-0.383789	
-0.383423	
-0.385742	
-0.384644	
-0.384155	
-0.382874	
-0.384644	
-0.384583	
-0.385437	
-0.384155	
-0.38501	
-0.383972	
-0.386292	
-0.385193	
-0.385071	
-0.384033	
-0.385559	
-0.385681	
-0.385376	
-0.38385	
-0.385498	
-0.385437	
-0.386292	
-0.385681	
-0.38562	
-0.384888	
-0.386719	
-0.38623	
-0.386597	
-0.386047	
-0.386719	
-0.386963	
-0.387512	
-0.387329	
-0.388	
-0.387085	
-0.387817	
-0.386658	
-0.388611	
-0.388123	
-0.388062	
-0.388062	
-0.388672	
-0.388489	
-0.388855	
-0.387329	
-0.388062	
-0.387268	
-0.38855	
-0.388245	
-0.387756	
-0.387756	
-0.387512	
-0.38916	
-0.388	
-0.387695	
-0.387512	
-0.387451	
-0.387939	
-0.388916	
-0.387756	
-0.387817	
-0.387512	
-0.388794	
-0.387573	
-0.38739	
-0.386597	
-0.388123	
-0.387268	
-0.38678	
-0.386536	
-0.386902	
-0.386597	
-0.388245	
-0.387146	
-0.387207	
-0.384766	
-0.386536	
-0.385498	
-0.385986	
-0.384766	
-0.385437	
-0.385864	
-0.386414	
-0.38562	
-0.385925	
-0.384216	
-0.385498	
-0.384094	
-0.385071	
-0.385193	
-0.385559	
-0.385254	
-0.386292	
-0.385803	
-0.386475	
-0.38446	
-0.385925	
-0.385071	
-0.385925	
-0.386169	
-0.385681	
-0.38562	
-0.385498	
-0.38562	
-0.386047	
-0.384521	
-0.385803	
-0.38623	
-0.385254	
-0.386047	
-0.385376	
-0.385742	
-0.385803	
-0.385559	
-0.385437	
-0.384399	
-0.385864	
-0.38623	
-0.385193	
-0.385803	
-0.38446	
-0.385742	
-0.386536	
-0.386047	
-0.385742	
-0.384155	
-0.385559	
-0.385803	
-0.386108	
-0.386292	
-0.385498	
-0.385803	
-0.386963	
-0.386353	
-0.386292	
-0.385803	
-0.386414	
-0.386475	
-0.385864	
-0.385986	
-0.386414	
-0.386536	
-0.386658	
-0.386597	
-0.385864	
-0.385803	
-0.384827	
-0.385132	
-0.384521	
-0.386169	
-0.386475	
-0.38562	
-0.386475	
-0.386292	
-0.386047	
-0.386536	
-0.384766	
-0.386169	
-0.386292	
-0.386719	
-0.387451	
-0.386169	
-0.38739	
-0.386902	
-0.387817	
-0.387756	
-0.387207	
-0.387878	
-0.38855	
-0.388245	
-0.388916	
-0.387512	
-0.388733	
-0.388245	
-0.388855	
-0.389282	
-0.388733	
-0.388977	
-0.389038	
-0.389099	
-0.389099	
-0.388794	
-0.388977	
-0.389038	
-0.389099	
-0.388855	
-0.388855	
-0.388672	
-0.388611	
-0.388916	
-0.388794	
-0.388611	
-0.388489	
-0.38855	
-0.389099	
-0.388123	
-0.388367	
-0.387573	
-0.38855	
-0.388184	
-0.388184	
-0.388367	
-0.388062	
-0.388184	
-0.388672	
-0.387817	
-0.388123	
-0.386658	
-0.387512	
-0.388062	
-0.387329	
-0.387817	
-0.386414	
-0.387512	
-0.386292	
-0.386658	
-0.387024	
-0.385803	
-0.386108	
-0.385254	
-0.385742	
-0.385986	
-0.384644	
-0.385498	
-0.383789	
-0.384705	
-0.384521	
-0.384583	
-0.384277	
-0.384277	
-0.385132	
-0.385132	
-0.384521	
-0.385681	
-0.385071	
-0.385132	
-0.384766	
-0.385315	
-0.384888	
-0.384705	
-0.385193	
-0.385498	
-0.384949	
-0.385681	
-0.385193	
-0.385437	
-0.385193	
-0.385132	
-0.385193	
-0.384888	
-0.385498	
-0.385498	
-0.384827	
-0.38501	
-0.38501	
-0.385498	
-0.385193	
-0.384949	
-0.384766	
-0.385071	
-0.386047	
-0.385071	
-0.385498	
-0.384277	
-0.385254	
-0.386169	
-0.385254	
-0.385742	
-0.384338	
-0.385742	
-0.386047	
-0.385803	
-0.386658	
-0.385742	
-0.385925	
-0.386047	
-0.385559	
-0.386841	
-0.384827	
-0.385437	
-0.384705	
-0.385742	
-0.386536	
-0.385254	
-0.385315	
-0.384705	
-0.385193	
-0.38623	
-0.38501	
-0.385742	
-0.384888	
-0.385986	
-0.387329	
-0.386414	
-0.387024	
-0.385803	
-0.386597	
-0.38678	
-0.386353	
-0.386841	
-0.386719	
-0.387695	
-0.387695	
-0.387329	
-0.387024	
-0.387451	
-0.387146	
-0.386536	
-0.387512	
-0.387634	
-0.387451	
-0.388428	
-0.387817	
-0.38739	
-0.387634	
-0.387329	
-0.387268	
-0.387085	
-0.387634	
-0.38739	
-0.387451	
-0.387756	
-0.387268	
-0.386841	
-0.386963	
-0.387085	
-0.387268	
-0.386536	
-0.387268	
-0.386108	
-0.386902	
-0.385315	
-0.38678	
-0.387024	
-0.386719	
-0.385925	
-0.387146	
-0.386047	
-0.38623	
-0.384277	
-0.385803	
-0.38501	
-0.386414	
-0.385803	
-0.385498	
-0.384094	
-0.385254	
-0.385315	
-0.385376	
-0.38501	
-0.385559	
-0.385071	
-0.385132	
-0.386047	
-0.385498	
-0.384827	
-0.383972	
-0.384521	
-0.385193	
-0.38446	
-0.384094	
-0.383789	
-0.383606	
-0.384216	
-0.38324	
-0.383057	
-0.382446	
-0.383118	
-0.382385	
-0.382813	
-0.382568	
-0.381836	
-0.381409	
-0.38269	
-0.382446	
-0.382813	
-0.381775	
-0.38269	
-0.381287	
-0.382874	
-0.381836	
-0.381958	
-0.381592	
-0.383484	
-0.382446	
-0.38324	
-0.381104	
-0.383179	
-0.381165	
-0.382935	
-0.38208	
-0.382568	
-0.38208	
-0.382996	
-0.382935	
-0.382996	
-0.382141	
-0.382996	
-0.382935	
-0.383484	
-0.382507	
-0.382935	
-0.383118	
-0.383118	
-0.383728	
-0.383728	
-0.383606	
-0.384094	
-0.384033	
-0.384338	
-0.384644	
-0.385193	
-0.384888	
-0.385498	
-0.386108	
-0.385498	
-0.385803	
-0.384644	
-0.385437	
-0.385498	
-0.385925	
-0.385742	
-0.385498	
-0.385376	
-0.386719	
-0.38501	
-0.38501	
-0.38324	
-0.385864	
-0.384827	
-0.385559	
-0.383728	
-0.384705	
-0.383728	
-0.385864	
-0.384705	
-0.385376	
-0.383484	
-0.38562	
-0.383789	
-0.38562	
-0.384338	
-0.384766	
-0.38446	
-0.385803	
-0.385254	
-0.385681	
-0.384521	
-0.385193	
-0.383667	
-0.385376	
-0.38446	
-0.384827	
-0.384521	
-0.385315	
-0.384888	
-0.385437	
-0.384766	
-0.384949	
-0.384399	
-0.384888	
-0.38446	
-0.384888	
-0.384399	
-0.384705	
-0.384521	
-0.384399	
-0.383911	
-0.38446	
-0.384399	
-0.384216	
-0.384521	
-0.38385	
-0.383789	
-0.384216	
-0.385193	
-0.385132	
-0.384827	
-0.383728	
-0.385193	
-0.384827	
-0.385681	
-0.384033	
-0.384705	
-0.38385	
-0.385925	
-0.384094	
-0.384399	
-0.383545	
-0.384888	
-0.384216	
-0.384766	
-0.383362	
-0.383911	
-0.383728	
-0.384827	
-0.383179	
-0.383606	
-0.381531	
-0.382935	
-0.382385	
-0.382568	
-0.382019	
-0.382385	
-0.381775	
-0.382507	
-0.381714	
-0.382813	
-0.381104	
-0.381775	
-0.380493	
-0.380981	
-0.381042	
-0.381226	
-0.381409	
-0.381653	
-0.381592	
-0.382202	
-0.381165	
-0.381653	
-0.380798	
-0.381775	
-0.382202	
-0.381592	
-0.381714	
-0.380737	
-0.382263	
-0.382385	
-0.381714	
-0.381348	
-0.38208	
-0.381897	
-0.382568	
-0.381348	
-0.38208	
-0.381958	
-0.383667	
-0.382446	
-0.382446	
-0.381104	
-0.38324	
-0.382996	
-0.382813	
-0.38208	
-0.38324	
-0.383118	
-0.384583	
-0.383301	
-0.38385	
-0.382507	
-0.38446	
-0.384827	
-0.385742	
-0.385559	
-0.385437	
-0.385559	
-0.386169	
-0.385864	
-0.385864	
-0.385559	
-0.385864	
-0.385498	
-0.385803	
-0.386719	
-0.385437	
-0.385376	
-0.384766	
-0.385559	
-0.385376	
-0.38501	
-0.384888	
-0.384766	
-0.385132	
-0.385803	
-0.385376	
-0.385132	
-0.384888	
-0.385681	
-0.385803	
-0.384827	
-0.384583	
-0.383911	
-0.384766	
-0.385254	
-0.384766	
-0.385071	
-0.385132	
-0.386536	
-0.385864	
-0.384583	
-0.382568	
-0.38501	
-0.384949	
-0.384888	
-0.384521	
-0.384888	
-0.384766	
-0.386536	
-0.385864	
-0.384766	
-0.383179	
-0.383667	
-0.384644	
-0.38446	
-0.38385	
-0.384155	
-0.384155	
-0.384888	
-0.385071	
-0.38446	
-0.384033	
-0.384399	
-0.383972	
-0.38446	
-0.384766	
-0.384766	
-0.384521	
-0.384949	
-0.384949	
-0.384644	
-0.384399	
-0.38446	
-0.385071	
-0.384277	
-0.384827	
-0.384033	
-0.383789	
-0.383179	
-0.384094	
-0.38324	
-0.382568	
-0.382324	
-0.384094	
-0.383118	
-0.382996	
-0.38147	
-0.383057	
-0.382385	
-0.383667	
-0.382751	
-0.382446	
-0.38147	
-0.382568	
-0.382263	
-0.382446	
-0.382019	
-0.382019	
-0.382019	
-0.383484	
-0.382813	
-0.382141	
-0.380676	
-0.381104	
-0.382263	
-0.382263	
-0.383118	
-0.382507	
-0.382507	
-0.382629	
-0.383545	
-0.38269	
-0.382141	
-0.382507	
-0.382935	
-0.382324	
-0.383484	
-0.383301	
-0.383118	
-0.383057	
-0.383606	
-0.383606	
-0.383301	
-0.383667	
-0.384583	
-0.384216	
-0.384277	
-0.382446	
-0.384094	
-0.384216	
-0.385315	
-0.384338	
-0.383789	
-0.383179	
-0.384766	
-0.384766	
-0.384033	
-0.384399	
-0.384888	
-0.38446	
-0.385681	
-0.384949	
-0.384949	
-0.384521	
-0.385315	
-0.385803	
-0.385681	
-0.386658	
-0.386536	
-0.386658	
-0.386353	
-0.386963	
-0.386841	
-0.385986	
-0.386719	
-0.386902	
-0.387512	
-0.387756	
-0.386902	
-0.38739	
-0.388245	
-0.388123	
-0.387024	
-0.385864	
-0.385986	
-0.387756	
-0.386841	
-0.387024	
-0.386108	
-0.387512	
-0.387634	
-0.387939	
-0.386658	
-0.386353	
-0.38678	
-0.387512	
-0.38678	
-0.386902	
-0.386658	
-0.387085	
-0.387146	
-0.387512	
-0.386963	
-0.386658	
-0.38562	
-0.386597	
-0.386597	
-0.386719	
-0.387146	
-0.386169	
-0.386169	
-0.387085	
-0.385559	
-0.38501	
-0.384277	
-0.385498	
-0.384766	
-0.384583	
-0.385376	
-0.384583	
-0.384521	
-0.384705	
-0.384827	
-0.384338	
-0.382751	
-0.383545	
-0.384705	
-0.383789	
-0.384338	
-0.383728	
-0.384399	
-0.385315	
-0.38562	
-0.384338	
-0.384094	
-0.383606	
-0.385376	
-0.384949	
-0.384888	
-0.383667	
-0.384705	
-0.384888	
-0.385864	
-0.384705	
-0.384277	
-0.383667	
-0.385193	
-0.384888	
-0.384949	
-0.384521	
-0.384216	
-0.385132	
-0.385742	
-0.384521	
-0.384399	
-0.382568	
-0.384583	
-0.384583	
-0.384827	
-0.385803	
-0.384827	
-0.384888	
-0.384888	
-0.384888	
-0.384521	
-0.383606	
-0.385437	
-0.385437	
-0.385193	
-0.38562	
-0.385498	
-0.385193	
-0.386108	
-0.385681	
-0.385437	
-0.384766	
-0.385315	
-0.386047	
-0.385803	
-0.385559	
-0.384949	
-0.384949	
-0.385132	
-0.385864	
-0.384888	
-0.384094	
-0.38446	
-0.386047	
-0.384644	
-0.384888	
-0.384155	
-0.38501	
-0.385681	
-0.386658	
-0.385437	
-0.385315	
-0.383179	
-0.386169	
-0.385803	
-0.386292	
-0.386292	
-0.386658	
-0.386902	
-0.388916	
-0.387634	
-0.387085	
-0.384705	
-0.38739	
-0.387512	
-0.387634	
-0.388245	
-0.387939	
-0.387939	
-0.388367	
-0.388062	
-0.388123	
-0.387695	
-0.388672	
-0.38916	
-0.387695	
-0.388855	
-0.387146	
-0.387939	
-0.388367	
-0.388	
-0.387512	
-0.387024	
-0.387634	
	
