C:\DOCUMENTS AND SETTINGS\JASON\DESKTOP\UFRJ\UFRJ EPHYS\RSCI-BM 12 WK SERIES\070806-RSCI-BM-16\RSCI-BM-16-LEMG\070806-RSCI-BM-16-LEMG-0011.ACQ
0.025000 msec/sample
1 channel
Analog input
Volts
CH1	
2000	
-0.381836	
-0.381653	
-0.382568	
-0.382019	
-0.382446	
-0.381897	
-0.382202	
-0.383057	
-0.382751	
-0.382996	
-0.382629	
-0.382629	
-0.38269	
-0.382385	
-0.383057	
-0.382263	
-0.383118	
-0.383484	
-0.383484	
-0.384338	
-0.383301	
-0.383484	
-0.382874	
-0.383911	
-0.383667	
-0.383423	
-0.383972	
-0.383728	
-0.38385	
-0.384705	
-0.384644	
-0.384644	
-0.383118	
-0.383362	
-0.384216	
-0.384033	
-0.384033	
-0.384277	
-0.384338	
-0.384094	
-0.385132	
-0.384338	
-0.38385	
-0.38385	
-0.382324	
-0.383606	
-0.38385	
-0.384338	
-0.384888	
-0.38446	
-0.38446	
-0.38385	
-0.384216	
-0.384338	
-0.383667	
-0.384888	
-0.384338	
-0.385559	
-0.386475	
-0.386108	
-0.386353	
-0.385559	
-0.386047	
-0.386658	
-0.386353	
-0.385925	
-0.385193	
-0.386719	
-0.387024	
-0.386719	
-0.38678	
-0.385986	
-0.386475	
-0.386597	
-0.385681	
-0.385681	
-0.38562	
-0.385559	
-0.385376	
-0.384888	
-0.385376	
-0.384705	
-0.383484	
-0.383057	
-0.382629	
-0.383301	
-0.383301	
-0.383545	
-0.383972	
-0.383301	
-0.384216	
-0.383972	
-0.383423	
-0.382751	
-0.382813	
-0.382568	
-0.382996	
-0.383484	
-0.383972	
-0.383789	
-0.384583	
-0.384277	
-0.385376	
-0.383667	
-0.383362	
-0.383728	
-0.384277	
-0.38385	
-0.384216	
-0.385315	
-0.385132	
-0.384399	
-0.384583	
-0.384399	
-0.38446	
-0.384216	
-0.384521	
-0.384949	
-0.384888	
-0.386108	
-0.385315	
-0.384827	
-0.384155	
-0.384888	
-0.385986	
-0.384888	
-0.385376	
-0.384888	
-0.38562	
-0.386475	
-0.385742	
-0.386169	
-0.384888	
-0.38623	
-0.386597	
-0.385925	
-0.386597	
-0.385498	
-0.386658	
-0.387207	
-0.386475	
-0.386475	
-0.386108	
-0.386902	
-0.387146	
-0.386597	
-0.386108	
-0.385681	
-0.386658	
-0.386719	
-0.386047	
-0.387451	
-0.387207	
-0.387207	
-0.385742	
-0.385681	
-0.385925	
-0.386841	
-0.387207	
-0.387146	
-0.387573	
-0.388428	
-0.388306	
-0.388062	
-0.38623	
-0.386414	
-0.387085	
-0.387512	
-0.387695	
-0.387939	
-0.387756	
-0.388611	
-0.388428	
-0.387939	
-0.387451	
-0.387146	
-0.386719	
-0.387634	
-0.387146	
-0.387573	
-0.387695	
-0.387207	
-0.387085	
-0.386536	
-0.385742	
-0.385803	
-0.385376	
-0.385132	
-0.385071	
-0.385254	
-0.385803	
-0.385986	
-0.385681	
-0.385315	
-0.384949	
-0.386169	
-0.385437	
-0.369324	
-0.365906	
-0.368652	
-0.3703	
-0.369507	
-0.369934	
-0.390015	
-0.389404	
-0.387512	
-0.386719	
-0.387268	
-0.386719	
-0.387329	
-0.38855	
-0.387756	
-0.388855	
-0.387817	
-0.388489	
-0.38739	
-0.386475	
-0.387573	
-0.387268	
-0.387634	
-0.388306	
-0.387756	
-0.388733	
-0.388428	
-0.388916	
-0.387146	
-0.387024	
-0.387146	
-0.387634	
-0.388184	
-0.388977	
-0.388489	
-0.389099	
-0.388794	
-0.389221	
-0.388733	
-0.387939	
-0.38739	
-0.388306	
-0.388611	
-0.388367	
-0.388	
-0.388062	
-0.388184	
-0.388855	
-0.388	
-0.388916	
-0.389343	
-0.39032	
-0.392212	
-0.39447	
-0.39679	
-0.399475	
-0.402466	
-0.406921	
-0.410889	
-0.414124	
-0.417542	
-0.421997	
-0.42688	
-0.432129	
-0.437744	
-0.44458	
-0.44928	
-0.455322	
-0.4599	
-0.463867	
-0.46936	
-0.471802	
-0.458069	
-0.457336	
-0.459167	
-0.461182	
-0.461426	
-0.463562	
-0.48291	
-0.482239	
-0.479614	
-0.479614	
-0.47937	
-0.479492	
-0.477722	
-0.47699	
-0.474609	
-0.475098	
-0.472961	
-0.471252	
-0.470276	
-0.470215	
-0.47052	
-0.470947	
-0.470703	
-0.471863	
-0.470947	
-0.473328	
-0.473083	
-0.474304	
-0.475647	
-0.477905	
-0.480469	
-0.483398	
-0.483643	
-0.484863	
-0.484497	
-0.486633	
-0.485229	
-0.485535	
-0.484558	
-0.485718	
-0.486389	
-0.487366	
-0.486694	
-0.486877	
-0.485901	
-0.486938	
-0.485657	
-0.485779	
-0.485046	
-0.485291	
-0.484802	
-0.485046	
-0.483826	
-0.483398	
-0.482727	
-0.484863	
-0.484436	
-0.48407	
-0.484741	
-0.484497	
-0.483459	
-0.483765	
-0.481628	
-0.480042	
-0.476685	
-0.475037	
-0.471497	
-0.467957	
-0.464783	
-0.461243	
-0.458252	
-0.455383	
-0.450745	
-0.446411	
-0.440552	
-0.437195	
-0.430847	
-0.424255	
-0.416992	
-0.410034	
-0.402649	
-0.395569	
-0.385864	
-0.377625	
-0.368652	
-0.360535	
-0.350769	
-0.342834	
-0.334351	
-0.327637	
-0.32074	
-0.316406	
-0.312073	
-0.307739	
-0.305359	
-0.303467	
-0.301514	
-0.300049	
-0.299194	
-0.299683	
-0.300415	
-0.302124	
-0.302795	
-0.304443	
-0.306824	
-0.309753	
-0.311768	
-0.314331	
-0.316223	
-0.320679	
-0.324829	
-0.328857	
-0.332336	
-0.336731	
-0.339783	
-0.34613	
-0.349426	
-0.353271	
-0.357666	
-0.362366	
-0.366577	
-0.370178	
-0.374207	
-0.377625	
-0.381592	
-0.385498	
-0.388611	
-0.391541	
-0.393982	
-0.397095	
-0.401428	
-0.403748	
-0.405334	
-0.408203	
-0.410034	
-0.412476	
-0.414185	
-0.416077	
-0.41803	
-0.418945	
-0.421936	
-0.423157	
-0.424927	
-0.427368	
-0.428528	
-0.429688	
-0.429871	
-0.430176	
-0.429626	
-0.428833	
-0.429504	
-0.427979	
-0.425964	
-0.424133	
-0.421387	
-0.417969	
-0.414124	
-0.408813	
-0.402771	
-0.397705	
-0.392883	
-0.386414	
-0.379517	
-0.371643	
-0.363831	
-0.356079	
-0.347046	
-0.337585	
-0.32843	
-0.320496	
-0.312561	
-0.30481	
-0.296387	
-0.289856	
-0.282776	
-0.277588	
-0.272461	
-0.268005	
-0.263977	
-0.260742	
-0.257507	
-0.254272	
-0.250916	
-0.248657	
-0.245911	
-0.244812	
-0.243347	
-0.241943	
-0.241455	
-0.241882	
-0.244568	
-0.24585	
-0.248535	
-0.252136	
-0.255249	
-0.258118	
-0.261597	
-0.264038	
-0.268188	
-0.272339	
-0.276917	
-0.279907	
-0.283752	
-0.285889	
-0.291443	
-0.294373	
-0.297241	
-0.299866	
-0.302979	
-0.30658	
-0.309387	
-0.312134	
-0.31488	
-0.3172	
-0.319092	
-0.321655	
-0.322632	
-0.325256	
-0.32666	
-0.328918	
-0.3302	
-0.332214	
-0.333496	
-0.33606	
-0.336792	
-0.337769	
-0.338257	
-0.34021	
-0.342285	
-0.344421	
-0.344421	
-0.345398	
-0.34491	
-0.347351	
-0.347961	
-0.347717	
-0.348572	
-0.349304	
-0.350403	
-0.351501	
-0.351685	
-0.351929	
-0.352356	
-0.353882	
-0.354309	
-0.353882	
-0.354431	
-0.35498	
-0.356689	
-0.357178	
-0.357849	
-0.357544	
-0.358826	
-0.35968	
-0.360168	
-0.359497	
-0.358093	
-0.358337	
-0.360229	
-0.359985	
-0.360413	
-0.359619	
-0.361267	
-0.360413	
-0.360352	
-0.359009	
-0.359375	
-0.35968	
-0.360535	
-0.359985	
-0.360229	
-0.359497	
-0.360291	
-0.359253	
-0.35968	
-0.358704	
-0.359558	
-0.359863	
-0.359558	
-0.360352	
-0.360413	
-0.360291	
-0.360168	
-0.360596	
-0.361145	
-0.361084	
-0.360901	
-0.361694	
-0.361938	
-0.361755	
-0.361633	
-0.362427	
-0.362488	
-0.362244	
-0.362549	
-0.362976	
-0.363098	
-0.363342	
-0.36322	
-0.363159	
-0.364258	
-0.365173	
-0.364502	
-0.364014	
-0.363281	
-0.364441	
-0.365417	
-0.365051	
-0.364746	
-0.364502	
-0.366211	
-0.365234	
-0.366211	
-0.366394	
-0.365845	
-0.36499	
-0.365356	
-0.366821	
-0.366455	
-0.367554	
-0.36792	
-0.366821	
-0.366821	
-0.367371	
-0.367432	
-0.368469	
-0.367676	
-0.367737	
-0.36676	
-0.368835	
-0.367981	
-0.368896	
-0.36792	
-0.36853	
-0.368958	
-0.368652	
-0.369751	
-0.369263	
-0.370239	
-0.370728	
-0.370117	
-0.370789	
-0.371643	
-0.370789	
-0.37146	
-0.370056	
-0.371338	
-0.370911	
-0.373047	
-0.372498	
-0.373291	
-0.372009	
-0.373474	
-0.373901	
-0.374573	
-0.374573	
-0.37439	
-0.37439	
-0.375793	
-0.37439	
-0.375122	
-0.375	
-0.374695	
-0.375	
-0.374573	
-0.374695	
-0.374329	
-0.375183	
-0.375977	
-0.374878	
-0.375427	
-0.374329	
-0.374268	
-0.373413	
-0.372864	
-0.373657	
-0.37323	
-0.373901	
-0.373657	
-0.373901	
-0.373108	
-0.373352	
-0.373047	
-0.373779	
-0.373718	
-0.373413	
-0.372375	
-0.375183	
-0.374084	
-0.373962	
-0.372986	
-0.374573	
-0.374268	
-0.374878	
-0.374878	
-0.374451	
-0.375061	
-0.37616	
-0.375366	
-0.375488	
-0.374512	
-0.376099	
-0.375488	
-0.376282	
-0.376465	
-0.375977	
-0.376221	
-0.377441	
-0.376587	
-0.376892	
-0.375854	
-0.376953	
-0.376892	
-0.377075	
-0.376831	
-0.376892	
-0.377625	
-0.378052	
-0.37793	
-0.37854	
-0.378601	
-0.378357	
-0.377808	
-0.378052	
-0.378601	
-0.378357	
-0.378479	
-0.379456	
-0.378845	
-0.379333	
-0.379272	
-0.378784	
-0.378479	
-0.378601	
-0.378906	
-0.378479	
-0.379456	
-0.379944	
-0.379028	
-0.379028	
-0.378784	
-0.378906	
-0.379761	
-0.378967	
-0.379028	
-0.378784	
-0.379211	
-0.380432	
-0.380127	
-0.379761	
-0.37854	
-0.380188	
-0.380859	
-0.380188	
-0.38092	
-0.380127	
-0.382141	
-0.382629	
-0.382813	
-0.382019	
-0.382446	
-0.381409	
-0.382202	
-0.382324	
-0.38208	
-0.381958	
-0.384094	
-0.382446	
-0.38324	
-0.381714	
-0.382629	
-0.382568	
-0.382324	
-0.382324	
-0.381897	
-0.38208	
-0.382568	
-0.381348	
-0.381104	
-0.380005	
-0.380188	
-0.379883	
-0.380432	
-0.380493	
-0.379639	
-0.380676	
-0.382019	
-0.38147	
-0.380676	
-0.379639	
-0.380676	
-0.380066	
-0.380798	
-0.381165	
-0.381287	
-0.381531	
-0.380981	
-0.381226	
-0.380737	
-0.381592	
-0.380859	
-0.381165	
-0.38269	
-0.382629	
-0.381531	
-0.382568	
-0.382019	
-0.381897	
-0.381531	
-0.382019	
-0.381226	
-0.381042	
-0.381592	
-0.381592	
-0.381348	
-0.381775	
-0.38208	
-0.382263	
-0.382568	
-0.381836	
-0.382141	
-0.381287	
-0.381897	
-0.382507	
-0.382568	
-0.382751	
-0.383301	
-0.383423	
-0.383545	
-0.382629	
-0.383118	
-0.382935	
-0.38385	
-0.383789	
-0.383301	
-0.383728	
-0.383972	
-0.384155	
-0.383484	
-0.384155	
-0.382874	
-0.384155	
-0.383789	
-0.384644	
-0.383362	
-0.384949	
-0.383911	
-0.384338	
-0.383606	
-0.384094	
-0.383789	
-0.384766	
-0.384338	
-0.384338	
-0.384399	
-0.385132	
-0.384583	
-0.385315	
-0.384155	
-0.385132	
-0.384766	
-0.385315	
-0.386047	
-0.385559	
-0.385254	
-0.386047	
-0.386353	
-0.385925	
-0.386108	
-0.384766	
-0.385803	
-0.38623	
-0.386963	
-0.385681	
-0.38623	
-0.38678	
-0.38623	
-0.386169	
-0.384155	
-0.384827	
-0.384277	
-0.384338	
-0.383789	
-0.383972	
-0.382935	
-0.385925	
-0.38385	
-0.384827	
-0.382751	
-0.38446	
-0.383179	
-0.385864	
-0.384155	
-0.385498	
-0.383972	
-0.386841	
-0.384094	
-0.386292	
-0.384766	
-0.385254	
-0.383789	
-0.387512	
-0.387024	
-0.385254	
-0.384827	
-0.387268	
-0.386353	
-0.38739	
-0.387878	
-0.387329	
-0.388062	
-0.387573	
-0.387329	
-0.386169	
-0.386658	
-0.387756	
-0.388	
-0.388733	
-0.387146	
-0.387085	
-0.386292	
-0.386841	
-0.387085	
-0.387329	
-0.386597	
-0.38739	
-0.387695	
-0.388	
-0.38678	
-0.386902	
-0.386902	
-0.388306	
-0.38739	
-0.38678	
-0.386414	
-0.387573	
-0.386963	
-0.386841	
-0.386963	
-0.386719	
-0.387146	
-0.388428	
-0.386719	
-0.38739	
-0.387329	
-0.387695	
-0.387207	
-0.386475	
-0.386108	
-0.386169	
-0.386414	
-0.387207	
-0.386414	
-0.386597	
-0.385559	
-0.386963	
-0.386902	
-0.386658	
-0.386475	
-0.38623	
-0.386841	
-0.388	
-0.386658	
-0.387146	
-0.385925	
-0.387024	
-0.387085	
-0.386658	
-0.386108	
-0.386597	
-0.386597	
-0.387695	
-0.386108	
-0.386536	
-0.384888	
-0.386719	
-0.386475	
-0.385925	
-0.38562	
-0.385742	
-0.385498	
-0.386719	
-0.385315	
-0.384766	
-0.383545	
-0.384644	
-0.384521	
-0.383484	
-0.382813	
-0.382263	
-0.382813	
-0.383423	
-0.383179	
-0.382629	
-0.381897	
-0.383484	
-0.384399	
-0.382507	
-0.382629	
-0.38208	
-0.383484	
-0.383911	
-0.383667	
-0.383362	
-0.383057	
-0.384399	
-0.384949	
-0.384399	
-0.384766	
-0.38385	
-0.385864	
-0.386475	
-0.385254	
-0.386597	
-0.385376	
-0.386719	
-0.386841	
-0.386902	
-0.386047	
-0.386414	
-0.387085	
-0.38739	
-0.386841	
-0.386963	
-0.387146	
-0.387207	
-0.387329	
-0.386658	
-0.385742	
-0.384705	
-0.386108	
-0.385803	
-0.385803	
-0.385437	
-0.385193	
-0.385742	
-0.386963	
-0.385925	
-0.385681	
-0.38446	
-0.385742	
-0.386047	
-0.385864	
-0.385864	
-0.386047	
-0.386047	
-0.386536	
-0.385864	
-0.384583	
-0.384399	
-0.385132	
-0.386597	
-0.384521	
-0.384827	
-0.384521	
-0.385376	
-0.385559	
-0.38446	
-0.384338	
-0.383606	
-0.384155	
-0.384399	
-0.383911	
-0.384399	
-0.384644	
-0.384766	
-0.385437	
-0.383606	
-0.384705	
-0.382568	
-0.384094	
-0.38385	
-0.38501	
-0.383789	
-0.384583	
-0.384888	
-0.385742	
-0.384033	
-0.384705	
-0.382996	
-0.383911	
-0.383606	
-0.384705	
-0.383911	
-0.384399	
-0.383789	
-0.384705	
-0.384216	
-0.382507	
-0.38269	
-0.381775	
-0.38147	
-0.383057	
-0.383179	
-0.382385	
-0.382141	
-0.382507	
-0.382019	
-0.381653	
-0.381348	
-0.381104	
-0.38208	
-0.382751	
-0.382874	
-0.383057	
-0.38147	
-0.383545	
-0.382263	
-0.383301	
-0.382629	
-0.383667	
-0.383606	
-0.385315	
-0.384277	
-0.385132	
-0.383789	
-0.386597	
-0.38446	
-0.385803	
-0.384338	
-0.385498	
-0.384888	
-0.386292	
-0.384705	
-0.385437	
-0.38446	
-0.38562	
-0.385132	
-0.384094	
-0.384888	
-0.384644	
-0.384705	
-0.385254	
-0.385132	
-0.384827	
-0.384705	
-0.384338	
-0.384705	
-0.384277	
-0.384216	
-0.384155	
-0.385376	
-0.385315	
-0.384338	
-0.384033	
-0.384277	
-0.384705	
-0.383606	
-0.383728	
-0.384216	
-0.383911	
-0.38385	
-0.384949	
-0.38385	
-0.383423	
-0.382568	
-0.384033	
-0.382629	
-0.38324	
-0.382874	
-0.383118	
-0.382813	
-0.383606	
-0.382324	
-0.382935	
-0.382446	
-0.383118	
-0.381836	
-0.382202	
-0.382019	
-0.382813	
-0.382996	
-0.382263	
-0.382019	
-0.382141	
-0.382507	
-0.382507	
-0.382507	
-0.382324	
-0.38208	
-0.382751	
-0.382874	
-0.383301	
-0.382751	
-0.382751	
-0.381897	
-0.382751	
-0.381958	
-0.381653	
-0.381104	
-0.381409	
-0.381287	
-0.381775	
-0.381226	
-0.381287	
-0.380859	
-0.382019	
-0.380798	
-0.381104	
-0.3797	
-0.381104	
-0.380249	
-0.381165	
-0.380249	
-0.381409	
-0.380859	
-0.382568	
-0.38147	
-0.38092	
-0.379944	
-0.38092	
-0.381775	
-0.382202	
-0.381958	
-0.381958	
-0.382324	
-0.383972	
-0.38324	
-0.382935	
-0.382446	
-0.382507	
-0.383362	
-0.382996	
-0.383728	
-0.382935	
-0.383362	
-0.384705	
-0.38385	
-0.382446	
-0.38147	
-0.38208	
-0.383484	
-0.382568	
-0.382813	
-0.381897	
-0.38208	
-0.382629	
-0.382141	
-0.381165	
-0.379944	
-0.380493	
-0.380676	
-0.380371	
-0.380981	
-0.380737	
-0.381226	
-0.381714	
-0.381531	
-0.380127	
-0.37915	
-0.379517	
-0.380554	
-0.380615	
-0.380981	
-0.380371	
-0.381165	
-0.380737	
-0.38092	
-0.379761	
-0.379028	
-0.379333	
-0.380127	
-0.380676	
-0.381226	
-0.38092	
-0.380798	
-0.380981	
-0.381409	
-0.380005	
-0.379028	
-0.38031	
-0.380737	
-0.380493	
-0.381714	
-0.380798	
-0.381042	
-0.380981	
-0.381165	
-0.380005	
-0.379333	
-0.3797	
-0.381287	
-0.381104	
-0.381897	
-0.381104	
-0.381104	
-0.381836	
-0.381531	
-0.381165	
-0.379395	
-0.380615	
-0.381226	
-0.380798	
-0.381409	
-0.38147	
-0.381958	
-0.381897	
-0.381348	
-0.380554	
-0.380432	
-0.380432	
-0.38092	
-0.381226	
-0.381897	
-0.381042	
-0.382324	
-0.382507	
-0.382385	
-0.381409	
-0.380737	
-0.381714	
-0.382141	
-0.382446	
-0.382568	
-0.38208	
-0.383118	
-0.383301	
-0.383545	
-0.382507	
-0.382935	
-0.383789	
-0.384155	
-0.384766	
-0.385254	
-0.38446	
-0.385498	
-0.386047	
-0.385376	
-0.383789	
-0.383728	
-0.384094	
-0.384705	
-0.385315	
-0.385193	
-0.384949	
-0.385193	
-0.385559	
-0.384705	
-0.383545	
-0.382507	
-0.383362	
-0.383484	
-0.38324	
-0.383301	
-0.382629	
-0.383179	
-0.383606	
-0.382507	
-0.381836	
-0.380737	
-0.381897	
-0.382019	
-0.382019	
-0.382263	
-0.381958	
-0.382935	
-0.383545	
-0.382263	
-0.381775	
-0.38092	
-0.382629	
-0.382568	
-0.382813	
-0.382751	
-0.382874	
-0.383423	
-0.383789	
-0.383423	
-0.38324	
-0.38208	
-0.382568	
-0.383118	
-0.383667	
-0.383301	
-0.383362	
-0.38385	
-0.384338	
-0.383789	
-0.38324	
-0.382813	
-0.38324	
-0.383667	
-0.38385	
-0.384033	
-0.384094	
-0.384216	
-0.38501	
-0.38446	
-0.384094	
-0.383972	
-0.384277	
-0.384338	
-0.384583	
-0.38446	
-0.384521	
-0.38501	
-0.38562	
-0.385315	
-0.385254	
-0.384216	
-0.384399	
-0.385254	
-0.385071	
-0.384949	
-0.384766	
-0.38501	
-0.38501	
-0.384888	
-0.384521	
-0.384216	
-0.384766	
-0.384827	
-0.384521	
-0.385315	
-0.385437	
-0.385254	
-0.385132	
-0.385498	
-0.385559	
-0.384949	
-0.385315	
-0.385681	
-0.386475	
-0.387146	
-0.386658	
-0.387756	
-0.387329	
-0.388	
-0.387146	
-0.386841	
-0.385925	
-0.387634	
-0.387146	
-0.387268	
-0.387512	
-0.387817	
-0.387695	
-0.387878	
-0.387268	
-0.386963	
-0.386108	
-0.386597	
-0.386414	
-0.386414	
-0.387024	
-0.385437	
-0.385315	
-0.385254	
-0.385315	
-0.384338	
-0.383728	
-0.384216	
-0.384216	
-0.383972	
-0.385254	
-0.384521	
-0.384583	
-0.383972	
-0.385315	
-0.383606	
-0.383606	
-0.383667	
-0.384521	
-0.384705	
-0.38562	
-0.38501	
-0.385193	
-0.384888	
-0.385742	
-0.384705	
-0.384399	
-0.384216	
-0.385071	
-0.385315	
-0.386108	
-0.385376	
-0.385376	
-0.385315	
-0.386108	
-0.384949	
-0.383911	
-0.384277	
-0.385803	
-0.385498	
-0.386353	
-0.385803	
-0.386169	
-0.386475	
-0.386902	
-0.386169	
-0.385132	
-0.385254	
-0.386475	
-0.385864	
-0.38678	
-0.387024	
-0.387451	
-0.387085	
-0.387695	
-0.386169	
-0.385986	
-0.385986	
-0.387146	
-0.387085	
-0.387695	
-0.38739	
-0.388306	
-0.387939	
-0.388489	
-0.386169	
-0.38678	
-0.386536	
-0.387085	
-0.387451	
-0.387512	
-0.387146	
-0.388306	
-0.387695	
-0.388611	
-0.386597	
-0.387329	
-0.387024	
-0.387634	
-0.387756	
-0.387939	
-0.388123	
-0.388794	
-0.388184	
-0.389221	
-0.387268	
-0.388367	
-0.388184	
-0.388794	
-0.388611	
-0.388855	
-0.388733	
-0.38916	
-0.388794	
-0.389099	
-0.387939	
-0.388184	
-0.38739	
-0.388489	
-0.388367	
-0.387939	
-0.387939	
-0.388	
-0.388	
-0.387756	
-0.386536	
-0.386047	
-0.384644	
-0.386047	
-0.386292	
-0.386597	
-0.386047	
-0.386536	
-0.386292	
-0.387695	
-0.386169	
-0.385986	
-0.384766	
-0.386353	
-0.386841	
-0.387024	
-0.38678	
-0.387268	
-0.387512	
-0.388611	
-0.387268	
-0.387695	
-0.386841	
-0.387756	
-0.388	
-0.388367	
-0.388794	
-0.388733	
-0.388611	
-0.389221	
-0.388428	
-0.388672	
-0.387817	
-0.388306	
-0.388733	
-0.388672	
-0.389709	
-0.388977	
-0.388794	
-0.389343	
-0.38855	
-0.388916	
-0.38739	
-0.388794	
-0.388733	
-0.389038	
-0.390015	
-0.389282	
-0.38916	
-0.388855	
-0.388428	
-0.388611	
-0.387268	
-0.388977	
-0.388794	
-0.38916	
-0.389587	
-0.388916	
-0.38916	
-0.389282	
-0.389343	
-0.388733	
-0.387146	
-0.389282	
-0.389099	
-0.389038	
-0.389404	
-0.388855	
-0.388855	
-0.388367	
-0.389343	
-0.388123	
-0.387756	
-0.388123	
-0.388794	
-0.388733	
-0.389099	
-0.388611	
-0.389038	
-0.388672	
-0.389526	
-0.387512	
-0.388062	
-0.387634	
-0.388733	
-0.388306	
-0.388855	
-0.387939	
-0.389099	
-0.388123	
-0.389282	
-0.386658	
-0.387329	
-0.386108	
-0.387695	
-0.387878	
-0.388123	
-0.387085	
-0.387695	
-0.38678	
-0.388672	
-0.385559	
-0.385864	
-0.384949	
-0.385071	
-0.385193	
-0.385803	
-0.384766	
-0.385071	
-0.384949	
-0.385986	
-0.384277	
-0.384399	
-0.383118	
-0.38446	
-0.384827	
-0.384888	
-0.384888	
-0.385315	
-0.384399	
-0.386536	
-0.384766	
-0.385437	
-0.383972	
-0.385803	
-0.38623	
-0.386536	
-0.386658	
-0.386597	
-0.38678	
-0.388794	
-0.387085	
-0.387329	
-0.385803	
-0.387085	
-0.38739	
-0.387695	
-0.387817	
-0.387878	
-0.388245	
-0.388855	
-0.387329	
-0.387268	
-0.385864	
-0.387512	
-0.387085	
-0.387512	
-0.387817	
-0.387268	
-0.387085	
-0.387451	
-0.386902	
-0.386841	
-0.385132	
-0.386353	
-0.386536	
-0.386902	
-0.387207	
-0.386658	
-0.386658	
-0.38623	
-0.386169	
-0.385986	
-0.385803	
-0.385864	
-0.38623	
-0.38623	
-0.386597	
-0.386169	
-0.385803	
-0.385864	
-0.385498	
-0.385315	
-0.38446	
-0.38501	
-0.385376	
-0.38501	
-0.385376	
-0.38501	
-0.385681	
-0.385498	
-0.385376	
-0.385071	
-0.384583	
-0.385254	
-0.385254	
-0.385071	
-0.385315	
-0.384399	
-0.385498	
-0.384399	
-0.386108	
-0.38446	
-0.384521	
-0.384155	
-0.384644	
-0.38501	
-0.385193	
-0.384888	
-0.38501	
-0.384705	
-0.385498	
-0.384094	
-0.384094	
-0.382813	
-0.383667	
-0.383911	
-0.383301	
-0.383911	
-0.383972	
-0.382568	
-0.383484	
-0.38147	
-0.382019	
-0.382202	
-0.382446	
-0.382568	
-0.382629	
-0.382935	
-0.383118	
-0.382996	
-0.383972	
-0.382202	
-0.383362	
-0.383301	
-0.383606	
-0.383423	
-0.384583	
-0.385437	
-0.38678	
-0.386597	
-0.388123	
-0.386536	
-0.386658	
-0.38562	
-0.387207	
-0.385681	
-0.387573	
-0.388245	
-0.387512	
-0.387329	
-0.387573	
-0.386963	
-0.385864	
-0.386047	
-0.386841	
-0.387817	
-0.386719	
-0.388184	
-0.387024	
-0.387085	
-0.386536	
-0.387146	
-0.385925	
-0.385437	
-0.385071	
-0.386597	
-0.38623	
-0.387329	
-0.385803	
-0.385925	
-0.386658	
-0.386597	
-0.385559	
-0.384399	
-0.385498	
-0.386169	
-0.385132	
-0.385864	
-0.386353	
-0.385315	
-0.386414	
-0.385254	
-0.385193	
-0.383118	
-0.384949	
-0.384583	
-0.385132	
-0.385315	
-0.386108	
-0.38562	
-0.385803	
-0.383667	
-0.383484	
-0.383301	
-0.384033	
-0.383972	
-0.383362	
-0.383667	
-0.382874	
-0.384766	
-0.383911	
-0.383606	
-0.382141	
-0.382629	
-0.383423	
-0.383301	
-0.383423	
-0.38385	
-0.383911	
-0.384216	
-0.384094	
-0.382935	
-0.381958	
-0.382141	
-0.382935	
-0.381836	
-0.382446	
-0.383057	
-0.383972	
-0.38324	
-0.38385	
-0.381165	
-0.381958	
-0.38147	
-0.382263	
-0.380249	
-0.381897	
-0.381897	
-0.383301	
-0.383118	
-0.382751	
-0.380798	
-0.38092	
-0.380066	
-0.381958	
-0.381409	
-0.38147	
-0.381958	
-0.382385	
-0.383301	
-0.38324	
-0.383057	
-0.38208	
-0.383423	
-0.383484	
-0.385315	
-0.384888	
-0.385559	
-0.38562	
-0.385437	
-0.385315	
-0.383423	
-0.384277	
-0.383423	
-0.384033	
-0.384033	
-0.38385	
-0.383179	
-0.383423	
-0.383179	
-0.384277	
-0.382751	
-0.383179	
-0.382263	
-0.382141	
-0.381409	
-0.380981	
-0.381287	
-0.381348	
-0.381714	
-0.382263	
-0.381226	
-0.380615	
-0.381042	
-0.38092	
-0.381165	
-0.379578	
-0.381287	
-0.382019	
-0.381958	
-0.381226	
-0.38208	
-0.380371	
-0.383301	
-0.380676	
-0.383057	
-0.380371	
-0.382202	
-0.381531	
-0.382568	
-0.381836	
-0.382813	
-0.381958	
-0.382568	
-0.382019	
-0.382813	
-0.382202	
-0.382202	
-0.382568	
-0.382324	
-0.382263	
-0.381714	
-0.381836	
-0.380249	
-0.38092	
-0.381226	
-0.381836	
-0.381104	
-0.38208	
-0.381653	
-0.382446	
-0.382629	
-0.382141	
-0.381348	
-0.38031	
-0.380737	
-0.381348	
-0.381592	
-0.381653	
-0.383057	
-0.381531	
-0.382385	
-0.380005	
-0.382324	
-0.380554	
-0.382324	
-0.381165	
-0.38208	
-0.381653	
-0.383606	
-0.382996	
-0.384277	
-0.380554	
-0.382141	
-0.381409	
-0.381653	
-0.382813	
-0.382202	
-0.382813	
-0.384155	
-0.38385	
-0.384033	
-0.383545	
-0.382996	
-0.384766	
-0.383911	
-0.384949	
-0.383728	
-0.386597	
-0.38501	
-0.386597	
-0.386414	
-0.384949	
-0.384155	
-0.384949	
-0.38501	
-0.384949	
-0.385071	
-0.385315	
-0.385193	
-0.38623	
-0.385925	
-0.384888	
-0.384094	
-0.383301	
-0.385498	
-0.383057	
-0.384033	
-0.383484	
-0.384338	
-0.383057	
-0.384521	
-0.382996	
-0.382019	
-0.382202	
-0.382385	
-0.38269	
-0.382202	
-0.382263	
-0.382263	
-0.382507	
-0.382996	
-0.382019	
-0.381287	
-0.381836	
-0.381836	
-0.382568	
-0.381592	
-0.382263	
-0.382813	
-0.383423	
	
