E:\DOCUMENTS AND SETTINGS\JPOTAS\MEUS DOCUMENTOS\UFRJ\RSCI-BM 12 WK SERIES\070731-RSCI-BM-12\RSCI-BM-12-REMG\070731-RSCI-BM-12-REMG-0013.ACQ
0.025000 msec/sample
1 channel
Analog input
Volts
CH1	
2000	
-0.388794	
-0.389282	
-0.388489	
-0.388367	
-0.387512	
-0.387146	
-0.388367	
-0.388428	
-0.388489	
-0.388184	
-0.38678	
-0.386292	
-0.384827	
-0.385742	
-0.385864	
-0.385193	
-0.384949	
-0.383789	
-0.38446	
-0.385498	
-0.385925	
-0.385925	
-0.38623	
-0.385864	
-0.38501	
-0.385925	
-0.386963	
-0.387024	
-0.38623	
-0.385681	
-0.386169	
-0.385986	
-0.386414	
-0.387451	
-0.387817	
-0.387634	
-0.387817	
-0.387878	
-0.388977	
-0.389954	
-0.389709	
-0.389343	
-0.389587	
-0.388977	
-0.389709	
-0.389954	
-0.391052	
-0.39032	
-0.389587	
-0.388977	
-0.388672	
-0.389221	
-0.390015	
-0.389893	
-0.389648	
-0.38916	
-0.389221	
-0.390015	
-0.390686	
-0.390808	
-0.390198	
-0.389221	
-0.388733	
-0.389709	
-0.390747	
-0.390198	
-0.389099	
-0.389282	
-0.389465	
-0.388916	
-0.390015	
-0.390442	
-0.390564	
-0.389771	
-0.388916	
-0.388855	
-0.388062	
-0.389771	
-0.388611	
-0.388367	
-0.388184	
-0.387695	
-0.388123	
-0.388977	
-0.388977	
-0.388428	
-0.387573	
-0.386597	
-0.385986	
-0.387207	
-0.387512	
-0.387512	
-0.386963	
-0.387268	
-0.387634	
-0.388	
-0.388977	
-0.388794	
-0.387268	
-0.387329	
-0.387512	
-0.387512	
-0.388672	
-0.388855	
-0.388123	
-0.388489	
-0.387268	
-0.387695	
-0.389404	
-0.389465	
-0.390442	
-0.389099	
-0.388855	
-0.388916	
-0.389343	
-0.389771	
-0.39032	
-0.389526	
-0.389465	
-0.389587	
-0.389709	
-0.390686	
-0.390442	
-0.389587	
-0.389587	
-0.38855	
-0.389221	
-0.389954	
-0.390198	
-0.390076	
-0.389893	
-0.389771	
-0.390015	
-0.390198	
-0.391235	
-0.391968	
-0.390869	
-0.389832	
-0.389893	
-0.38855	
-0.391235	
-0.391052	
-0.39093	
-0.390686	
-0.390198	
-0.390137	
-0.391357	
-0.391602	
-0.392029	
-0.390808	
-0.390686	
-0.390564	
-0.391052	
-0.391602	
-0.391724	
-0.390381	
-0.389343	
-0.388062	
-0.388855	
-0.389465	
-0.388245	
-0.388	
-0.387573	
-0.385925	
-0.385742	
-0.387634	
-0.387878	
-0.387512	
-0.387329	
-0.387634	
-0.386414	
-0.388062	
-0.388855	
-0.389526	
-0.388428	
-0.388306	
-0.388184	
-0.388672	
-0.38916	
-0.390198	
-0.389587	
-0.390198	
-0.390076	
-0.390869	
-0.391418	
-0.392822	
-0.392578	
-0.391907	
-0.392273	
-0.391663	
-0.392334	
-0.393677	
-0.394653	
-0.393982	
-0.394043	
-0.393982	
-0.394897	
-0.394592	
-0.388733	
-0.387878	
-0.387085	
-0.386414	
-0.386963	
-0.388733	
-0.395325	
-0.395691	
-0.395203	
-0.395081	
-0.393677	
-0.394531	
-0.395386	
-0.395264	
-0.394287	
-0.394226	
-0.393555	
-0.393433	
-0.39386	
-0.394653	
-0.394287	
-0.394104	
-0.39325	
-0.392395	
-0.393494	
-0.39386	
-0.393738	
-0.392456	
-0.391968	
-0.390991	
-0.390808	
-0.391907	
-0.392761	
-0.39209	
-0.391968	
-0.390869	
-0.391663	
-0.392517	
-0.3927	
-0.392456	
-0.391663	
-0.390137	
-0.391418	
-0.391296	
-0.392944	
-0.391418	
-0.391785	
-0.391113	
-0.390869	
-0.392151	
-0.393188	
-0.392395	
-0.392578	
-0.392395	
-0.391479	
-0.39209	
-0.392639	
-0.393677	
-0.393555	
-0.393494	
-0.393066	
-0.391846	
-0.39325	
-0.394043	
-0.393677	
-0.393372	
-0.393188	
-0.393005	
-0.392639	
-0.393066	
-0.393005	
-0.392761	
-0.3927	
-0.391113	
-0.390869	
-0.392456	
-0.391663	
-0.391907	
-0.390503	
-0.389221	
-0.390076	
-0.389832	
-0.391724	
-0.391235	
-0.390991	
-0.391113	
-0.391418	
-0.392395	
-0.394348	
-0.394226	
-0.394592	
-0.395081	
-0.395508	
-0.397095	
-0.398132	
-0.399597	
-0.400085	
-0.401184	
-0.401672	
-0.402161	
-0.405151	
-0.405884	
-0.407898	
-0.408569	
-0.408691	
-0.411682	
-0.413208	
-0.4151	
-0.416138	
-0.416992	
-0.417114	
-0.419006	
-0.420532	
-0.420349	
-0.422607	
-0.422852	
-0.422607	
-0.425659	
-0.427063	
-0.42926	
-0.429871	
-0.430847	
-0.431641	
-0.432068	
-0.434937	
-0.435181	
-0.436401	
-0.437378	
-0.438171	
-0.440552	
-0.442627	
-0.446716	
-0.448486	
-0.449524	
-0.450745	
-0.450928	
-0.453064	
-0.454529	
-0.454468	
-0.455627	
-0.454834	
-0.456238	
-0.456665	
-0.457886	
-0.45874	
-0.458984	
-0.460022	
-0.460144	
-0.461121	
-0.463501	
-0.463257	
-0.4646	
-0.464172	
-0.462769	
-0.465454	
-0.4646	
-0.466248	
-0.466064	
-0.465698	
-0.465149	
-0.464783	
-0.465515	
-0.464233	
-0.464233	
-0.464172	
-0.462097	
-0.46283	
-0.462219	
-0.462158	
-0.461426	
-0.459717	
-0.458984	
-0.456909	
-0.455933	
-0.45697	
-0.45459	
-0.453491	
-0.450867	
-0.449585	
-0.447693	
-0.445496	
-0.444885	
-0.442078	
-0.439575	
-0.437134	
-0.43457	
-0.433228	
-0.430847	
-0.42865	
-0.42688	
-0.423828	
-0.421387	
-0.419312	
-0.417969	
-0.41626	
-0.413208	
-0.411072	
-0.408508	
-0.40564	
-0.405518	
-0.401184	
-0.399719	
-0.397278	
-0.392578	
-0.393311	
-0.389832	
-0.391052	
-0.389526	
-0.388184	
-0.387329	
-0.386414	
-0.38562	
-0.386963	
-0.385132	
-0.385803	
-0.383728	
-0.38324	
-0.382935	
-0.381958	
-0.381897	
-0.381042	
-0.380371	
-0.379272	
-0.378479	
-0.378296	
-0.377747	
-0.377563	
-0.376404	
-0.374268	
-0.375793	
-0.374146	
-0.375732	
-0.375488	
-0.373535	
-0.37207	
-0.370117	
-0.36969	
-0.369873	
-0.367554	
-0.36731	
-0.364868	
-0.363647	
-0.361877	
-0.361816	
-0.360657	
-0.359924	
-0.358948	
-0.357483	
-0.357971	
-0.359192	
-0.357483	
-0.358093	
-0.356628	
-0.356995	
-0.357605	
-0.358582	
-0.359558	
-0.360168	
-0.360474	
-0.361145	
-0.361572	
-0.363586	
-0.363464	
-0.364319	
-0.364319	
-0.364319	
-0.365784	
-0.366272	
-0.367249	
-0.368225	
-0.367615	
-0.368225	
-0.368347	
-0.369995	
-0.369568	
-0.370605	
-0.369507	
-0.368652	
-0.370361	
-0.369873	
-0.37207	
-0.372375	
-0.372131	
-0.372681	
-0.372986	
-0.37323	
-0.374084	
-0.374756	
-0.374634	
-0.373291	
-0.375488	
-0.374939	
-0.377869	
-0.377747	
-0.37793	
-0.378113	
-0.378357	
-0.378906	
-0.379578	
-0.380066	
-0.379944	
-0.378662	
-0.380188	
-0.380188	
-0.380676	
-0.380432	
-0.380554	
-0.380188	
-0.379028	
-0.38031	
-0.381287	
-0.380493	
-0.380554	
-0.378845	
-0.379456	
-0.379211	
-0.379578	
-0.379333	
-0.378967	
-0.378784	
-0.378357	
-0.37793	
-0.379272	
-0.378235	
-0.37854	
-0.377075	
-0.377197	
-0.377258	
-0.377136	
-0.377319	
-0.377075	
-0.37616	
-0.37616	
-0.375793	
-0.376709	
-0.376038	
-0.376282	
-0.375977	
-0.375061	
-0.377258	
-0.376587	
-0.377747	
-0.378662	
-0.377991	
-0.377563	
-0.377136	
-0.377869	
-0.37915	
-0.378601	
-0.380188	
-0.379395	
-0.379761	
-0.379333	
-0.380432	
-0.381165	
-0.381042	
-0.381042	
-0.380859	
-0.38147	
-0.383423	
-0.382263	
-0.382507	
-0.382263	
-0.381104	
-0.38324	
-0.382813	
-0.384705	
-0.384766	
-0.384277	
-0.384155	
-0.383057	
-0.384705	
-0.384583	
-0.38446	
-0.384399	
-0.384277	
-0.384705	
-0.384277	
-0.384827	
-0.385986	
-0.384521	
-0.38446	
-0.383972	
-0.383545	
-0.385742	
-0.384399	
-0.38501	
-0.384033	
-0.38208	
-0.383545	
-0.383545	
-0.384399	
-0.384155	
-0.383728	
-0.383545	
-0.382935	
-0.384033	
-0.383423	
-0.383728	
-0.383606	
-0.382629	
-0.383728	
-0.383545	
-0.383911	
-0.384949	
-0.383789	
-0.383545	
-0.383545	
-0.383484	
-0.385986	
-0.384766	
-0.385132	
-0.383972	
-0.383057	
-0.384399	
-0.383362	
-0.385132	
-0.38501	
-0.384216	
-0.384338	
-0.383728	
-0.384949	
-0.385437	
-0.385132	
-0.38501	
-0.384644	
-0.384399	
-0.384644	
-0.385315	
-0.386292	
-0.385498	
-0.385986	
-0.385803	
-0.384155	
-0.387512	
-0.387268	
-0.38739	
-0.38678	
-0.386658	
-0.387085	
-0.386047	
-0.387573	
-0.388428	
-0.387756	
-0.388	
-0.387817	
-0.387634	
-0.389343	
-0.388855	
-0.388794	
-0.387268	
-0.387695	
-0.388	
-0.388306	
-0.388916	
-0.388184	
-0.388245	
-0.387817	
-0.387207	
-0.388611	
-0.388367	
-0.388916	
-0.387939	
-0.388123	
-0.388062	
-0.387573	
-0.388245	
-0.38855	
-0.38739	
-0.386841	
-0.38678	
-0.387146	
-0.38739	
-0.386475	
-0.387085	
-0.385254	
-0.384949	
-0.385437	
-0.385498	
-0.385376	
-0.385437	
-0.383972	
-0.383667	
-0.382874	
-0.383362	
-0.383057	
-0.383606	
-0.382935	
-0.382263	
-0.383484	
-0.383484	
-0.384155	
-0.385132	
-0.384216	
-0.38446	
-0.383911	
-0.384949	
-0.384888	
-0.384277	
-0.384094	
-0.383728	
-0.384827	
-0.384644	
-0.385742	
-0.387024	
-0.387634	
-0.386902	
-0.386963	
-0.386536	
-0.388123	
-0.387634	
-0.388428	
-0.38678	
-0.386658	
-0.387512	
-0.386597	
-0.387939	
-0.388245	
-0.388	
-0.388	
-0.387573	
-0.387329	
-0.388062	
-0.388062	
-0.387878	
-0.385742	
-0.387939	
-0.387634	
-0.387695	
-0.388	
-0.389221	
-0.387451	
-0.387207	
-0.387634	
-0.387634	
-0.388184	
-0.388367	
-0.387329	
-0.386658	
-0.387939	
-0.386902	
-0.387573	
-0.387817	
-0.387817	
-0.386963	
-0.386719	
-0.386597	
-0.386902	
-0.386536	
-0.387207	
-0.38501	
-0.385986	
-0.385681	
-0.385803	
-0.38562	
-0.38678	
-0.385376	
-0.38562	
-0.385864	
-0.384949	
-0.385986	
-0.386353	
-0.385742	
-0.385681	
-0.386169	
-0.386108	
-0.386292	
-0.386902	
-0.388184	
-0.386841	
-0.386658	
-0.386841	
-0.386292	
-0.387512	
-0.388062	
-0.386414	
-0.387268	
-0.387756	
-0.388184	
-0.388794	
-0.388855	
-0.389038	
-0.388733	
-0.388428	
-0.389221	
-0.388794	
-0.389221	
-0.388611	
-0.38855	
-0.388794	
-0.38855	
-0.389221	
-0.389282	
-0.390686	
-0.388794	
-0.389221	
-0.389954	
-0.387878	
-0.389404	
-0.390686	
-0.387878	
-0.389648	
-0.389526	
-0.388855	
-0.389893	
-0.39032	
-0.391541	
-0.389587	
-0.39032	
-0.391174	
-0.389954	
-0.39032	
-0.390198	
-0.390137	
-0.390625	
-0.390198	
-0.390686	
-0.390625	
-0.391785	
-0.391235	
-0.390442	
-0.391113	
-0.38916	
-0.389893	
-0.389832	
-0.388184	
-0.388977	
-0.388	
-0.386475	
-0.387634	
-0.387146	
-0.387756	
-0.386475	
-0.386658	
-0.387634	
-0.38501	
-0.386292	
-0.386841	
-0.386353	
-0.386963	
-0.387024	
-0.386353	
-0.387451	
-0.388245	
-0.388489	
-0.388245	
-0.388489	
-0.387451	
-0.388977	
-0.389343	
-0.389404	
-0.389465	
-0.390076	
-0.390381	
-0.390686	
-0.391541	
-0.391541	
-0.391785	
-0.392334	
-0.393799	
-0.391602	
-0.3927	
-0.393738	
-0.391602	
-0.394104	
-0.394592	
-0.393982	
-0.395386	
-0.395569	
-0.395386	
-0.394775	
-0.394653	
-0.394714	
-0.393921	
-0.393372	
-0.394104	
-0.393372	
-0.392944	
-0.393188	
-0.392822	
-0.393372	
-0.394226	
-0.392944	
-0.393005	
-0.393372	
-0.392578	
-0.392822	
-0.392883	
-0.392334	
-0.39209	
-0.391724	
-0.391602	
-0.392212	
-0.392395	
-0.392395	
-0.391479	
-0.391357	
-0.391602	
-0.390076	
-0.390442	
-0.390991	
-0.389465	
-0.39032	
-0.390442	
-0.390564	
-0.39093	
-0.391846	
-0.391113	
-0.390259	
-0.390564	
-0.391296	
-0.390747	
-0.390747	
-0.391052	
-0.390259	
-0.391235	
-0.390869	
-0.390198	
-0.391541	
-0.391846	
-0.391785	
-0.391907	
-0.392151	
-0.391846	
-0.392334	
-0.392273	
-0.391663	
-0.392883	
-0.392883	
-0.392883	
-0.392761	
-0.393494	
-0.393799	
-0.393066	
-0.392883	
-0.392517	
-0.392151	
-0.392456	
-0.392334	
-0.390991	
-0.391357	
-0.391235	
-0.390625	
-0.391418	
-0.390808	
-0.391541	
-0.390625	
-0.391174	
-0.391052	
-0.390381	
-0.390259	
-0.390259	
-0.39032	
-0.390381	
-0.390076	
-0.390503	
-0.391541	
-0.391052	
-0.390808	
-0.390686	
-0.390503	
-0.390442	
-0.390442	
-0.389954	
-0.389526	
-0.389893	
-0.389832	
-0.389404	
-0.390442	
-0.390564	
-0.390564	
-0.389709	
-0.389709	
-0.390259	
-0.388611	
-0.389038	
-0.388611	
-0.388	
-0.388855	
-0.388245	
-0.387451	
-0.388489	
-0.388	
-0.388611	
-0.388	
-0.387451	
-0.388733	
-0.388062	
-0.388	
-0.387817	
-0.388245	
-0.387634	
-0.387695	
-0.387939	
-0.388794	
-0.388611	
-0.387878	
-0.388123	
-0.388428	
-0.38739	
-0.388977	
-0.388367	
-0.388733	
-0.38916	
-0.389343	
-0.388672	
-0.390381	
-0.390137	
-0.390137	
-0.390442	
-0.390625	
-0.391357	
-0.391235	
-0.391724	
-0.392151	
-0.392212	
-0.393127	
-0.393555	
-0.393066	
-0.394165	
-0.393311	
-0.392822	
-0.392944	
-0.393005	
-0.392578	
-0.392456	
-0.39209	
-0.39209	
-0.391846	
-0.391907	
-0.391785	
-0.392944	
-0.391907	
-0.3927	
-0.391907	
-0.391235	
-0.391174	
-0.39032	
-0.390442	
-0.390625	
-0.388672	
-0.389282	
-0.388489	
-0.388245	
-0.389893	
-0.388489	
-0.388062	
-0.387878	
-0.388489	
-0.389099	
-0.387939	
-0.388367	
-0.388062	
-0.388306	
-0.387878	
-0.388062	
-0.388672	
-0.388489	
-0.38916	
-0.38855	
-0.388306	
-0.388916	
-0.387146	
-0.388245	
-0.387878	
-0.387756	
-0.388367	
-0.388245	
-0.388184	
-0.388733	
-0.388794	
-0.388794	
-0.38916	
-0.388428	
-0.389526	
-0.389221	
-0.38916	
-0.389526	
-0.388855	
-0.389343	
-0.389648	
-0.38855	
-0.390991	
-0.390808	
-0.390503	
-0.390442	
-0.391846	
-0.390015	
-0.390991	
-0.390686	
-0.391174	
-0.390625	
-0.39093	
-0.39093	
-0.391174	
-0.391724	
-0.391418	
-0.391357	
-0.391174	
-0.391541	
-0.391113	
-0.390869	
-0.39093	
-0.389954	
-0.390747	
-0.390869	
-0.390137	
-0.390991	
-0.390381	
-0.389648	
-0.389587	
-0.389343	
-0.389648	
-0.389282	
-0.388977	
-0.389404	
-0.388977	
-0.388733	
-0.388794	
-0.388062	
-0.389221	
-0.389343	
-0.38916	
-0.388367	
-0.390076	
-0.389221	
-0.389099	
-0.389099	
-0.387756	
-0.388672	
-0.388489	
-0.388916	
-0.389038	
-0.389343	
-0.388306	
-0.388367	
-0.387573	
-0.389099	
-0.388062	
-0.388306	
-0.388123	
-0.387146	
-0.387756	
-0.387878	
-0.38739	
-0.388245	
-0.387756	
-0.387451	
-0.387024	
-0.387756	
-0.388184	
-0.387451	
-0.387573	
-0.387146	
-0.387939	
-0.387634	
-0.388123	
-0.38916	
-0.389832	
-0.389709	
-0.390259	
-0.389893	
-0.391357	
-0.391846	
-0.391541	
-0.391357	
-0.391174	
-0.391357	
-0.391602	
-0.391418	
-0.392395	
-0.391602	
-0.391602	
-0.390625	
-0.390991	
-0.390808	
-0.390564	
-0.390076	
-0.390015	
-0.388855	
-0.38916	
-0.388916	
-0.388611	
-0.388855	
-0.388611	
-0.387634	
-0.38739	
-0.387512	
-0.387512	
-0.386658	
-0.386169	
-0.385376	
-0.386108	
-0.385925	
-0.384827	
-0.385376	
-0.385132	
-0.383911	
-0.383545	
-0.38269	
-0.383545	
-0.383179	
-0.383118	
-0.383301	
-0.38208	
-0.383728	
-0.383972	
-0.383789	
-0.384888	
-0.385193	
-0.384583	
-0.38446	
-0.384338	
-0.383728	
-0.384277	
-0.38446	
-0.384766	
-0.384888	
-0.38501	
-0.384888	
-0.385681	
-0.386292	
-0.386353	
-0.385986	
-0.385803	
-0.38739	
-0.385803	
-0.385925	
-0.386169	
-0.384583	
-0.386658	
-0.386536	
-0.385681	
-0.387146	
-0.387146	
-0.387146	
-0.386719	
-0.386536	
-0.387512	
-0.386902	
-0.386841	
-0.386963	
-0.387085	
-0.386719	
-0.386597	
-0.386414	
-0.387268	
-0.387207	
-0.386719	
-0.386597	
-0.387634	
-0.385254	
-0.386963	
-0.386108	
-0.384521	
-0.385681	
-0.385925	
-0.385742	
-0.385681	
-0.385864	
-0.38623	
-0.385437	
-0.385071	
-0.386414	
-0.385559	
-0.38562	
-0.385803	
-0.384949	
-0.385437	
-0.385925	
-0.385498	
-0.386536	
-0.387024	
-0.385498	
-0.386536	
-0.385803	
-0.385864	
-0.386597	
-0.386719	
-0.386353	
-0.387329	
-0.386902	
-0.387329	
-0.387207	
-0.387146	
-0.387573	
-0.38739	
-0.386963	
-0.387573	
-0.387085	
-0.38739	
-0.388	
-0.38623	
-0.387329	
-0.387329	
-0.386475	
-0.387878	
-0.387817	
-0.388184	
-0.387512	
-0.387939	
-0.388611	
-0.387817	
-0.388428	
-0.387085	
-0.387634	
-0.388245	
-0.388306	
-0.38855	
-0.389343	
-0.389465	
-0.389404	
-0.389343	
-0.390259	
-0.388611	
-0.390259	
-0.389893	
-0.389343	
-0.390076	
-0.389771	
-0.388672	
-0.390198	
-0.390625	
-0.391052	
-0.389404	
-0.390076	
-0.390137	
-0.389893	
-0.390015	
-0.389771	
-0.388794	
-0.389954	
-0.389465	
-0.388306	
-0.389404	
-0.389282	
-0.388611	
-0.388184	
-0.388611	
-0.388428	
-0.387512	
-0.387634	
-0.387207	
-0.387085	
-0.387268	
-0.386597	
-0.386536	
-0.386658	
-0.385864	
-0.384766	
-0.384827	
-0.384277	
-0.384033	
-0.384338	
-0.384888	
-0.384033	
-0.385132	
-0.385071	
-0.384644	
-0.385681	
-0.386536	
-0.386536	
-0.385803	
-0.385742	
-0.386658	
-0.384766	
-0.386169	
-0.38562	
-0.386414	
-0.386597	
-0.387512	
-0.38739	
-0.388062	
-0.388855	
-0.389221	
-0.38916	
-0.390076	
-0.389038	
-0.389587	
-0.389343	
-0.388428	
-0.389282	
-0.389221	
-0.38916	
-0.389587	
-0.390015	
-0.389587	
-0.389465	
-0.389282	
-0.389526	
-0.389343	
-0.389404	
-0.389465	
-0.388489	
-0.389526	
-0.389282	
-0.388123	
-0.389465	
-0.390076	
-0.390015	
-0.389038	
-0.389404	
-0.389709	
-0.388367	
-0.38916	
-0.388733	
-0.389221	
-0.389526	
-0.38916	
-0.389038	
-0.388794	
-0.389038	
-0.38855	
-0.388672	
-0.388794	
-0.388611	
-0.387756	
-0.388184	
-0.386292	
-0.387451	
-0.387268	
-0.386658	
-0.387085	
-0.388306	
-0.386841	
-0.386963	
-0.387573	
-0.387329	
-0.386536	
-0.38739	
-0.387756	
-0.387207	
-0.387207	
-0.387085	
-0.386719	
-0.387634	
-0.388367	
-0.387756	
-0.387451	
-0.388611	
-0.387817	
-0.38739	
-0.388367	
-0.387756	
-0.388245	
-0.388977	
-0.388916	
-0.389038	
-0.389771	
-0.389648	
-0.389954	
-0.389343	
-0.390198	
-0.388855	
-0.388733	
-0.388977	
-0.388916	
-0.388855	
-0.389404	
-0.388367	
-0.389526	
-0.389832	
-0.389587	
-0.389465	
-0.390442	
-0.389526	
-0.389282	
-0.389709	
-0.389343	
-0.389709	
-0.389648	
-0.389832	
-0.388977	
-0.390259	
-0.391235	
-0.391174	
-0.390198	
-0.391174	
-0.389099	
-0.389893	
-0.390137	
-0.390198	
-0.390442	
-0.391052	
-0.390259	
-0.391113	
-0.390747	
-0.391296	
-0.391357	
-0.390747	
-0.390137	
-0.388733	
-0.387878	
-0.387207	
-0.387878	
-0.387939	
-0.387085	
-0.386169	
-0.386597	
-0.386719	
-0.386292	
-0.386902	
-0.387146	
-0.386047	
-0.386353	
-0.386475	
-0.386963	
-0.38739	
-0.386841	
-0.387512	
-0.386719	
-0.387878	
-0.388733	
-0.389038	
-0.388977	
-0.389465	
-0.388306	
-0.389038	
-0.389099	
-0.389954	
-0.390381	
-0.390625	
-0.39093	
-0.391479	
-0.392212	
-0.391785	
-0.393372	
-0.393555	
-0.393921	
-0.393372	
-0.393494	
-0.39325	
-0.394775	
-0.394592	
-0.395081	
-0.394226	
-0.395447	
-0.395203	
-0.394714	
-0.394775	
-0.394653	
-0.392822	
-0.393555	
-0.393127	
-0.393982	
-0.393738	
-0.393799	
-0.392944	
-0.392883	
-0.39325	
-0.39386	
-0.393616	
-0.39325	
-0.393372	
-0.392151	
-0.392151	
-0.392395	
-0.391846	
-0.392578	
-0.392151	
-0.391968	
-0.391968	
-0.392151	
-0.391235	
-0.391846	
-0.391479	
-0.391602	
-0.390686	
-0.389404	
-0.390747	
-0.391113	
-0.391174	
-0.391113	
-0.390442	
-0.390991	
-0.392029	
-0.390747	
-0.391846	
-0.391663	
-0.390747	
-0.390808	
-0.39093	
-0.391357	
-0.391174	
-0.391663	
-0.391724	
-0.392029	
-0.392761	
-0.392639	
-0.393005	
-0.393494	
-0.393982	
-0.392761	
-0.392578	
-0.392578	
-0.393494	
-0.393005	
-0.393555	
-0.393311	
-0.39386	
-0.394653	
-0.394043	
-0.393494	
-0.393372	
-0.392273	
-0.393127	
-0.392212	
-0.393066	
-0.391785	
-0.391602	
-0.391663	
-0.390625	
-0.391785	
-0.391724	
-0.391968	
-0.392456	
-0.393127	
-0.391235	
-0.391602	
-0.390747	
-0.39032	
-0.391052	
-0.391724	
-0.391541	
-0.391479	
-0.392273	
-0.391663	
-0.391907	
-0.391907	
-0.391479	
-0.391479	
-0.390564	
-0.390808	
-0.390869	
-0.390808	
-0.390686	
-0.390259	
-0.390625	
-0.390808	
-0.390137	
-0.390747	
-0.390503	
-0.390503	
-0.389343	
-0.388611	
-0.388306	
-0.38916	
-0.388733	
-0.388855	
-0.387512	
-0.389038	
-0.388184	
-0.389038	
-0.389587	
-0.38855	
-0.388306	
-0.388428	
-0.387268	
-0.387573	
-0.388062	
-0.388062	
-0.388062	
-0.388672	
-0.388916	
-0.388306	
-0.388733	
-0.389099	
-0.389465	
-0.389465	
-0.388672	
-0.388916	
-0.389587	
-0.389648	
-0.389648	
-0.389587	
-0.39032	
-0.389709	
-0.390137	
-0.391479	
-0.391724	
-0.392029	
-0.392334	
-0.391479	
-0.392639	
-0.393616	
-0.393799	
-0.393433	
-0.392273	
-0.393921	
-0.393127	
-0.393005	
-0.393799	
-0.39325	
-0.392029	
-0.391968	
-0.391846	
-0.391846	
-0.392395	
-0.392395	
-0.391968	
-0.392334	
-0.392334	
-0.391724	
-0.391113	
-0.39093	
-0.390442	
-0.389832	
-0.388794	
-0.38916	
-0.389038	
-0.388794	
-0.388611	
-0.388672	
-0.389038	
-0.388672	
-0.389038	
-0.389526	
-0.388916	
-0.389343	
-0.388367	
-0.388	
-0.387512	
-0.388855	
-0.388245	
-0.388794	
-0.387512	
-0.389404	
-0.388428	
-0.38916	
-0.389404	
-0.390381	
-0.388672	
-0.388977	
-0.388245	
-0.389648	
-0.388733	
-0.38855	
-0.388794	
-0.389221	
-0.389038	
-0.389099	
-0.389709	
-0.389893	
-0.389893	
-0.389771	
-0.388855	
-0.389404	
-0.390137	
-0.389893	
-0.390076	
-0.390137	
-0.391602	
-0.39093	
-0.390625	
-0.391357	
-0.391174	
-0.390137	
-0.390625	
-0.390198	
-0.389893	
-0.391235	
-0.391479	
-0.390686	
-0.390503	
-0.391724	
-0.391663	
-0.390808	
-0.390991	
-0.391907	
-0.39093	
-0.39032	
-0.390625	
-0.391113	
-0.390076	
-0.389526	
-0.38916	
-0.388733	
-0.388916	
-0.389404	
-0.389771	
-0.388489	
-0.389343	
-0.388733	
-0.387939	
-0.388062	
-0.389343	
-0.388733	
-0.388611	
-0.388428	
-0.38916	
-0.388733	
-0.389282	
-0.389648	
-0.390442	
-0.388794	
-0.388306	
-0.387817	
-0.387451	
-0.388489	
-0.388062	
-0.38855	
-0.387634	
-0.388306	
-0.388184	
-0.388367	
-0.387695	
-0.388428	
-0.387695	
-0.387329	
-0.387573	
-0.38855	
-0.387695	
-0.388	
-0.387207	
-0.387024	
-0.387268	
-0.387634	
-0.388062	
-0.387329	
-0.387634	
-0.387573	
-0.386719	
-0.385681	
-0.388062	
-0.388672	
-0.389343	
-0.389282	
-0.39032	
-0.390869	
-0.391113	
-0.391846	
-0.393066	
-0.391541	
-0.391235	
-0.391235	
-0.391113	
-0.391418	
-0.391235	
-0.390869	
-0.390198	
-0.391113	
-0.390808	
-0.391113	
-0.390015	
-0.390625	
-0.389893	
-0.388611	
-0.389099	
-0.389832	
-0.389038	
-0.388733	
-0.388	
-0.388367	
-0.387939	
-0.387329	
-0.387573	
-0.386292	
-0.386353	
-0.386169	
-0.386353	
-0.383911	
-0.385376	
-0.385071	
-0.384888	
-0.383606	
-0.385376	
-0.383789	
-0.384216	
-0.383972	
-0.385376	
-0.383606	
-0.384155	
-0.383728	
-0.384521	
-0.384338	
-0.384216	
-0.384216	
-0.384766	
-0.384644	
-0.384521	
-0.385254	
-0.384644	
-0.385376	
-0.385071	
-0.384277	
-0.385254	
-0.385559	
-0.385986	
-0.385864	
-0.385132	
-0.386475	
-0.386536	
-0.386108	
-0.386536	
-0.386292	
-0.385925	
-0.386719	
-0.386658	
-0.385742	
-0.386414	
-0.38678	
-0.386719	
-0.387146	
-0.387451	
-0.386841	
-0.38739	
-0.387207	
-0.387573	
-0.387085	
-0.38623	
-0.386841	
-0.386414	
-0.38678	
-0.386963	
-0.38623	
-0.386719	
-0.386841	
-0.38678	
-0.387329	
-0.386475	
-0.38678	
-0.385986	
-0.385132	
-0.385803	
-0.385925	
-0.385559	
-0.385681	
-0.38446	
-0.385437	
-0.385681	
-0.38623	
-0.385498	
-0.385925	
-0.385254	
-0.384766	
-0.385315	
-0.384888	
-0.385498	
-0.385681	
-0.385803	
-0.38623	
-0.387207	
-0.386353	
-0.387878	
-0.387024	
-0.387573	
-0.386597	
-0.385986	
-0.387024	
-0.385803	
-0.386719	
-0.386658	
-0.386597	
-0.387146	
-0.387024	
-0.387024	
-0.387634	
-0.387634	
-0.387451	
-0.386658	
-0.386902	
-0.38678	
-0.386841	
-0.387207	
-0.387207	
-0.38739	
-0.388123	
-0.387756	
-0.388062	
-0.388245	
-0.387878	
-0.388123	
-0.387756	
-0.387939	
-0.388367	
-0.388367	
-0.388428	
-0.388428	
-0.389038	
-0.390137	
-0.390015	
-0.390442	
-0.390503	
-0.390076	
-0.389832	
-0.389282	
-0.389893	
-0.388733	
-0.389832	
-0.389282	
-0.389038	
-0.390137	
-0.390137	
-0.390015	
-0.390747	
-0.390442	
-0.390076	
-0.389343	
-0.389099	
-0.389282	
-0.388672	
-0.388672	
	
