E:\DOCUMENTS AND SETTINGS\JPOTAS\MEUS DOCUMENTOS\UFRJ\RSCI-BM 12 WK SERIES\070720-RSCI-BM-04\RSCI-BM-04-REMG\070720-RSCI-BM-REMG-0012.ACQ
0.025000 msec/sample
1 channel
Analog input
Volts
CH1	
2000	
-0.387878	
-0.387817	
-0.387817	
-0.388123	
-0.387146	
-0.387451	
-0.386292	
-0.387329	
-0.386414	
-0.38739	
-0.387817	
-0.387817	
-0.387512	
-0.386414	
-0.387207	
-0.388306	
-0.387146	
-0.388123	
-0.386658	
-0.386658	
-0.388245	
-0.387878	
-0.388794	
-0.386658	
-0.387756	
-0.386963	
-0.387756	
-0.386536	
-0.387695	
-0.385925	
-0.387512	
-0.38623	
-0.387878	
-0.387207	
-0.387634	
-0.387817	
-0.387512	
-0.387512	
-0.388306	
-0.388062	
-0.388184	
-0.388367	
-0.387939	
-0.388428	
-0.387451	
-0.388489	
-0.387939	
-0.388855	
-0.387512	
-0.389221	
-0.387939	
-0.388428	
-0.387695	
-0.388062	
-0.38916	
-0.388855	
-0.387939	
-0.387085	
-0.387939	
-0.388916	
-0.388184	
-0.387878	
-0.389099	
-0.388916	
-0.388977	
-0.388489	
-0.389038	
-0.388306	
-0.388428	
-0.38739	
-0.388916	
-0.387634	
-0.388489	
-0.388733	
-0.388672	
-0.388977	
-0.388	
-0.38916	
-0.388367	
-0.389099	
-0.389038	
-0.389648	
-0.388184	
-0.388855	
-0.387756	
-0.38916	
-0.388977	
-0.389465	
-0.389038	
-0.388062	
-0.388	
-0.388733	
-0.388794	
-0.388672	
-0.389343	
-0.388794	
-0.389709	
-0.388062	
-0.388794	
-0.389221	
-0.389465	
-0.388611	
-0.389954	
-0.388977	
-0.390015	
-0.389343	
-0.389771	
-0.390381	
-0.390015	
-0.39032	
-0.388794	
-0.389709	
-0.390381	
-0.390625	
-0.390137	
-0.391113	
-0.390076	
-0.390991	
-0.390991	
-0.392212	
-0.391418	
-0.392517	
-0.391479	
-0.392151	
-0.39209	
-0.392273	
-0.392029	
-0.391296	
-0.3927	
-0.390991	
-0.391052	
-0.39093	
-0.391296	
-0.391113	
-0.391785	
-0.389954	
-0.391479	
-0.390503	
-0.390747	
-0.390686	
-0.391174	
-0.390137	
-0.390137	
-0.389893	
-0.390381	
-0.39032	
-0.390442	
-0.391541	
-0.390076	
-0.390503	
-0.390015	
-0.391052	
-0.390442	
-0.39093	
-0.389221	
-0.390259	
-0.389221	
-0.389893	
-0.390137	
-0.390625	
-0.390259	
-0.390015	
-0.389893	
-0.38916	
-0.389771	
-0.389893	
-0.390625	
-0.389893	
-0.390076	
-0.388916	
-0.390198	
-0.390503	
-0.391052	
-0.389709	
-0.390991	
-0.389771	
-0.390686	
-0.389832	
-0.390442	
-0.391052	
-0.391113	
-0.391968	
-0.390259	
-0.391968	
-0.390808	
-0.391724	
-0.390076	
-0.391968	
-0.390076	
-0.391968	
-0.391418	
-0.392212	
-0.391235	
-0.390808	
-0.390869	
-0.39093	
-0.390686	
-0.389832	
-0.390198	
-0.389587	
-0.389832	
-0.38855	
-0.390015	
-0.389893	
-0.391602	
-0.390381	
-0.391846	
-0.390503	
-0.390686	
-0.390198	
-0.390686	
-0.390381	
-0.390564	
-0.391052	
-0.39093	
-0.390808	
-0.390076	
-0.390747	
-0.390198	
-0.390991	
-0.390442	
-0.391785	
-0.390137	
-0.39093	
-0.389771	
-0.391052	
-0.391113	
-0.391357	
-0.39093	
-0.391296	
-0.391296	
-0.391479	
-0.391296	
-0.390503	
-0.391479	
-0.39093	
-0.392212	
-0.390747	
-0.391113	
-0.389832	
-0.391113	
-0.390808	
-0.391418	
-0.391174	
-0.391357	
-0.392273	
-0.392212	
-0.391968	
-0.391907	
-0.392029	
-0.392273	
-0.393127	
-0.392578	
-0.392334	
-0.392273	
-0.392944	
-0.393127	
-0.393433	
-0.393066	
-0.393433	
-0.392883	
-0.393616	
-0.393005	
-0.394348	
-0.393677	
-0.393372	
-0.394531	
-0.394104	
-0.395264	
-0.393616	
-0.394226	
-0.393799	
-0.394897	
-0.394958	
-0.394531	
-0.39447	
-0.395447	
-0.393921	
-0.39563	
-0.395691	
-0.396545	
-0.396301	
-0.396667	
-0.396667	
-0.398804	
-0.399414	
-0.399597	
-0.401855	
-0.402649	
-0.404297	
-0.404785	
-0.406311	
-0.407776	
-0.410828	
-0.411987	
-0.414795	
-0.416077	
-0.417786	
-0.419922	
-0.422668	
-0.424683	
-0.426941	
-0.429382	
-0.432922	
-0.435059	
-0.437378	
-0.439331	
-0.442322	
-0.444336	
-0.446411	
-0.449219	
-0.451721	
-0.453247	
-0.455688	
-0.457397	
-0.461548	
-0.463013	
-0.465637	
-0.468628	
-0.472229	
-0.476013	
-0.477722	
-0.480896	
-0.483154	
-0.487671	
-0.491272	
-0.494019	
-0.497009	
-0.501465	
-0.505554	
-0.509399	
-0.511841	
-0.516052	
-0.51886	
-0.522339	
-0.524109	
-0.527588	
-0.529663	
-0.532043	
-0.53302	
-0.535461	
-0.536194	
-0.536804	
-0.538147	
-0.538635	
-0.539734	
-0.541443	
-0.540894	
-0.541077	
-0.541138	
-0.541077	
-0.540161	
-0.538879	
-0.538025	
-0.535889	
-0.535645	
-0.534119	
-0.533264	
-0.531677	
-0.530212	
-0.528687	
-0.526062	
-0.523193	
-0.52063	
-0.51886	
-0.516296	
-0.513306	
-0.511597	
-0.507751	
-0.504517	
-0.502014	
-0.498596	
-0.496338	
-0.491638	
-0.487488	
-0.483276	
-0.480774	
-0.477539	
-0.472534	
-0.469299	
-0.466003	
-0.462769	
-0.459167	
-0.455139	
-0.451416	
-0.447876	
-0.443848	
-0.43988	
-0.436707	
-0.432007	
-0.427002	
-0.423401	
-0.418823	
-0.41449	
-0.408386	
-0.403931	
-0.398193	
-0.394165	
-0.389038	
-0.386292	
-0.381409	
-0.37677	
-0.373291	
-0.369873	
-0.367004	
-0.363281	
-0.359863	
-0.356567	
-0.355835	
-0.353333	
-0.351379	
-0.34967	
-0.349243	
-0.348572	
-0.349121	
-0.348633	
-0.349304	
-0.348816	
-0.348938	
-0.348999	
-0.350952	
-0.350708	
-0.35144	
-0.352051	
-0.353882	
-0.353943	
-0.354065	
-0.35498	
-0.355713	
-0.356689	
-0.357544	
-0.3573	
-0.357727	
-0.358521	
-0.358521	
-0.359375	
-0.358643	
-0.359253	
-0.358398	
-0.360474	
-0.359863	
-0.360107	
-0.360352	
-0.361389	
-0.362366	
-0.363342	
-0.363342	
-0.363708	
-0.363281	
-0.364014	
-0.364075	
-0.364197	
-0.364258	
-0.364624	
-0.36499	
-0.364868	
-0.364685	
-0.36499	
-0.365295	
-0.36615	
-0.365234	
-0.367126	
-0.367249	
-0.367676	
-0.36792	
-0.368408	
-0.368591	
-0.368958	
-0.368835	
-0.369629	
-0.368774	
-0.370483	
-0.369873	
-0.369995	
-0.370056	
-0.370422	
-0.371582	
-0.371094	
-0.371216	
-0.370544	
-0.371948	
-0.372253	
-0.371582	
-0.370972	
-0.371704	
-0.371704	
-0.372253	
-0.371277	
-0.371094	
-0.370972	
-0.372559	
-0.371643	
-0.371826	
-0.371033	
-0.372314	
-0.37262	
-0.371948	
-0.37207	
-0.371155	
-0.371643	
-0.372192	
-0.371216	
-0.371887	
-0.371765	
-0.371826	
-0.372559	
-0.371826	
-0.371643	
-0.371033	
-0.37085	
-0.370667	
-0.370544	
-0.371704	
-0.371277	
-0.370789	
-0.371155	
-0.372681	
-0.373291	
-0.372742	
-0.373291	
-0.373596	
-0.375061	
-0.375061	
-0.374756	
-0.374512	
-0.37561	
-0.376526	
-0.37677	
-0.37677	
-0.378113	
-0.378174	
-0.378845	
-0.378174	
-0.379028	
-0.379272	
-0.3797	
-0.381653	
-0.38092	
-0.38208	
-0.381348	
-0.38147	
-0.381287	
-0.381897	
-0.38269	
-0.382446	
-0.38147	
-0.382263	
-0.38269	
-0.38324	
-0.383484	
-0.38324	
-0.382629	
-0.38324	
-0.381592	
-0.38208	
-0.381104	
-0.381165	
-0.381714	
-0.38147	
-0.382813	
-0.38147	
-0.381042	
-0.380554	
-0.381104	
-0.381714	
-0.380066	
-0.380859	
-0.379761	
-0.380798	
-0.380676	
-0.380493	
-0.38092	
-0.380676	
-0.38092	
-0.380981	
-0.381042	
-0.381287	
-0.380798	
-0.382202	
-0.381348	
-0.38208	
-0.381775	
-0.381409	
-0.380981	
-0.380066	
-0.38147	
-0.380249	
-0.380737	
-0.380127	
-0.38147	
-0.381348	
-0.381226	
-0.380188	
-0.380798	
-0.380676	
-0.381409	
-0.380798	
-0.380981	
-0.380432	
-0.381042	
-0.380798	
-0.38208	
-0.381287	
-0.380798	
-0.380798	
-0.38031	
-0.381042	
-0.379883	
-0.381165	
-0.380737	
-0.381531	
-0.381775	
-0.381897	
-0.380554	
-0.381409	
-0.380859	
-0.381897	
-0.380737	
-0.38147	
-0.381226	
-0.382263	
-0.382202	
-0.382141	
-0.380493	
-0.381226	
-0.381653	
-0.380493	
-0.380127	
-0.380615	
-0.380371	
-0.380676	
-0.381531	
-0.382019	
-0.38324	
-0.381348	
-0.382507	
-0.380859	
-0.382507	
-0.382263	
-0.38208	
-0.382141	
-0.382629	
-0.381836	
-0.382568	
-0.382446	
-0.382324	
-0.382874	
-0.382568	
-0.382935	
-0.382202	
-0.382507	
-0.382568	
-0.382141	
-0.382202	
-0.383118	
-0.381897	
-0.381897	
-0.380615	
-0.382813	
-0.381531	
-0.381531	
-0.381042	
-0.382874	
-0.382202	
-0.38208	
-0.38147	
-0.381775	
-0.381897	
-0.381958	
-0.381531	
-0.381653	
-0.381409	
-0.38269	
-0.381836	
-0.381836	
-0.382751	
-0.381653	
-0.381775	
-0.381653	
-0.382935	
-0.381958	
-0.381409	
-0.381592	
-0.383362	
-0.382202	
-0.383118	
-0.381409	
-0.382446	
-0.38269	
-0.383362	
-0.382935	
-0.382568	
-0.382385	
-0.382935	
-0.382751	
-0.383301	
-0.382996	
-0.383362	
-0.383484	
-0.383301	
-0.383423	
-0.383423	
-0.382751	
-0.383789	
-0.384766	
-0.384033	
-0.384827	
-0.382751	
-0.383423	
-0.382935	
-0.385559	
-0.384399	
-0.383911	
-0.383423	
-0.384583	
-0.384644	
-0.384888	
-0.385315	
-0.384399	
-0.383911	
-0.385071	
-0.384766	
-0.385254	
-0.384033	
-0.385437	
-0.385986	
-0.385681	
-0.386841	
-0.384644	
-0.385559	
-0.384705	
-0.386414	
-0.386108	
-0.385559	
-0.38446	
-0.386353	
-0.385925	
-0.386475	
-0.386597	
-0.386292	
-0.386414	
-0.386963	
-0.386536	
-0.386169	
-0.385559	
-0.386719	
-0.386353	
-0.386597	
-0.387268	
-0.386047	
-0.386597	
-0.38501	
-0.385925	
-0.385742	
-0.385437	
-0.385742	
-0.386536	
-0.385803	
-0.38623	
-0.386292	
-0.386414	
-0.385376	
-0.386536	
-0.386108	
-0.386292	
-0.385986	
-0.386108	
-0.386292	
-0.386475	
-0.387451	
-0.386658	
-0.386658	
-0.385803	
-0.386719	
-0.386597	
-0.38623	
-0.386414	
-0.387878	
-0.386108	
-0.386841	
-0.387268	
-0.387024	
-0.386719	
-0.387329	
-0.387146	
-0.387146	
-0.385986	
-0.387939	
-0.387451	
-0.388	
-0.38855	
-0.387512	
-0.387512	
-0.386292	
-0.387207	
-0.386292	
-0.385986	
-0.386414	
-0.386902	
-0.385864	
-0.386414	
-0.386353	
-0.385742	
-0.386047	
-0.386963	
-0.385315	
-0.385681	
-0.384766	
-0.386108	
-0.385315	
-0.385498	
-0.385925	
-0.385559	
-0.385193	
-0.384277	
-0.385193	
-0.384827	
-0.384521	
-0.383911	
-0.385315	
-0.384521	
-0.385071	
-0.385498	
-0.384583	
-0.384644	
-0.386536	
-0.384949	
-0.385132	
-0.383545	
-0.38501	
-0.385376	
-0.384888	
-0.385254	
-0.383789	
-0.38501	
-0.38446	
-0.38501	
-0.385315	
-0.384644	
-0.384094	
-0.385254	
-0.384888	
-0.384766	
-0.384766	
-0.384949	
-0.385437	
-0.387207	
-0.386108	
-0.385986	
-0.385193	
-0.386414	
-0.386597	
-0.386169	
-0.387329	
-0.386292	
-0.386658	
-0.386841	
-0.386414	
-0.386597	
-0.386658	
-0.386353	
-0.386902	
-0.386536	
-0.386719	
-0.386658	
-0.38623	
-0.385925	
-0.385925	
-0.386353	
-0.386169	
-0.385132	
-0.385925	
-0.386963	
-0.386169	
-0.386475	
-0.385986	
-0.386353	
-0.387024	
-0.385437	
-0.386536	
-0.386353	
-0.386658	
-0.386475	
-0.38623	
-0.386414	
-0.38678	
-0.386292	
-0.386719	
-0.385315	
-0.386597	
-0.385864	
-0.385864	
-0.385742	
-0.386841	
-0.386475	
-0.386475	
-0.386169	
-0.386597	
-0.387024	
-0.386536	
-0.38678	
-0.386597	
-0.386536	
-0.386902	
-0.386719	
-0.386414	
-0.387573	
-0.386536	
-0.387085	
-0.386536	
-0.387756	
-0.386902	
-0.386292	
-0.386475	
-0.387695	
-0.387085	
-0.387451	
-0.387512	
-0.386902	
-0.387634	
-0.386902	
-0.387085	
-0.386536	
-0.387634	
-0.387817	
-0.38739	
-0.38739	
-0.388367	
-0.387756	
-0.387939	
-0.387878	
-0.388611	
-0.388	
-0.387268	
-0.388245	
-0.388794	
-0.388672	
-0.38916	
-0.389038	
-0.388306	
-0.388916	
-0.387512	
-0.388794	
-0.388428	
-0.388428	
-0.388245	
-0.38855	
-0.388306	
-0.388672	
-0.388245	
-0.388245	
-0.38916	
-0.387817	
-0.388	
-0.38739	
-0.387939	
-0.389038	
-0.388611	
-0.388611	
-0.387817	
-0.388672	
-0.38916	
-0.387878	
-0.38916	
-0.387756	
-0.387451	
-0.386169	
-0.387207	
-0.387024	
-0.386902	
-0.387146	
-0.386719	
-0.386841	
-0.385925	
-0.386353	
-0.385864	
-0.386597	
-0.387329	
-0.386597	
-0.38623	
-0.386169	
-0.386292	
-0.385986	
-0.385315	
-0.386536	
-0.386169	
-0.385376	
-0.385925	
-0.385925	
-0.38623	
-0.387451	
-0.386902	
-0.386597	
-0.387207	
-0.38678	
-0.387451	
-0.386841	
-0.387024	
-0.386902	
-0.386841	
-0.387329	
-0.387329	
-0.388062	
-0.387451	
-0.387573	
-0.387024	
-0.388	
-0.387024	
-0.388	
-0.388	
-0.387451	
-0.387878	
-0.38916	
-0.389526	
-0.388916	
-0.388916	
-0.390137	
-0.389343	
-0.389282	
-0.389221	
-0.389221	
-0.388672	
-0.389404	
-0.389648	
-0.388977	
-0.389343	
-0.389038	
-0.388611	
-0.388672	
-0.388306	
-0.388062	
-0.388	
-0.387451	
-0.387634	
-0.388184	
-0.387878	
-0.387634	
-0.386719	
-0.386902	
-0.385864	
-0.387634	
-0.386597	
-0.38678	
-0.386902	
-0.387695	
-0.387451	
-0.387024	
-0.38678	
-0.387268	
-0.386841	
-0.387695	
-0.385681	
-0.386475	
-0.386719	
-0.387756	
-0.387939	
-0.386841	
-0.387146	
-0.387024	
-0.386719	
-0.385925	
-0.386597	
-0.386353	
-0.386353	
-0.385681	
-0.386597	
-0.386902	
-0.38678	
-0.386475	
-0.38623	
-0.386353	
-0.386902	
-0.386047	
-0.386658	
-0.386047	
-0.386414	
-0.386536	
-0.385681	
-0.386597	
-0.38623	
-0.386169	
-0.385559	
-0.386536	
-0.385681	
-0.385925	
-0.38501	
-0.386597	
-0.386719	
-0.386475	
-0.385193	
-0.385437	
-0.385376	
-0.385864	
-0.384888	
-0.385498	
-0.385742	
-0.385864	
-0.385864	
-0.385742	
-0.385864	
-0.385315	
-0.38501	
-0.385437	
-0.385376	
-0.384399	
-0.38501	
-0.383484	
-0.385132	
-0.385071	
-0.384583	
-0.384888	
-0.384705	
-0.384338	
-0.382813	
-0.383362	
-0.38385	
-0.383179	
-0.383057	
-0.383728	
-0.383545	
-0.383423	
-0.381775	
-0.381897	
-0.382263	
-0.382996	
-0.382568	
-0.383118	
-0.38269	
-0.383362	
-0.383728	
-0.383118	
-0.383606	
-0.383606	
-0.383301	
-0.382446	
-0.382935	
-0.383484	
-0.38324	
-0.382751	
-0.383911	
-0.383972	
-0.383606	
-0.382874	
-0.383728	
-0.383911	
-0.384277	
-0.382446	
-0.38385	
-0.383301	
-0.384094	
-0.383728	
-0.383179	
-0.384399	
-0.383728	
-0.383606	
-0.383057	
-0.384094	
-0.384399	
-0.383667	
-0.38269	
-0.384644	
-0.384033	
-0.383606	
-0.383057	
-0.383667	
-0.383606	
-0.383972	
-0.384033	
-0.384216	
-0.383606	
-0.384155	
-0.384094	
-0.383789	
-0.383911	
-0.383301	
-0.383606	
-0.38324	
-0.384827	
-0.383179	
-0.383789	
-0.383057	
-0.384644	
-0.384155	
-0.383911	
-0.383789	
-0.38385	
-0.383911	
-0.384583	
-0.383545	
-0.382751	
-0.382507	
-0.383179	
-0.383606	
-0.383789	
-0.384277	
-0.38324	
-0.382507	
-0.382996	
-0.384094	
-0.382446	
-0.383484	
-0.383301	
-0.38446	
-0.383911	
-0.383606	
-0.383545	
-0.383545	
-0.383057	
-0.382813	
-0.383301	
-0.38385	
-0.383118	
-0.383057	
-0.383789	
-0.38446	
-0.38385	
-0.382629	
-0.382568	
-0.383667	
-0.384277	
-0.382874	
-0.383301	
-0.383301	
-0.38385	
-0.383972	
-0.383423	
-0.384216	
-0.383911	
-0.383484	
-0.383301	
-0.383728	
-0.383118	
-0.383728	
-0.382629	
-0.384338	
-0.384766	
-0.383545	
-0.383057	
-0.383484	
-0.383545	
-0.383667	
-0.382935	
-0.383789	
-0.383362	
-0.384216	
-0.383606	
-0.383911	
-0.384094	
-0.383728	
-0.383301	
-0.382996	
-0.383423	
-0.382935	
-0.383057	
-0.382019	
-0.383789	
-0.383606	
-0.383179	
-0.38269	
-0.382935	
-0.382874	
-0.381409	
-0.381775	
-0.382385	
-0.382446	
-0.382202	
-0.382263	
-0.382324	
-0.381775	
-0.381897	
-0.380371	
-0.381653	
-0.381775	
-0.381409	
-0.381592	
-0.380554	
-0.382202	
-0.381775	
-0.381287	
-0.381714	
-0.382935	
-0.381653	
-0.381592	
-0.381592	
-0.382202	
-0.382141	
-0.382507	
-0.382874	
-0.383301	
-0.382446	
-0.382751	
-0.381348	
-0.382202	
-0.38208	
-0.381897	
-0.381714	
-0.382385	
-0.383301	
-0.382996	
-0.383118	
-0.383484	
-0.384338	
-0.383667	
-0.383545	
-0.383972	
-0.383972	
-0.38385	
-0.382935	
-0.384094	
-0.384155	
-0.383301	
-0.384155	
-0.383606	
-0.383545	
-0.382874	
-0.383057	
-0.383606	
-0.383118	
-0.383972	
-0.383484	
-0.383362	
-0.383057	
-0.383057	
-0.382202	
-0.382629	
-0.382568	
-0.382568	
-0.382568	
-0.381653	
-0.382813	
-0.382446	
-0.382385	
-0.38147	
-0.382568	
-0.382629	
-0.381714	
-0.381409	
-0.382141	
-0.381592	
-0.382751	
-0.38208	
-0.382446	
-0.382141	
-0.382202	
-0.381226	
-0.38208	
-0.382935	
-0.382202	
-0.381592	
-0.381226	
-0.382385	
-0.381714	
-0.381897	
-0.382019	
-0.382935	
-0.382263	
-0.382019	
-0.381531	
-0.382324	
-0.38208	
-0.382874	
-0.381958	
-0.382874	
-0.38269	
-0.382568	
-0.382202	
-0.382324	
-0.383545	
-0.382568	
-0.383545	
-0.382141	
-0.383362	
-0.38324	
-0.383423	
-0.38324	
-0.383545	
-0.383728	
-0.384155	
-0.38385	
-0.383606	
-0.383545	
-0.384583	
-0.383728	
-0.38446	
-0.384216	
-0.38385	
-0.383728	
-0.383118	
-0.384705	
-0.383545	
-0.383789	
-0.38385	
-0.384277	
-0.384521	
-0.383911	
-0.383911	
-0.384521	
-0.384399	
-0.384216	
-0.383667	
-0.384033	
-0.384216	
-0.384399	
-0.383606	
-0.384399	
-0.384583	
-0.38385	
-0.383362	
-0.383179	
-0.384949	
-0.384155	
-0.384583	
-0.384155	
-0.384583	
-0.384827	
-0.384583	
-0.384277	
-0.384155	
-0.384888	
-0.384399	
-0.384766	
-0.383667	
-0.384155	
-0.38385	
-0.384399	
-0.38562	
-0.384827	
-0.384155	
-0.384399	
-0.382751	
-0.38446	
-0.384338	
-0.384766	
-0.384583	
-0.385132	
-0.38501	
-0.38501	
-0.383606	
-0.385193	
-0.385437	
-0.385559	
-0.386169	
-0.385132	
-0.385681	
-0.385132	
-0.385803	
-0.385986	
-0.386597	
-0.386536	
-0.386597	
-0.386353	
-0.386963	
-0.38678	
-0.38678	
-0.387634	
-0.388977	
-0.388	
-0.388489	
-0.387146	
-0.387634	
-0.38678	
-0.387207	
-0.388062	
-0.386658	
-0.386536	
-0.386475	
-0.386719	
-0.387085	
-0.387329	
-0.385864	
-0.386719	
-0.38623	
-0.386902	
-0.386353	
-0.386536	
-0.386658	
-0.386536	
-0.386047	
-0.387451	
-0.38562	
-0.386108	
-0.386475	
-0.386475	
-0.386963	
-0.385437	
-0.38623	
-0.38623	
-0.386414	
-0.386475	
-0.387207	
-0.386169	
-0.38562	
-0.385681	
-0.386597	
-0.386658	
-0.385803	
-0.385803	
-0.386414	
-0.386597	
-0.387085	
-0.386719	
-0.386719	
-0.386597	
-0.386597	
-0.387512	
-0.386414	
-0.386353	
-0.386353	
-0.387451	
-0.386902	
-0.388184	
-0.385376	
-0.387451	
-0.386169	
-0.387634	
-0.387268	
-0.386719	
-0.388123	
-0.387878	
-0.388428	
-0.388977	
-0.388184	
-0.388489	
-0.388123	
-0.388062	
-0.388733	
-0.388062	
-0.387756	
-0.387329	
-0.388611	
-0.387756	
-0.389343	
-0.387207	
-0.387512	
-0.387329	
-0.387512	
-0.388	
-0.38678	
-0.38739	
-0.387817	
-0.388	
-0.388245	
-0.387817	
-0.387817	
-0.387634	
-0.388245	
-0.388916	
-0.387878	
-0.387939	
-0.386902	
-0.388977	
-0.388184	
-0.389465	
-0.387878	
-0.38739	
-0.387695	
-0.38855	
-0.388123	
-0.387512	
-0.388245	
-0.388489	
-0.38855	
-0.388855	
-0.388611	
-0.388	
-0.388733	
-0.388672	
-0.388672	
-0.388367	
-0.388245	
-0.388733	
-0.389526	
-0.388916	
-0.390198	
-0.388794	
-0.389404	
-0.388367	
-0.389465	
-0.388977	
-0.388855	
-0.388977	
-0.389343	
-0.389832	
-0.390015	
-0.389343	
-0.388184	
-0.389221	
-0.390076	
-0.38916	
-0.389404	
-0.38855	
-0.389526	
-0.390564	
-0.390076	
-0.390869	
-0.389709	
-0.390076	
-0.389954	
-0.39093	
-0.390442	
-0.390137	
-0.390015	
-0.39032	
-0.391479	
-0.391052	
-0.390747	
-0.389709	
-0.390808	
-0.390991	
-0.390991	
-0.390686	
-0.389526	
-0.390259	
-0.391052	
-0.390808	
-0.391479	
-0.390381	
-0.390503	
-0.38916	
-0.390808	
-0.39032	
-0.389832	
-0.390137	
-0.390686	
-0.391113	
-0.390808	
-0.391418	
-0.389221	
-0.389648	
-0.390137	
-0.390442	
-0.389709	
-0.388306	
-0.388184	
-0.389771	
-0.388733	
-0.389526	
-0.388306	
-0.388245	
-0.387512	
-0.388733	
-0.388489	
-0.388245	
-0.388184	
-0.388367	
-0.389099	
-0.388672	
-0.389343	
-0.388123	
-0.388733	
-0.388306	
-0.389099	
-0.388855	
-0.388123	
-0.387695	
-0.388855	
-0.389648	
-0.390259	
-0.388977	
-0.388611	
-0.38855	
-0.390503	
-0.390015	
-0.389465	
-0.389771	
-0.390137	
-0.390625	
-0.390503	
-0.391174	
-0.389954	
-0.39032	
-0.39093	
-0.391174	
-0.391174	
-0.389709	
-0.39093	
-0.391663	
-0.391785	
-0.392944	
-0.391785	
-0.391418	
-0.391846	
-0.392944	
-0.392517	
-0.392395	
-0.391907	
-0.392395	
-0.392273	
-0.391846	
-0.392761	
-0.391907	
-0.392822	
-0.392944	
-0.392273	
-0.391907	
-0.39093	
-0.392212	
-0.391907	
-0.392273	
-0.391907	
-0.392212	
-0.390076	
-0.391479	
-0.390747	
-0.391235	
-0.390686	
-0.390015	
-0.390625	
-0.391357	
-0.391602	
-0.391968	
-0.390747	
-0.391174	
-0.389709	
-0.39093	
-0.390442	
-0.390808	
-0.390564	
-0.391479	
-0.391907	
-0.390869	
-0.391479	
-0.39032	
-0.391357	
-0.391052	
-0.39032	
-0.390442	
-0.390198	
-0.39093	
-0.390808	
-0.391113	
-0.391541	
-0.390381	
-0.390198	
-0.391174	
-0.390747	
-0.390747	
-0.390442	
-0.391113	
-0.390991	
-0.390991	
-0.391174	
-0.391174	
-0.390381	
-0.39093	
-0.390991	
-0.390564	
-0.390381	
-0.389832	
-0.390503	
-0.390869	
-0.391235	
-0.39093	
-0.391174	
-0.389465	
-0.390564	
-0.389526	
-0.390198	
-0.389893	
-0.390625	
-0.390869	
-0.391296	
-0.391052	
-0.391418	
-0.390625	
-0.391052	
-0.390198	
-0.390686	
-0.390259	
-0.389832	
-0.390076	
-0.390259	
-0.39093	
-0.39032	
-0.390686	
-0.389221	
-0.390137	
-0.388977	
-0.389648	
-0.388245	
-0.389221	
-0.389587	
-0.389099	
-0.388794	
-0.389709	
-0.388794	
-0.388428	
-0.387329	
-0.388245	
-0.388062	
-0.388184	
-0.388306	
-0.388428	
-0.389587	
-0.389282	
-0.389221	
-0.388367	
-0.389465	
-0.388611	
-0.389099	
-0.388489	
-0.388489	
-0.389038	
-0.389099	
-0.389099	
-0.389893	
-0.388794	
-0.388672	
-0.38855	
-0.388855	
-0.38916	
-0.388916	
-0.389771	
-0.389404	
-0.390381	
-0.390076	
-0.390076	
-0.389282	
-0.389709	
-0.388672	
-0.38916	
-0.38916	
-0.388428	
-0.389465	
-0.389099	
-0.389587	
-0.390686	
-0.389404	
-0.389221	
-0.388794	
-0.389587	
-0.389587	
-0.388611	
-0.389832	
-0.389526	
-0.390259	
-0.389832	
-0.389832	
-0.389893	
-0.389954	
-0.389709	
-0.390076	
-0.389771	
-0.389038	
-0.389526	
-0.389587	
-0.389587	
-0.390564	
-0.389587	
-0.389221	
-0.390259	
-0.389893	
-0.389832	
-0.388611	
-0.389709	
-0.390381	
-0.39032	
-0.388977	
-0.389587	
-0.388916	
-0.390076	
-0.388611	
-0.389587	
-0.389221	
-0.388062	
-0.389221	
-0.389648	
-0.389465	
-0.390808	
-0.389587	
-0.389771	
-0.390259	
-0.389343	
-0.389343	
-0.389282	
-0.389832	
-0.389709	
-0.390686	
-0.389893	
-0.39093	
-0.389282	
-0.390564	
-0.389099	
-0.389893	
-0.389404	
-0.389099	
-0.389648	
-0.389587	
-0.390015	
-0.390442	
-0.389832	
-0.389404	
-0.389648	
-0.390442	
-0.390076	
-0.389832	
-0.389648	
-0.389771	
-0.390564	
-0.389221	
-0.391235	
-0.388977	
-0.390381	
-0.388916	
-0.389526	
-0.389343	
-0.388977	
-0.389954	
-0.389954	
-0.389526	
-0.390076	
-0.389832	
-0.389404	
-0.389343	
-0.390137	
-0.389465	
-0.389221	
-0.388062	
-0.389343	
-0.389893	
-0.389648	
-0.390991	
-0.388916	
-0.389404	
-0.388062	
-0.389099	
-0.38855	
-0.388672	
-0.388916	
-0.389404	
-0.388794	
-0.388367	
-0.38855	
-0.387878	
-0.387939	
-0.38855	
-0.388184	
-0.386963	
-0.386963	
-0.387756	
-0.388428	
-0.38739	
-0.388794	
-0.388	
-0.388306	
-0.386658	
-0.388123	
-0.387817	
-0.388184	
-0.387878	
-0.388	
-0.388489	
-0.389282	
-0.389526	
-0.388062	
-0.389099	
-0.38855	
-0.388672	
-0.387329	
-0.388184	
-0.388428	
-0.388245	
-0.388672	
-0.390198	
-0.389099	
-0.389465	
-0.389526	
-0.39032	
-0.389832	
-0.389832	
-0.390259	
-0.390503	
-0.390869	
-0.390015	
-0.390198	
-0.389221	
-0.390381	
-0.389465	
-0.390015	
-0.389343	
-0.389709	
-0.389526	
-0.390015	
-0.389709	
-0.391113	
-0.389526	
-0.389648	
-0.388428	
-0.388916	
-0.388794	
-0.388794	
-0.388977	
-0.388489	
-0.389648	
-0.389221	
-0.389404	
-0.388062	
-0.389221	
-0.387634	
-0.388	
	
