E:\DOCUMENTS AND SETTINGS\JPOTAS\MEUS DOCUMENTOS\UFRJ\RSCI-BM 12 WK SERIES\070719-RSCI-BM-02\RSCI-BM-02-REMG\070719-RSCI-BM-02-REMG-0002.ACQ
0.025000 msec/sample
1 channel
Analog input
Volts
CH1	
2000	
-0.395203	
-0.394775	
-0.395081	
-0.393982	
-0.394348	
-0.394104	
-0.394348	
-0.394104	
-0.393433	
-0.394592	
-0.395142	
-0.394287	
-0.395264	
-0.394592	
-0.394348	
-0.393372	
-0.393433	
-0.394836	
-0.394348	
-0.394287	
-0.394409	
-0.394226	
-0.395081	
-0.394592	
-0.394104	
-0.394104	
-0.394226	
-0.394043	
-0.394348	
-0.394348	
-0.394348	
-0.394775	
-0.394043	
-0.394409	
-0.3927	
-0.393433	
-0.393433	
-0.393005	
-0.392639	
-0.392029	
-0.39209	
-0.392578	
-0.392029	
-0.392578	
-0.391602	
-0.391418	
-0.390137	
-0.39093	
-0.391174	
-0.390869	
-0.390869	
-0.391724	
-0.391296	
-0.392395	
-0.392639	
-0.391357	
-0.390015	
-0.390137	
-0.391296	
-0.391357	
-0.391235	
-0.391846	
-0.392273	
-0.392212	
-0.392212	
-0.391846	
-0.391907	
-0.3927	
-0.391052	
-0.392029	
-0.391418	
-0.391785	
-0.392578	
-0.391846	
-0.39209	
-0.392151	
-0.391663	
-0.391846	
-0.390686	
-0.391602	
-0.391541	
-0.391541	
-0.391541	
-0.391174	
-0.392029	
-0.391663	
-0.391663	
-0.390259	
-0.390808	
-0.390625	
-0.391296	
-0.390808	
-0.391541	
-0.39209	
-0.392212	
-0.391602	
-0.391052	
-0.391602	
-0.392456	
-0.391418	
-0.391785	
-0.391296	
-0.392395	
-0.393188	
-0.393127	
-0.393005	
-0.393372	
-0.393005	
-0.393372	
-0.391846	
-0.392944	
-0.392944	
-0.392944	
-0.393005	
-0.393188	
-0.393433	
-0.392944	
-0.393433	
-0.391602	
-0.392029	
-0.391174	
-0.392029	
-0.391541	
-0.391479	
-0.392151	
-0.392029	
-0.391541	
-0.391296	
-0.39093	
-0.392273	
-0.391235	
-0.391724	
-0.391296	
-0.391968	
-0.392273	
-0.392639	
-0.392944	
-0.393555	
-0.393005	
-0.393005	
-0.392212	
-0.39386	
-0.393494	
-0.393799	
-0.39447	
-0.395325	
-0.395874	
-0.395386	
-0.395691	
-0.394836	
-0.396057	
-0.39447	
-0.395813	
-0.39447	
-0.395752	
-0.396057	
-0.395935	
-0.396057	
-0.39624	
-0.395752	
-0.396057	
-0.396118	
-0.39624	
-0.395874	
-0.396362	
-0.396729	
-0.397095	
-0.396973	
-0.397278	
-0.395569	
-0.395569	
-0.395996	
-0.395508	
-0.396179	
-0.395264	
-0.396179	
-0.396057	
-0.39624	
-0.395264	
-0.395264	
-0.39447	
-0.394775	
-0.393799	
-0.393921	
-0.393982	
-0.394043	
-0.393982	
-0.394287	
-0.394287	
-0.394775	
-0.39386	
-0.393677	
-0.393311	
-0.393799	
-0.393555	
-0.393066	
-0.394531	
-0.392334	
-0.390564	
-0.390137	
-0.390076	
-0.390015	
-0.390869	
-0.393677	
-0.395691	
-0.395508	
-0.395813	
-0.395996	
-0.396484	
-0.396301	
-0.39679	
-0.395081	
-0.395874	
-0.395325	
-0.396545	
-0.395752	
-0.395813	
-0.396118	
-0.39679	
-0.397095	
-0.397583	
-0.395386	
-0.395874	
-0.397217	
-0.396851	
-0.396606	
-0.395935	
-0.396851	
-0.397034	
-0.397461	
-0.397644	
-0.397705	
-0.397705	
-0.397705	
-0.397034	
-0.397278	
-0.397461	
-0.397827	
-0.39801	
-0.398438	
-0.397949	
-0.398926	
-0.397217	
-0.398132	
-0.397095	
-0.397461	
-0.397644	
-0.396423	
-0.3974	
-0.398315	
-0.398315	
-0.398132	
-0.396729	
-0.395996	
-0.396545	
-0.396667	
-0.396729	
-0.396423	
-0.396362	
-0.397095	
-0.396423	
-0.395691	
-0.395447	
-0.394653	
-0.394104	
-0.393982	
-0.39325	
-0.392578	
-0.390747	
-0.391663	
-0.391907	
-0.39093	
-0.390564	
-0.388184	
-0.388123	
-0.387451	
-0.388306	
-0.388	
-0.387268	
-0.387268	
-0.388123	
-0.388489	
-0.38855	
-0.387817	
-0.388672	
-0.389221	
-0.390015	
-0.390259	
-0.390747	
-0.391418	
-0.392395	
-0.392944	
-0.394653	
-0.396057	
-0.396667	
-0.397644	
-0.399536	
-0.401306	
-0.40271	
-0.403564	
-0.405762	
-0.407227	
-0.408264	
-0.409363	
-0.408813	
-0.40918	
-0.41156	
-0.413574	
-0.415466	
-0.416687	
-0.419678	
-0.423157	
-0.425842	
-0.428284	
-0.428589	
-0.430298	
-0.433228	
-0.435303	
-0.436646	
-0.4375	
-0.439453	
-0.440613	
-0.44165	
-0.44043	
-0.43866	
-0.437683	
-0.438538	
-0.437805	
-0.437439	
-0.437073	
-0.437805	
-0.43866	
-0.438965	
-0.439941	
-0.439148	
-0.440857	
-0.441528	
-0.442993	
-0.443298	
-0.443665	
-0.444153	
-0.444275	
-0.444092	
-0.445313	
-0.444336	
-0.444214	
-0.444031	
-0.44458	
-0.444763	
-0.444275	
-0.443787	
-0.443481	
-0.443115	
-0.444153	
-0.441895	
-0.442078	
-0.43988	
-0.441895	
-0.440918	
-0.440491	
-0.439026	
-0.438843	
-0.439209	
-0.438721	
-0.43689	
-0.434631	
-0.434448	
-0.434692	
-0.433105	
-0.431335	
-0.42926	
-0.428528	
-0.427673	
-0.426453	
-0.425171	
-0.422363	
-0.420776	
-0.418884	
-0.417419	
-0.415649	
-0.414001	
-0.412781	
-0.412292	
-0.411011	
-0.410156	
-0.408264	
-0.407227	
-0.406006	
-0.405884	
-0.40509	
-0.403992	
-0.403076	
-0.402161	
-0.400635	
-0.400024	
-0.396729	
-0.394226	
-0.391846	
-0.391174	
-0.388489	
-0.385498	
-0.382141	
-0.380188	
-0.377869	
-0.374512	
-0.371033	
-0.366943	
-0.363586	
-0.361328	
-0.358032	
-0.354919	
-0.351318	
-0.348938	
-0.346008	
-0.343079	
-0.341492	
-0.337585	
-0.334717	
-0.331665	
-0.329407	
-0.327454	
-0.325378	
-0.323792	
-0.322754	
-0.322266	
-0.321899	
-0.320618	
-0.320984	
-0.321289	
-0.323181	
-0.324219	
-0.325195	
-0.326416	
-0.328308	
-0.329773	
-0.331421	
-0.332458	
-0.33429	
-0.335815	
-0.337891	
-0.339417	
-0.341003	
-0.342529	
-0.344299	
-0.346252	
-0.348206	
-0.349304	
-0.350769	
-0.352234	
-0.35437	
-0.355713	
-0.357788	
-0.359436	
-0.361572	
-0.363342	
-0.365234	
-0.365784	
-0.366516	
-0.367432	
-0.368774	
-0.369202	
-0.369568	
-0.369812	
-0.370483	
-0.371155	
-0.371582	
-0.370911	
-0.371155	
-0.372314	
-0.37207	
-0.37207	
-0.372253	
-0.372253	
-0.372437	
-0.373047	
-0.373413	
-0.372864	
-0.372498	
-0.372742	
-0.372314	
-0.372375	
-0.371826	
-0.371765	
-0.371826	
-0.371582	
-0.371826	
-0.370911	
-0.369812	
-0.370178	
-0.370422	
-0.3703	
-0.370056	
-0.370056	
-0.369812	
-0.370117	
-0.369873	
-0.368774	
-0.367737	
-0.368591	
-0.368103	
-0.36792	
-0.367615	
-0.367859	
-0.367188	
-0.367371	
-0.367188	
-0.366455	
-0.36499	
-0.365723	
-0.36554	
-0.366028	
-0.366028	
-0.366272	
-0.366577	
-0.36731	
-0.367188	
-0.367371	
-0.366333	
-0.36731	
-0.367554	
-0.368347	
-0.36908	
-0.369446	
-0.370056	
-0.371338	
-0.371094	
-0.372559	
-0.371155	
-0.372375	
-0.371765	
-0.372437	
-0.372681	
-0.372253	
-0.37384	
-0.374756	
-0.373779	
-0.374939	
-0.372864	
-0.37439	
-0.37384	
-0.374634	
-0.375122	
-0.374573	
-0.375061	
-0.37677	
-0.375977	
-0.37677	
-0.374512	
-0.375549	
-0.375793	
-0.375854	
-0.375671	
-0.375122	
-0.375854	
-0.376282	
-0.375366	
-0.375305	
-0.373657	
-0.375122	
-0.374939	
-0.374939	
-0.375061	
-0.374939	
-0.375183	
-0.375793	
-0.375427	
-0.375732	
-0.374817	
-0.37561	
-0.375305	
-0.375488	
-0.375671	
-0.375793	
-0.375977	
-0.376709	
-0.376709	
-0.37616	
-0.37561	
-0.375671	
-0.376343	
-0.376587	
-0.376831	
-0.376465	
-0.377136	
-0.377686	
-0.378235	
-0.377869	
-0.378662	
-0.377014	
-0.377991	
-0.377625	
-0.378357	
-0.378174	
-0.377625	
-0.378723	
-0.379456	
-0.378845	
-0.379517	
-0.378662	
-0.37854	
-0.380005	
-0.379395	
-0.379517	
-0.379089	
-0.380005	
-0.380981	
-0.380188	
-0.380859	
-0.379395	
-0.380798	
-0.38031	
-0.380981	
-0.381042	
-0.38147	
-0.381226	
-0.382385	
-0.382385	
-0.382996	
-0.381104	
-0.380859	
-0.381287	
-0.382263	
-0.382385	
-0.382507	
-0.382324	
-0.383057	
-0.383667	
-0.383118	
-0.38324	
-0.382019	
-0.382324	
-0.382507	
-0.382629	
-0.382385	
-0.380676	
-0.38208	
-0.381897	
-0.381653	
-0.382263	
-0.38031	
-0.380432	
-0.379517	
-0.379944	
-0.379456	
-0.378784	
-0.379272	
-0.380432	
-0.379456	
-0.38092	
-0.378052	
-0.379089	
-0.378235	
-0.379272	
-0.379761	
-0.380066	
-0.380127	
-0.381592	
-0.381287	
-0.38324	
-0.381592	
-0.382996	
-0.382996	
-0.384277	
-0.384338	
-0.384705	
-0.385559	
-0.385986	
-0.385803	
-0.38623	
-0.385376	
-0.386108	
-0.385925	
-0.38678	
-0.386353	
-0.386414	
-0.386658	
-0.387207	
-0.387024	
-0.387207	
-0.386292	
-0.386719	
-0.386597	
-0.386963	
-0.386658	
-0.387024	
-0.387268	
-0.387695	
-0.387512	
-0.387878	
-0.387085	
-0.387329	
-0.387085	
-0.387756	
-0.387573	
-0.387268	
-0.387451	
-0.387817	
-0.388367	
-0.387634	
-0.387573	
-0.385864	
-0.386841	
-0.386353	
-0.386353	
-0.386169	
-0.385376	
-0.385864	
-0.38623	
-0.385437	
-0.385559	
-0.383667	
-0.384338	
-0.38446	
-0.384033	
-0.384338	
-0.38324	
-0.383911	
-0.385071	
-0.384338	
-0.384033	
-0.383728	
-0.384583	
-0.384888	
-0.383911	
-0.383728	
-0.382751	
-0.38446	
-0.386169	
-0.384766	
-0.385376	
-0.38324	
-0.384705	
-0.384888	
-0.384583	
-0.384827	
-0.384644	
-0.384521	
-0.385803	
-0.384644	
-0.385437	
-0.38501	
-0.38446	
-0.383667	
-0.383667	
-0.384583	
-0.38446	
-0.384521	
-0.384949	
-0.384033	
-0.385132	
-0.384216	
-0.383911	
-0.383789	
-0.383911	
-0.384338	
-0.38446	
-0.384827	
-0.385193	
-0.385315	
-0.385437	
-0.384827	
-0.385376	
-0.385498	
-0.385864	
-0.385437	
-0.385925	
-0.385742	
-0.386597	
-0.388	
-0.387146	
-0.387085	
-0.386475	
-0.387329	
-0.388306	
-0.38678	
-0.387573	
-0.386475	
-0.387695	
-0.389648	
-0.387634	
-0.38739	
-0.386047	
-0.387573	
-0.387878	
-0.386902	
-0.387329	
-0.386719	
-0.387024	
-0.388245	
-0.386902	
-0.386963	
-0.385742	
-0.386658	
-0.386475	
-0.386292	
-0.38623	
-0.386414	
-0.387329	
-0.388123	
-0.387512	
-0.38855	
-0.38739	
-0.388062	
-0.38739	
-0.388306	
-0.388977	
-0.38916	
-0.389587	
-0.390686	
-0.389587	
-0.390259	
-0.389526	
-0.390625	
-0.390869	
-0.391357	
-0.391479	
-0.391602	
-0.392151	
-0.393005	
-0.392212	
-0.391846	
-0.391113	
-0.3927	
-0.391907	
-0.392944	
-0.391113	
-0.392456	
-0.391479	
-0.392883	
-0.39325	
-0.392883	
-0.392456	
-0.392944	
-0.392883	
-0.393372	
-0.39209	
-0.392822	
-0.392395	
-0.393005	
-0.393616	
-0.393066	
-0.393188	
-0.392151	
-0.392273	
-0.39093	
-0.391235	
-0.391296	
-0.39093	
-0.39093	
-0.391052	
-0.390747	
-0.391235	
-0.390869	
-0.390686	
-0.390381	
-0.390991	
-0.391113	
-0.390869	
-0.390991	
-0.391052	
-0.391113	
-0.391052	
-0.391174	
-0.391418	
-0.391052	
-0.391785	
-0.391602	
-0.391357	
-0.390625	
-0.392212	
-0.393616	
-0.392334	
-0.392578	
-0.39209	
-0.392395	
-0.393066	
-0.391846	
-0.392273	
-0.392029	
-0.393066	
-0.39325	
-0.392517	
-0.393738	
-0.393127	
-0.39325	
-0.392029	
-0.393005	
-0.39325	
-0.393066	
-0.39386	
-0.393616	
-0.393494	
-0.394165	
-0.393616	
-0.393372	
-0.393066	
-0.393921	
-0.393616	
-0.393616	
-0.393372	
-0.393372	
-0.394409	
-0.393005	
-0.39386	
-0.392944	
-0.39386	
-0.393799	
-0.393188	
-0.393311	
-0.394043	
-0.393799	
-0.39386	
-0.392883	
-0.393372	
-0.393494	
-0.392883	
-0.3927	
-0.391785	
-0.392456	
-0.392639	
-0.392151	
-0.392273	
-0.392273	
-0.392822	
-0.392883	
-0.392151	
-0.391663	
-0.392273	
-0.392029	
-0.39209	
-0.391174	
-0.392151	
-0.392395	
-0.393127	
-0.391968	
-0.391846	
-0.390808	
-0.391968	
-0.391724	
-0.391663	
-0.392151	
-0.392029	
-0.392151	
-0.391907	
-0.391907	
-0.391174	
-0.39093	
-0.391418	
-0.391663	
-0.391602	
-0.391846	
-0.391846	
-0.391968	
-0.390381	
-0.390991	
-0.390625	
-0.390808	
-0.390991	
-0.391113	
-0.390869	
-0.391541	
-0.390015	
-0.39093	
-0.390503	
-0.391174	
-0.391174	
-0.390747	
-0.391113	
-0.390869	
-0.391541	
-0.392151	
-0.391541	
-0.3927	
-0.392578	
-0.393616	
-0.393188	
-0.393555	
-0.393188	
-0.393311	
-0.393616	
-0.393738	
-0.39325	
-0.393494	
-0.394287	
-0.393555	
-0.393616	
-0.39209	
-0.392761	
-0.392883	
-0.393127	
-0.392395	
-0.392029	
-0.390808	
-0.391174	
-0.389832	
-0.390381	
-0.390137	
-0.389038	
-0.387939	
-0.388306	
-0.388611	
-0.389099	
-0.387634	
-0.388611	
-0.38739	
-0.388916	
-0.388794	
-0.388245	
-0.388062	
-0.38855	
-0.388489	
-0.389099	
-0.388062	
-0.388611	
-0.38916	
-0.389526	
-0.389465	
-0.387695	
-0.388428	
-0.388611	
-0.389038	
-0.389465	
-0.38855	
-0.389099	
-0.389099	
-0.389526	
-0.390015	
-0.38916	
-0.389648	
-0.389832	
-0.391113	
-0.390381	
-0.390198	
-0.389893	
-0.390869	
-0.391235	
-0.392029	
-0.391846	
-0.391541	
-0.390564	
-0.391174	
-0.391907	
-0.392273	
-0.391907	
-0.392639	
-0.392883	
-0.393005	
-0.393311	
-0.392578	
-0.3927	
-0.392212	
-0.393188	
-0.393921	
-0.3927	
-0.392517	
-0.392944	
-0.393311	
-0.393372	
-0.392456	
-0.392456	
-0.392029	
-0.393005	
-0.3927	
-0.391968	
-0.391357	
-0.391846	
-0.392212	
-0.392883	
-0.392273	
-0.391846	
-0.391846	
-0.393066	
-0.393005	
-0.39209	
-0.392151	
-0.392639	
-0.392883	
-0.392944	
-0.393188	
-0.392395	
-0.392639	
-0.392212	
-0.393005	
-0.393372	
-0.393066	
-0.393677	
-0.394165	
-0.393555	
-0.394775	
-0.392151	
-0.393677	
-0.392273	
-0.394165	
-0.393494	
-0.393738	
-0.393005	
-0.394531	
-0.394104	
-0.394958	
-0.392944	
-0.393433	
-0.393188	
-0.394165	
-0.393921	
-0.392883	
-0.392212	
-0.391724	
-0.392517	
-0.392883	
-0.392517	
-0.392578	
-0.392334	
-0.393188	
-0.393616	
-0.393005	
-0.392578	
-0.392395	
-0.393738	
-0.393066	
-0.394409	
-0.392761	
-0.392822	
-0.391907	
-0.394714	
-0.393616	
-0.393311	
-0.392517	
-0.39447	
-0.393555	
-0.394531	
-0.392395	
-0.392761	
-0.391418	
-0.393494	
-0.391968	
-0.391846	
-0.390686	
-0.391785	
-0.391296	
-0.391418	
-0.390503	
-0.390564	
-0.390503	
-0.390625	
-0.391113	
-0.390076	
-0.389343	
-0.38855	
-0.388916	
-0.389038	
-0.389282	
-0.388184	
-0.387817	
-0.387146	
-0.389099	
-0.387756	
-0.387756	
-0.387756	
-0.388733	
-0.387878	
-0.387939	
-0.386353	
-0.387634	
-0.386902	
-0.388367	
-0.387512	
-0.387146	
-0.386353	
-0.388123	
-0.387634	
-0.388672	
-0.386902	
-0.387512	
-0.386719	
-0.388367	
-0.388245	
-0.388611	
-0.388245	
-0.389343	
-0.389282	
-0.390503	
-0.39032	
-0.390076	
-0.389832	
-0.389893	
-0.390381	
-0.389771	
-0.389709	
-0.389221	
-0.39032	
-0.390259	
-0.390686	
-0.389893	
-0.389832	
-0.389221	
-0.391602	
-0.39032	
-0.389709	
-0.387695	
-0.390564	
-0.389771	
-0.390991	
-0.388611	
-0.389648	
-0.388245	
-0.390625	
-0.389587	
-0.389343	
-0.388306	
-0.389771	
-0.389709	
-0.389771	
-0.389404	
-0.389038	
-0.388733	
-0.38916	
-0.388855	
-0.388672	
-0.387939	
-0.388611	
-0.388489	
-0.388306	
-0.388611	
-0.388	
-0.387634	
-0.387329	
-0.38855	
-0.387451	
-0.387329	
-0.386597	
-0.387878	
-0.387878	
-0.388245	
-0.387695	
-0.387878	
-0.387695	
-0.388672	
-0.387756	
-0.387695	
-0.38739	
-0.389221	
-0.388	
-0.388855	
-0.386719	
-0.387817	
-0.387207	
-0.389465	
-0.388489	
-0.388489	
-0.387207	
-0.389343	
-0.388855	
-0.389221	
-0.389038	
-0.389038	
-0.388794	
-0.388428	
-0.389893	
-0.388733	
-0.388428	
-0.388123	
-0.388977	
-0.389526	
-0.389221	
-0.388977	
-0.388794	
-0.388977	
-0.389526	
-0.389221	
-0.38916	
-0.389648	
-0.389587	
-0.389771	
-0.390564	
-0.389771	
-0.389771	
-0.38855	
-0.389587	
-0.389404	
-0.389709	
-0.390015	
-0.390747	
-0.39032	
-0.390991	
-0.390076	
-0.390076	
-0.390259	
-0.39093	
-0.391418	
-0.390747	
-0.389465	
-0.390137	
-0.391052	
-0.390747	
-0.390686	
-0.390747	
-0.39032	
-0.390869	
-0.391113	
-0.390564	
-0.389709	
-0.390198	
-0.390015	
-0.389648	
-0.390076	
-0.389404	
-0.388428	
-0.387207	
-0.388306	
-0.387756	
-0.386902	
-0.387329	
-0.387695	
-0.386963	
-0.387634	
-0.387573	
-0.387512	
-0.387451	
-0.386108	
-0.387817	
-0.387634	
-0.387329	
-0.388245	
-0.38855	
-0.388916	
-0.38855	
-0.389771	
-0.389832	
-0.391602	
-0.391541	
-0.391174	
-0.390686	
-0.391235	
-0.391968	
-0.39209	
-0.393005	
-0.392334	
-0.392029	
-0.391296	
-0.392822	
-0.392029	
-0.391907	
-0.391785	
-0.392273	
-0.392151	
-0.392273	
-0.393494	
-0.392334	
-0.391907	
-0.391174	
-0.391663	
-0.391785	
-0.391846	
-0.392761	
-0.391602	
-0.392273	
-0.391357	
-0.391785	
-0.391968	
-0.392578	
-0.392639	
-0.391785	
-0.391113	
-0.391357	
-0.391724	
-0.391724	
-0.392761	
-0.391602	
-0.390991	
-0.390686	
-0.391724	
-0.390747	
-0.389893	
-0.389648	
-0.389771	
-0.389832	
-0.389832	
-0.389282	
-0.389038	
-0.388489	
-0.388184	
-0.38855	
-0.388672	
-0.388672	
-0.390198	
-0.389038	
-0.388855	
-0.389099	
-0.388977	
-0.389038	
-0.387817	
-0.388977	
-0.388855	
-0.38916	
-0.389648	
-0.389954	
-0.389954	
-0.390503	
-0.389526	
-0.389465	
-0.389282	
-0.390381	
-0.389709	
-0.388367	
-0.388916	
-0.389526	
-0.38916	
-0.389221	
-0.389526	
-0.389526	
-0.38916	
-0.389404	
-0.389343	
-0.389343	
-0.389099	
-0.389404	
-0.38916	
-0.388794	
-0.389038	
-0.388916	
-0.388672	
-0.388489	
-0.389343	
-0.388855	
-0.388916	
-0.389343	
-0.389038	
-0.389221	
-0.388855	
-0.389038	
-0.389221	
-0.388489	
-0.390015	
-0.389282	
-0.389648	
-0.389648	
-0.390076	
-0.390442	
-0.391418	
-0.390869	
-0.390442	
-0.390442	
-0.391235	
-0.390625	
-0.389771	
-0.391174	
-0.390442	
-0.390381	
-0.39093	
-0.390747	
-0.390076	
-0.390442	
-0.389282	
-0.389771	
-0.388855	
-0.389587	
-0.389893	
-0.389038	
-0.389343	
-0.388611	
-0.388733	
-0.388916	
-0.388855	
-0.389709	
-0.389099	
-0.389709	
-0.38916	
-0.389893	
-0.390442	
-0.390869	
-0.390259	
-0.390564	
-0.389832	
-0.391846	
-0.390808	
-0.391174	
-0.391357	
-0.391418	
-0.391907	
-0.392456	
-0.392883	
-0.392883	
-0.393555	
-0.392273	
-0.393005	
-0.393188	
-0.393188	
-0.393372	
-0.393188	
-0.393616	
-0.394226	
-0.393311	
-0.393311	
-0.393433	
-0.394287	
-0.393494	
-0.39386	
-0.394287	
-0.393921	
-0.393738	
-0.394165	
-0.39386	
-0.39386	
-0.3927	
-0.394409	
-0.393616	
-0.392883	
-0.393127	
-0.393616	
-0.393494	
-0.39325	
-0.393372	
-0.392395	
-0.392212	
-0.391479	
-0.391785	
-0.391235	
-0.391418	
-0.391541	
-0.391907	
-0.391663	
-0.392578	
-0.391357	
-0.391418	
-0.391235	
-0.391602	
-0.391235	
-0.391479	
-0.392334	
-0.391663	
-0.391907	
-0.391968	
-0.392151	
-0.391846	
-0.391846	
-0.392029	
-0.392639	
-0.391968	
-0.393616	
-0.393127	
-0.392944	
-0.393311	
-0.394287	
-0.393188	
-0.393372	
-0.39325	
-0.393372	
-0.393066	
-0.392456	
-0.393738	
-0.393677	
-0.393982	
-0.39447	
-0.394043	
-0.394165	
-0.394592	
-0.39447	
-0.394409	
-0.393982	
-0.395142	
-0.394775	
-0.394958	
-0.394104	
-0.39502	
-0.394836	
-0.394958	
-0.393982	
-0.394592	
-0.39386	
-0.39563	
-0.394836	
-0.395203	
-0.395447	
-0.395386	
-0.394409	
-0.394592	
-0.393799	
-0.394226	
-0.393799	
-0.39386	
-0.393738	
-0.393738	
-0.393188	
-0.393738	
-0.393311	
-0.393066	
-0.393982	
-0.392944	
-0.3927	
-0.391296	
-0.393677	
-0.392151	
-0.392944	
-0.392273	
-0.392578	
-0.392517	
-0.393738	
-0.392517	
-0.392761	
-0.391907	
-0.393066	
-0.392761	
-0.392395	
-0.39325	
-0.393066	
-0.392151	
-0.391968	
-0.39093	
-0.391785	
-0.391418	
-0.391663	
-0.391602	
-0.391663	
-0.391602	
-0.391602	
-0.391357	
-0.390869	
-0.392334	
-0.391052	
-0.390869	
-0.388855	
-0.391663	
-0.390869	
-0.390991	
-0.39093	
-0.39093	
-0.391052	
-0.391479	
-0.390686	
-0.39093	
-0.390869	
-0.391357	
-0.391174	
-0.391663	
-0.392517	
-0.392639	
-0.392212	
-0.391968	
-0.392334	
-0.39325	
-0.393433	
-0.394104	
-0.394958	
-0.394348	
-0.394958	
-0.394104	
-0.394714	
-0.394714	
-0.395935	
-0.394958	
-0.394897	
-0.392822	
-0.395203	
-0.394409	
-0.39447	
-0.394409	
-0.394348	
-0.393799	
-0.393494	
-0.392517	
-0.392395	
-0.390991	
-0.391052	
-0.390747	
-0.390564	
-0.390747	
-0.389954	
-0.389648	
-0.38916	
-0.390137	
-0.389465	
-0.389465	
-0.389343	
-0.390442	
-0.390015	
-0.390015	
-0.389771	
-0.389832	
-0.389832	
-0.390137	
-0.390137	
-0.390076	
-0.388489	
-0.390869	
-0.390442	
-0.39032	
-0.391113	
-0.390503	
-0.390564	
-0.390198	
-0.390808	
-0.390076	
-0.389954	
-0.390259	
-0.390686	
-0.390808	
-0.391602	
-0.39093	
-0.390808	
-0.390381	
-0.391479	
-0.391113	
-0.390869	
-0.390564	
-0.391785	
-0.391418	
-0.392212	
-0.391235	
-0.392761	
-0.392334	
-0.393433	
-0.393005	
-0.392822	
-0.391968	
-0.39386	
-0.393127	
-0.393555	
-0.394897	
-0.393555	
-0.393188	
-0.3927	
-0.393433	
-0.393066	
-0.392578	
-0.393555	
-0.393066	
-0.392822	
-0.393555	
-0.392578	
-0.392029	
-0.392029	
-0.392944	
-0.392029	
-0.392029	
-0.391418	
-0.392639	
-0.392151	
-0.392212	
-0.391479	
-0.392212	
-0.392334	
-0.392334	
-0.392334	
-0.392273	
-0.392517	
-0.392883	
-0.392334	
-0.392517	
-0.393799	
-0.392944	
-0.393005	
-0.392029	
-0.393738	
-0.39325	
-0.391846	
-0.392639	
-0.392883	
-0.393188	
-0.393433	
-0.392273	
-0.392639	
-0.392822	
-0.393677	
-0.392578	
-0.39209	
-0.392273	
-0.393127	
-0.392273	
-0.391785	
-0.391541	
-0.391479	
-0.391418	
-0.390625	
-0.391113	
-0.390747	
-0.390808	
-0.391663	
-0.391113	
-0.391296	
-0.392212	
-0.391724	
-0.391479	
-0.390259	
-0.392578	
-0.391663	
-0.391724	
-0.391296	
-0.392456	
-0.392456	
-0.3927	
-0.392639	
-0.392822	
-0.393188	
-0.393066	
-0.392761	
-0.391968	
-0.392822	
-0.393311	
-0.392578	
-0.392334	
-0.39209	
-0.391785	
-0.391724	
-0.391174	
-0.391724	
-0.391235	
-0.390869	
-0.391846	
-0.391235	
-0.391113	
-0.391724	
-0.390503	
-0.390381	
-0.388611	
-0.390076	
-0.388977	
-0.388916	
-0.388611	
-0.388733	
-0.388306	
-0.389343	
-0.388489	
-0.38855	
-0.388733	
-0.389404	
-0.388428	
-0.387268	
-0.387512	
-0.389099	
-0.388184	
-0.388245	
-0.387573	
-0.388367	
-0.388123	
-0.387634	
-0.388	
-0.387817	
-0.387817	
-0.388794	
-0.388367	
-0.388245	
-0.389526	
-0.388672	
-0.389099	
-0.388367	
-0.389893	
-0.389893	
-0.389709	
-0.390137	
-0.39032	
-0.390503	
-0.390625	
-0.390198	
-0.390442	
-0.390625	
-0.391235	
-0.390442	
-0.389832	
-0.389404	
-0.390442	
-0.390442	
-0.390259	
-0.391724	
-0.390015	
-0.389954	
-0.388977	
-0.390076	
-0.389771	
-0.390076	
-0.390625	
-0.389771	
-0.389954	
-0.39032	
-0.389648	
-0.389587	
-0.38855	
-0.389343	
-0.389343	
-0.388916	
-0.390259	
-0.389526	
-0.388611	
-0.38916	
-0.388977	
-0.38855	
-0.389221	
-0.389282	
-0.388306	
-0.38739	
-0.387024	
-0.388245	
-0.388123	
-0.388245	
-0.387878	
-0.387817	
-0.387634	
-0.388184	
-0.387573	
-0.387268	
-0.387451	
-0.387878	
-0.387939	
-0.388123	
-0.389282	
-0.387329	
-0.387939	
-0.387146	
-0.387817	
-0.387634	
-0.387146	
-0.388367	
-0.387756	
-0.388306	
-0.388184	
-0.388306	
-0.388367	
-0.389038	
-0.388611	
-0.388489	
-0.387939	
-0.389587	
-0.388916	
-0.389038	
-0.388306	
-0.389404	
-0.389038	
-0.388916	
-0.388733	
-0.389038	
-0.388428	
-0.388367	
-0.388672	
-0.388855	
-0.388855	
-0.389954	
-0.389404	
-0.389221	
-0.389526	
-0.389404	
-0.389648	
-0.388489	
-0.389893	
-0.389954	
-0.389709	
-0.390564	
-0.390137	
-0.390076	
-0.390747	
-0.390015	
-0.390259	
-0.389771	
-0.391052	
-0.390747	
-0.390808	
-0.390015	
-0.391541	
-0.390869	
-0.390564	
-0.39032	
-0.390625	
-0.39032	
-0.390198	
-0.390564	
-0.390686	
-0.390503	
-0.392029	
-0.39032	
-0.390076	
-0.389893	
-0.389709	
-0.389343	
-0.387512	
-0.388489	
-0.388184	
-0.388	
-0.388611	
-0.387451	
-0.387146	
-0.387939	
-0.387024	
-0.386719	
-0.386353	
-0.388	
-0.38739	
-0.387207	
-0.386963	
-0.38739	
-0.387634	
-0.387634	
-0.387512	
-0.388428	
-0.388855	
-0.389709	
-0.389893	
-0.390503	
-0.390686	
-0.392151	
-0.391052	
-0.391968	
-0.391357	
	
