E:\DOCUMENTS AND SETTINGS\JPOTAS\MEUS DOCUMENTOS\UFRJ\RSCI-BM 12 WK SERIES\070730-RSCI-BM-09\RSCI-BM-09-REMG\070730-RSCI-BM-09-REMG-0002.ACQ
0.025000 msec/sample
1 channel
Analog input
Volts
CH1	
2000	
-0.410034	
-0.409973	
-0.410339	
-0.411865	
-0.410461	
-0.411194	
-0.411072	
-0.410828	
-0.411438	
-0.411438	
-0.411499	
-0.410767	
-0.411926	
-0.411682	
-0.411926	
-0.411987	
-0.411865	
-0.411499	
-0.411011	
-0.41095	
-0.411072	
-0.410461	
-0.410278	
-0.410217	
-0.410095	
-0.409302	
-0.408447	
-0.408569	
-0.406921	
-0.406982	
-0.40625	
-0.405945	
-0.406189	
-0.406006	
-0.405457	
-0.405396	
-0.40625	
-0.405334	
-0.405334	
-0.406006	
-0.40448	
-0.404358	
-0.40332	
-0.404297	
-0.404785	
-0.404175	
-0.404663	
-0.404602	
-0.405334	
-0.404541	
-0.405029	
-0.405945	
-0.404358	
-0.404236	
-0.404053	
-0.404419	
-0.405701	
-0.405579	
-0.404602	
-0.40564	
-0.406494	
-0.40625	
-0.406677	
-0.406189	
-0.405884	
-0.40564	
-0.404968	
-0.405029	
-0.406128	
-0.406128	
-0.40509	
-0.406067	
-0.406555	
-0.406677	
-0.406372	
-0.406616	
-0.406128	
-0.40564	
-0.405579	
-0.406677	
-0.406982	
-0.406433	
-0.407104	
-0.407166	
-0.407166	
-0.407288	
-0.408203	
-0.406555	
-0.406799	
-0.405884	
-0.407166	
-0.406677	
-0.406677	
-0.406311	
-0.405945	
-0.405579	
-0.405457	
-0.405884	
-0.40509	
-0.404541	
-0.404724	
-0.404175	
-0.404358	
-0.403992	
-0.404053	
-0.403748	
-0.403687	
-0.404175	
-0.403931	
-0.404053	
-0.403564	
-0.403137	
-0.403137	
-0.402466	
-0.402161	
-0.403442	
-0.403259	
-0.402405	
-0.40332	
-0.404114	
-0.404114	
-0.40448	
-0.403687	
-0.403076	
-0.402466	
-0.403564	
-0.402161	
-0.403625	
-0.403748	
-0.402832	
-0.40387	
-0.403992	
-0.405273	
-0.404175	
-0.404541	
-0.403809	
-0.403564	
-0.404785	
-0.404541	
-0.404419	
-0.405212	
-0.405701	
-0.406128	
-0.406128	
-0.407837	
-0.407715	
-0.408447	
-0.407959	
-0.407288	
-0.409851	
-0.409241	
-0.409668	
-0.410339	
-0.409485	
-0.410522	
-0.409912	
-0.411438	
-0.409973	
-0.410156	
-0.410034	
-0.409485	
-0.409729	
-0.409485	
-0.409485	
-0.40918	
-0.409058	
-0.40979	
-0.408936	
-0.410278	
-0.408325	
-0.40802	
-0.407288	
-0.407593	
-0.406189	
-0.406799	
-0.406494	
-0.405823	
-0.406494	
-0.40564	
-0.405518	
-0.406189	
-0.403503	
-0.403931	
-0.403015	
-0.403748	
-0.402527	
-0.403259	
-0.403137	
-0.403015	
-0.403748	
-0.40271	
-0.403015	
-0.40271	
-0.401917	
-0.401855	
-0.400574	
-0.402832	
-0.401672	
-0.410156	
-0.411194	
-0.411804	
-0.412537	
-0.411682	
-0.411255	
-0.40332	
-0.403564	
-0.402588	
-0.401184	
-0.402832	
-0.403198	
-0.403564	
-0.403381	
-0.404541	
-0.404602	
-0.40509	
-0.406372	
-0.403992	
-0.404846	
-0.40448	
-0.404907	
-0.405029	
-0.405212	
-0.405151	
-0.405151	
-0.405823	
-0.405579	
-0.405701	
-0.406677	
-0.405151	
-0.405579	
-0.405396	
-0.406311	
-0.405884	
-0.405701	
-0.405823	
-0.405334	
-0.406921	
-0.406006	
-0.406433	
-0.406372	
-0.406433	
-0.40625	
-0.404175	
-0.40564	
-0.404419	
-0.405579	
-0.405579	
-0.404358	
-0.405396	
-0.404785	
-0.405273	
-0.404419	
-0.405396	
-0.404419	
-0.402954	
-0.405579	
-0.40448	
-0.405151	
-0.404968	
-0.405273	
-0.405029	
-0.404907	
-0.405701	
-0.404358	
-0.405457	
-0.405029	
-0.403625	
-0.405701	
-0.404297	
-0.404785	
-0.404419	
-0.405029	
-0.404968	
-0.405212	
-0.406128	
-0.40387	
-0.405518	
-0.404602	
-0.405396	
-0.406006	
-0.405823	
-0.406311	
-0.406006	
-0.406189	
-0.405945	
-0.406677	
-0.40741	
-0.405212	
-0.405579	
-0.405212	
-0.406738	
-0.406555	
-0.407349	
-0.407654	
-0.407532	
-0.409546	
-0.409668	
-0.410278	
-0.411377	
-0.411865	
-0.412292	
-0.410828	
-0.413757	
-0.413879	
-0.415466	
-0.416199	
-0.416077	
-0.419006	
-0.418823	
-0.420593	
-0.420227	
-0.422241	
-0.421875	
-0.422302	
-0.424072	
-0.424194	
-0.424927	
-0.424927	
-0.425415	
-0.425232	
-0.425049	
-0.426086	
-0.423462	
-0.423279	
-0.421692	
-0.421997	
-0.420227	
-0.419739	
-0.419128	
-0.417358	
-0.417908	
-0.416748	
-0.416992	
-0.415405	
-0.415283	
-0.414124	
-0.414124	
-0.414734	
-0.414246	
-0.414612	
-0.414673	
-0.414917	
-0.414917	
-0.416443	
-0.416016	
-0.41571	
-0.41626	
-0.416687	
-0.417908	
-0.41803	
-0.419067	
-0.419128	
-0.418213	
-0.420105	
-0.419861	
-0.4198	
-0.419434	
-0.420593	
-0.418823	
-0.419373	
-0.420715	
-0.420105	
-0.419983	
-0.418945	
-0.420349	
-0.419006	
-0.41925	
-0.419312	
-0.419006	
-0.419006	
-0.418579	
-0.419739	
-0.419617	
-0.420593	
-0.421143	
-0.420959	
-0.421631	
-0.421448	
-0.420959	
-0.418518	
-0.4198	
-0.416992	
-0.41626	
-0.416443	
-0.414368	
-0.412781	
-0.410767	
-0.409912	
-0.407166	
-0.405884	
-0.402832	
-0.399475	
-0.397888	
-0.395142	
-0.392029	
-0.390564	
-0.388184	
-0.385376	
-0.382202	
-0.38031	
-0.376709	
-0.374817	
-0.371826	
-0.368469	
-0.364807	
-0.361389	
-0.358398	
-0.35376	
-0.351379	
-0.347961	
-0.344482	
-0.342651	
-0.339966	
-0.337402	
-0.335266	
-0.333313	
-0.331238	
-0.328857	
-0.329285	
-0.328125	
-0.327454	
-0.326599	
-0.327698	
-0.326904	
-0.326233	
-0.327148	
-0.326538	
-0.326111	
-0.326904	
-0.32782	
-0.327881	
-0.328491	
-0.327881	
-0.329468	
-0.330627	
-0.331055	
-0.332458	
-0.33252	
-0.332703	
-0.335083	
-0.33606	
-0.336304	
-0.33783	
-0.338196	
-0.340576	
-0.341492	
-0.343689	
-0.344971	
-0.346008	
-0.347961	
-0.348572	
-0.350037	
-0.350952	
-0.352356	
-0.353149	
-0.354858	
-0.355957	
-0.357788	
-0.358337	
-0.358398	
-0.359985	
-0.360352	
-0.360901	
-0.361511	
-0.362488	
-0.362732	
-0.364746	
-0.36499	
-0.365784	
-0.367004	
-0.365906	
-0.36731	
-0.367249	
-0.36908	
-0.368164	
-0.368408	
-0.368591	
-0.368835	
-0.369202	
-0.368713	
-0.368164	
-0.367493	
-0.367737	
-0.366577	
-0.36792	
-0.366821	
-0.367981	
-0.367859	
-0.368286	
-0.369141	
-0.369385	
-0.369385	
-0.369202	
-0.369873	
-0.36969	
-0.370422	
-0.370178	
-0.370728	
-0.370789	
-0.371094	
-0.372498	
-0.373108	
-0.373779	
-0.373718	
-0.372803	
-0.374756	
-0.374146	
-0.375549	
-0.375366	
-0.376892	
-0.376953	
-0.37793	
-0.3797	
-0.380432	
-0.381226	
-0.380676	
-0.381775	
-0.382263	
-0.382996	
-0.38269	
-0.383545	
-0.382813	
-0.384216	
-0.385376	
-0.385498	
-0.385803	
-0.385681	
-0.385315	
-0.385376	
-0.386902	
-0.386719	
-0.385864	
-0.387695	
-0.386658	
-0.387512	
-0.388794	
-0.388184	
-0.388611	
-0.387573	
-0.388367	
-0.387329	
-0.387756	
-0.386292	
-0.386353	
-0.386475	
-0.386353	
-0.387085	
-0.386292	
-0.38678	
-0.386536	
-0.386841	
-0.386841	
-0.387878	
-0.387451	
-0.387146	
-0.387695	
-0.387695	
-0.38916	
-0.387451	
-0.388733	
-0.387939	
-0.388489	
-0.388245	
-0.389221	
-0.38855	
-0.388306	
-0.387939	
-0.388794	
-0.389587	
-0.389282	
-0.388855	
-0.388	
-0.38916	
-0.388916	
-0.389832	
-0.389771	
-0.389221	
-0.389221	
-0.389709	
-0.390381	
-0.390747	
-0.391113	
-0.39032	
-0.391296	
-0.390686	
-0.391663	
-0.390686	
-0.391052	
-0.391113	
-0.391174	
-0.391602	
-0.391174	
-0.391663	
-0.39032	
-0.391357	
-0.389954	
-0.390686	
-0.391235	
-0.391113	
-0.390991	
-0.390625	
-0.391418	
-0.391479	
-0.39209	
-0.391724	
-0.391113	
-0.390564	
-0.391357	
-0.392761	
-0.39209	
-0.392273	
-0.392212	
-0.392944	
-0.393188	
-0.39386	
-0.393494	
-0.392883	
-0.393372	
-0.392944	
-0.393738	
-0.3927	
-0.393616	
-0.392944	
-0.393188	
-0.393555	
-0.392761	
-0.392944	
-0.391541	
-0.391907	
-0.390503	
-0.391724	
-0.391541	
-0.391479	
-0.391174	
-0.390259	
-0.392517	
-0.391968	
-0.393127	
-0.391724	
-0.392212	
-0.391846	
-0.392883	
-0.393188	
-0.392395	
-0.393311	
-0.393188	
-0.394409	
-0.393738	
-0.395081	
-0.393921	
-0.394348	
-0.393555	
-0.39502	
-0.395752	
-0.394653	
-0.39563	
-0.396362	
-0.396301	
-0.397217	
-0.398071	
-0.397461	
-0.397339	
-0.398987	
-0.398682	
-0.401367	
-0.400391	
-0.400452	
-0.401733	
-0.402405	
-0.403381	
-0.402954	
-0.403564	
-0.402527	
-0.403442	
-0.402954	
-0.404663	
-0.40448	
-0.40387	
-0.403931	
-0.404541	
-0.405518	
-0.404846	
-0.405212	
-0.404236	
-0.404358	
-0.404846	
-0.404907	
-0.404053	
-0.403198	
-0.40332	
-0.403442	
-0.403564	
-0.402161	
-0.402771	
-0.40094	
-0.400574	
-0.400391	
-0.400146	
-0.399353	
-0.398926	
-0.398193	
-0.399048	
-0.399597	
-0.399109	
-0.400024	
-0.398438	
-0.398376	
-0.398315	
-0.399719	
-0.398193	
-0.398254	
-0.398254	
-0.397705	
-0.398804	
-0.399109	
-0.400269	
-0.399597	
-0.397827	
-0.398743	
-0.398865	
-0.400085	
-0.399353	
-0.399109	
-0.398804	
-0.399902	
-0.401184	
-0.401245	
-0.400635	
-0.399963	
-0.400269	
-0.399475	
-0.401184	
-0.400574	
-0.400513	
-0.399963	
-0.401123	
-0.401428	
-0.401306	
-0.402161	
-0.401001	
-0.401001	
-0.401123	
-0.402283	
-0.401611	
-0.401367	
-0.401489	
-0.40033	
-0.402161	
-0.401367	
-0.402466	
-0.401855	
-0.4021	
-0.4021	
-0.40155	
-0.403503	
-0.402527	
-0.402527	
-0.40155	
-0.401855	
-0.402039	
-0.402344	
-0.402832	
-0.400391	
-0.400513	
-0.399536	
-0.401917	
-0.400696	
-0.400513	
-0.400085	
-0.399231	
-0.400635	
-0.399963	
-0.400635	
-0.39978	
-0.400024	
-0.399475	
-0.399048	
-0.400452	
-0.399231	
-0.399292	
-0.399109	
-0.399475	
-0.399658	
-0.400024	
-0.401123	
-0.399475	
-0.399536	
-0.399475	
-0.400574	
-0.399963	
-0.400024	
-0.399658	
-0.400085	
-0.400452	
-0.400635	
-0.401611	
-0.400208	
-0.401062	
-0.400208	
-0.401855	
-0.401855	
-0.40094	
-0.400879	
-0.401123	
-0.402039	
-0.401855	
-0.402771	
-0.401733	
-0.402527	
-0.403015	
-0.403442	
-0.405212	
-0.40448	
-0.404907	
-0.404907	
-0.406128	
-0.40625	
-0.406982	
-0.408142	
-0.405579	
-0.407043	
-0.406677	
-0.407715	
-0.407104	
-0.406799	
-0.406067	
-0.406677	
-0.407349	
-0.406738	
-0.406982	
-0.405884	
-0.40625	
-0.406128	
-0.405334	
-0.406189	
-0.405457	
-0.404907	
-0.40387	
-0.405518	
-0.404358	
-0.404297	
-0.404541	
-0.403687	
-0.403259	
-0.401733	
-0.403992	
-0.402405	
-0.4021	
-0.401367	
-0.400574	
-0.401123	
-0.401184	
-0.402832	
-0.400208	
-0.40094	
-0.400391	
-0.401184	
-0.401062	
-0.400024	
-0.39978	
-0.399292	
-0.401062	
-0.400208	
-0.400513	
-0.400818	
-0.39978	
-0.399963	
-0.399658	
-0.401672	
-0.40094	
-0.400818	
-0.400146	
-0.401184	
-0.40155	
-0.401184	
-0.40271	
-0.401184	
-0.4021	
-0.402283	
-0.402954	
-0.403137	
-0.403259	
-0.402832	
-0.401367	
-0.403687	
-0.403259	
-0.404419	
-0.403503	
-0.40332	
-0.403442	
-0.403137	
-0.404907	
-0.404175	
-0.404175	
-0.403748	
-0.40448	
-0.404968	
-0.404785	
-0.405457	
-0.403687	
-0.404724	
-0.404114	
-0.404907	
-0.40509	
-0.405212	
-0.404785	
-0.403809	
-0.405396	
-0.40509	
-0.405518	
-0.40564	
-0.404968	
-0.404297	
-0.404297	
-0.405884	
-0.404053	
-0.403442	
-0.403748	
-0.40448	
-0.403809	
-0.403687	
-0.404785	
-0.40271	
-0.403809	
-0.402649	
-0.404419	
-0.404846	
-0.403992	
-0.403992	
-0.402527	
-0.404175	
-0.404053	
-0.405029	
-0.403809	
-0.402771	
-0.403564	
-0.402771	
-0.404907	
-0.404175	
-0.403564	
-0.403503	
-0.40387	
-0.404724	
-0.404114	
-0.404541	
-0.403564	
-0.404297	
-0.403564	
-0.404602	
-0.404541	
-0.40448	
-0.404663	
-0.403137	
-0.405396	
-0.405029	
-0.40625	
-0.405212	
-0.405945	
-0.406738	
-0.40564	
-0.408081	
-0.40741	
-0.407654	
-0.407715	
-0.407104	
-0.408936	
-0.408508	
-0.409058	
-0.408386	
-0.407898	
-0.407532	
-0.408142	
-0.408936	
-0.408203	
-0.407532	
-0.405884	
-0.407776	
-0.407532	
-0.407593	
-0.407288	
-0.405884	
-0.406738	
-0.405884	
-0.407654	
-0.406067	
-0.40564	
-0.40564	
-0.404602	
-0.405457	
-0.405029	
-0.405273	
-0.403687	
-0.403503	
-0.402161	
-0.403137	
-0.403809	
-0.402283	
-0.401306	
-0.400024	
-0.400696	
-0.399902	
-0.399902	
-0.399048	
-0.398132	
-0.397583	
-0.397705	
-0.399048	
-0.398071	
-0.39801	
-0.396851	
-0.397766	
-0.398865	
-0.398254	
-0.397705	
-0.397949	
-0.397522	
-0.398376	
-0.397583	
-0.399353	
-0.398682	
-0.398987	
-0.398438	
-0.399475	
-0.399841	
-0.401672	
-0.401672	
-0.401428	
-0.402222	
-0.402588	
-0.404053	
-0.402954	
-0.403931	
-0.403564	
-0.40332	
-0.404297	
-0.404602	
-0.404724	
-0.403076	
-0.404358	
-0.404846	
-0.403748	
-0.405518	
-0.404968	
-0.40509	
-0.403992	
-0.405579	
-0.404968	
-0.405579	
-0.405273	
-0.404175	
-0.404358	
-0.405212	
-0.40564	
-0.404419	
-0.404785	
-0.40448	
-0.404602	
-0.405457	
-0.404846	
-0.404541	
-0.404541	
-0.404175	
-0.404175	
-0.405151	
-0.405151	
-0.403931	
-0.40332	
-0.403015	
-0.404114	
-0.403809	
-0.404114	
-0.403442	
-0.403687	
-0.403137	
-0.40387	
-0.402588	
-0.403442	
-0.403198	
-0.402954	
-0.403015	
-0.404175	
-0.403625	
-0.403015	
-0.403137	
-0.40332	
-0.403564	
-0.404358	
-0.403259	
-0.403625	
-0.403259	
-0.403503	
-0.404236	
-0.404541	
-0.404358	
-0.404724	
-0.40509	
-0.404785	
-0.405762	
-0.405884	
-0.406311	
-0.405762	
-0.404968	
-0.405518	
-0.406921	
-0.406494	
-0.406555	
-0.406311	
-0.407043	
-0.406128	
-0.407471	
-0.407227	
-0.406921	
-0.406311	
-0.406982	
-0.40741	
-0.407776	
-0.407654	
-0.40686	
-0.406799	
-0.406799	
-0.40741	
-0.407043	
-0.406006	
-0.406982	
-0.405701	
-0.406006	
-0.407288	
-0.407166	
-0.407043	
-0.406616	
-0.406433	
-0.405701	
-0.407166	
-0.406006	
-0.406067	
-0.406189	
-0.406311	
-0.405212	
-0.407166	
-0.406189	
-0.405823	
-0.404663	
-0.405823	
-0.404053	
-0.40387	
-0.403992	
-0.402466	
-0.402222	
-0.401428	
-0.402039	
-0.401306	
-0.401001	
-0.400635	
-0.400208	
-0.399719	
-0.401062	
-0.400696	
-0.399597	
-0.400085	
-0.400024	
-0.399841	
-0.40094	
-0.401611	
-0.400879	
-0.400879	
-0.401794	
-0.401184	
-0.401855	
-0.402283	
-0.401978	
-0.401917	
-0.402466	
-0.403076	
-0.403931	
-0.404663	
-0.403748	
-0.403503	
-0.404541	
-0.405701	
-0.405396	
-0.406128	
-0.406006	
-0.406555	
-0.406189	
-0.407898	
-0.407349	
-0.407227	
-0.407288	
-0.406921	
-0.407227	
-0.407288	
-0.408325	
-0.407898	
-0.406494	
-0.40802	
-0.408325	
-0.408997	
-0.408752	
-0.407776	
-0.408142	
-0.408752	
-0.408203	
-0.40802	
-0.407471	
-0.407471	
-0.407471	
-0.40741	
-0.407654	
-0.407166	
-0.407471	
-0.406677	
-0.406128	
-0.405579	
-0.405212	
-0.405518	
-0.404541	
-0.404236	
-0.405029	
-0.405579	
-0.406006	
-0.405396	
-0.404785	
-0.404724	
-0.405457	
-0.404846	
-0.405029	
-0.405029	
-0.404785	
-0.404724	
-0.404175	
-0.404358	
-0.404602	
-0.405518	
-0.404541	
-0.403259	
-0.40448	
-0.404846	
-0.40509	
-0.403687	
-0.404419	
-0.40448	
-0.404175	
-0.406006	
-0.405212	
-0.406006	
-0.404663	
-0.405518	
-0.405396	
-0.405518	
-0.406433	
-0.405273	
-0.405334	
-0.405212	
-0.406372	
-0.405945	
-0.405884	
-0.405518	
-0.405457	
-0.406433	
-0.405212	
-0.405334	
-0.405151	
-0.405273	
-0.405396	
-0.40448	
-0.406372	
-0.405945	
-0.405884	
-0.405518	
-0.406067	
-0.406677	
-0.405151	
-0.406067	
-0.405823	
-0.405029	
-0.405823	
-0.404907	
-0.405945	
-0.406128	
-0.406738	
-0.405029	
-0.405823	
-0.406372	
-0.406067	
-0.406189	
-0.404236	
-0.405457	
-0.405396	
-0.406067	
-0.405273	
-0.405151	
-0.404236	
-0.403564	
-0.404175	
-0.402954	
-0.402588	
-0.401672	
-0.401611	
-0.401855	
-0.401123	
-0.402405	
-0.401917	
-0.402405	
-0.401245	
-0.4021	
-0.403137	
-0.401917	
-0.401978	
-0.401917	
-0.401978	
-0.401978	
-0.401978	
-0.40271	
-0.402466	
-0.402588	
-0.403259	
-0.403687	
-0.403442	
-0.404358	
-0.405029	
-0.403015	
-0.405273	
-0.405396	
-0.405762	
-0.406128	
-0.407043	
-0.405762	
-0.407104	
-0.408997	
-0.408081	
-0.409241	
-0.409302	
-0.40979	
-0.410583	
-0.41095	
-0.411316	
-0.411987	
-0.412415	
-0.411377	
-0.412109	
-0.412781	
-0.412354	
-0.412598	
-0.41217	
-0.412781	
-0.412659	
-0.412842	
-0.412781	
-0.412598	
-0.412292	
-0.412781	
-0.413208	
-0.412231	
-0.412231	
-0.412476	
-0.410278	
-0.411194	
-0.411133	
-0.410034	
-0.409668	
-0.409485	
-0.407654	
-0.408142	
-0.408264	
-0.407532	
-0.407288	
-0.406555	
-0.406738	
-0.406921	
-0.407593	
-0.406738	
-0.40625	
-0.405884	
-0.405884	
-0.406799	
-0.406311	
-0.405945	
-0.405579	
-0.404663	
-0.405823	
-0.405945	
-0.405334	
-0.406006	
-0.406128	
-0.405212	
-0.405396	
-0.406311	
-0.405762	
-0.40625	
-0.406616	
-0.405518	
-0.406555	
-0.407593	
-0.406677	
-0.406921	
-0.407532	
-0.406982	
-0.407471	
-0.407898	
-0.406921	
-0.407166	
-0.408081	
-0.40741	
-0.407349	
-0.407166	
-0.407349	
-0.407349	
-0.40802	
-0.407349	
-0.408569	
-0.408264	
-0.407593	
-0.407959	
-0.407898	
-0.40802	
-0.407776	
-0.40686	
-0.407898	
-0.408081	
-0.407104	
-0.408142	
-0.409119	
-0.407837	
-0.408264	
-0.408142	
-0.406677	
-0.407471	
-0.407959	
-0.406311	
-0.40625	
-0.406555	
-0.405945	
-0.405884	
-0.406128	
-0.404602	
-0.405457	
-0.405762	
-0.405151	
-0.405273	
-0.405029	
-0.405029	
-0.404724	
-0.40509	
-0.404663	
-0.405762	
-0.405212	
-0.404419	
-0.404358	
-0.40448	
-0.404602	
-0.404785	
-0.403442	
-0.404602	
-0.40448	
-0.404175	
-0.404907	
-0.405212	
-0.403931	
-0.404541	
-0.40448	
-0.403992	
-0.405029	
-0.405151	
-0.403809	
-0.405334	
-0.405457	
-0.405273	
-0.406006	
-0.405334	
-0.404663	
-0.40509	
-0.406311	
-0.404297	
-0.40625	
-0.406555	
-0.406677	
-0.40741	
-0.408264	
-0.408752	
-0.409851	
-0.409729	
-0.409729	
-0.410095	
-0.410156	
-0.410156	
-0.411133	
-0.410156	
-0.411133	
-0.411255	
-0.411316	
-0.411377	
-0.411377	
-0.410217	
-0.411316	
-0.410095	
-0.410034	
-0.411133	
-0.411133	
-0.409668	
-0.410095	
-0.410339	
-0.410095	
-0.410828	
-0.409668	
-0.408813	
-0.408997	
-0.408936	
-0.407043	
-0.408508	
-0.408264	
-0.407654	
-0.407532	
-0.407349	
-0.406494	
-0.406677	
-0.405884	
-0.405151	
-0.404785	
-0.404968	
-0.404602	
-0.404663	
-0.404114	
-0.404663	
-0.404846	
-0.403137	
-0.403992	
-0.403809	
-0.402832	
-0.403198	
-0.402466	
-0.403259	
-0.403809	
-0.404236	
-0.402893	
-0.403992	
-0.404724	
-0.403809	
-0.405457	
-0.404968	
-0.404785	
-0.40448	
-0.404968	
-0.403687	
-0.405823	
-0.406982	
-0.406067	
-0.406494	
-0.406189	
-0.406616	
-0.407471	
-0.406555	
-0.40625	
-0.406189	
-0.407166	
-0.406799	
-0.406921	
-0.407043	
-0.407043	
-0.407715	
-0.406311	
-0.407532	
-0.407288	
-0.407043	
-0.407532	
-0.406616	
-0.407654	
-0.407654	
-0.408264	
-0.407471	
-0.40802	
-0.408447	
-0.407104	
-0.408325	
-0.407898	
-0.407898	
-0.407288	
-0.406677	
-0.406677	
-0.407288	
-0.407959	
-0.40625	
-0.407043	
-0.406189	
-0.406189	
-0.407227	
-0.407288	
-0.406311	
-0.40625	
-0.406555	
-0.40686	
-0.406677	
-0.406555	
-0.405701	
-0.407715	
-0.40564	
-0.407043	
-0.406616	
-0.407043	
-0.406616	
-0.40564	
-0.407227	
-0.406616	
-0.406433	
-0.405884	
-0.406189	
-0.406372	
-0.405579	
-0.406982	
-0.406067	
-0.406433	
-0.405823	
-0.406128	
-0.405701	
-0.406372	
-0.407349	
-0.406372	
-0.407288	
-0.406372	
-0.407227	
-0.407776	
-0.408081	
-0.407166	
-0.407532	
-0.408508	
-0.408447	
-0.408875	
-0.409973	
-0.408264	
-0.410217	
-0.409668	
-0.410706	
-0.410217	
-0.411255	
-0.41095	
-0.409851	
-0.411377	
-0.410889	
-0.411255	
-0.410522	
-0.410706	
-0.41095	
-0.40979	
-0.410217	
-0.410095	
-0.40979	
-0.409485	
-0.408508	
-0.409119	
-0.409241	
-0.409973	
-0.408875	
-0.408752	
-0.407837	
-0.407776	
-0.408386	
-0.40686	
-0.406799	
-0.406067	
-0.406067	
-0.404724	
-0.405762	
-0.406128	
-0.403564	
-0.404053	
-0.403625	
-0.402954	
-0.402588	
-0.40155	
-0.401062	
-0.400513	
-0.401245	
-0.400757	
-0.400757	
-0.399658	
-0.399902	
-0.400391	
-0.398865	
-0.399658	
-0.399902	
-0.399536	
-0.39917	
-0.398865	
-0.399414	
-0.400085	
-0.401611	
-0.400452	
-0.40094	
-0.400879	
-0.40094	
-0.401672	
-0.401733	
-0.402405	
-0.403015	
-0.40332	
-0.404236	
-0.404785	
-0.405579	
-0.404663	
-0.405457	
-0.405579	
-0.40564	
-0.405823	
-0.405151	
-0.405579	
-0.405579	
-0.406738	
-0.406921	
-0.406677	
-0.406433	
-0.406555	
-0.407532	
-0.406006	
-0.406494	
-0.407532	
-0.40625	
-0.406433	
-0.406067	
-0.406128	
-0.406677	
-0.407715	
-0.406616	
-0.406738	
-0.406738	
-0.406738	
-0.406677	
-0.40625	
-0.406311	
-0.405823	
-0.405762	
-0.404785	
-0.406128	
-0.406494	
-0.405457	
-0.405701	
-0.405701	
-0.405029	
-0.405579	
-0.404907	
-0.405579	
-0.405396	
-0.40509	
-0.405151	
-0.405518	
-0.404846	
-0.405579	
-0.405762	
-0.404114	
-0.404663	
-0.40564	
-0.404724	
-0.404785	
-0.404602	
-0.404785	
-0.405273	
-0.405518	
-0.404602	
-0.40509	
-0.405884	
-0.404419	
-0.405579	
-0.406799	
-0.406128	
-0.406677	
-0.406738	
-0.406311	
-0.40741	
-0.407898	
-0.406921	
-0.40741	
-0.407227	
-0.407532	
-0.407837	
-0.407349	
-0.407898	
-0.407959	
-0.407227	
-0.408203	
-0.408264	
-0.408142	
-0.407776	
-0.409241	
-0.40741	
-0.408264	
-0.408508	
-0.408325	
-0.408142	
-0.408081	
-0.40741	
-0.408203	
-0.408081	
-0.407776	
-0.40802	
-0.408569	
-0.40686	
-0.407898	
-0.40863	
-0.40741	
-0.407593	
-0.407166	
-0.407349	
-0.407532	
-0.408142	
-0.406067	
-0.407104	
-0.406982	
-0.407166	
-0.40686	
-0.40625	
-0.40625	
-0.405945	
-0.403931	
-0.404785	
-0.404114	
-0.403809	
-0.402161	
-0.40332	
-0.401001	
-0.402222	
-0.402466	
-0.401489	
-0.401489	
-0.401428	
-0.400452	
-0.401611	
-0.401978	
-0.401306	
-0.401367	
-0.401672	
-0.400757	
-0.40155	
-0.402893	
-0.402283	
-0.401794	
-0.402161	
-0.403198	
-0.402954	
-0.403687	
-0.40332	
-0.403564	
-0.403137	
-0.404236	
-0.404602	
-0.404114	
-0.40509	
-0.405396	
-0.404419	
-0.406921	
-0.40741	
-0.407593	
-0.406738	
-0.407959	
-0.406799	
-0.407837	
-0.408325	
-0.407715	
-0.408203	
-0.407959	
-0.40741	
-0.408752	
-0.408569	
-0.408447	
-0.408875	
-0.409363	
-0.408875	
-0.408936	
-0.410034	
-0.408752	
-0.408325	
-0.40863	
-0.408752	
-0.408447	
-0.408569	
-0.408081	
-0.408203	
-0.408386	
-0.407898	
-0.407776	
-0.407898	
-0.40686	
-0.406494	
-0.40509	
-0.406372	
-0.406311	
-0.405762	
-0.404602	
-0.406433	
-0.405457	
-0.406311	
-0.406311	
-0.406433	
-0.405701	
-0.405396	
-0.404724	
-0.405334	
-0.405823	
-0.404846	
-0.405212	
-0.405029	
-0.405273	
-0.404907	
-0.406128	
-0.404236	
-0.40509	
-0.404968	
-0.405396	
-0.405518	
-0.405396	
-0.40509	
-0.405334	
-0.405273	
-0.405823	
-0.405762	
-0.407104	
-0.405212	
-0.406616	
-0.406555	
-0.40686	
-0.407227	
-0.406372	
-0.405701	
-0.406189	
-0.405945	
-0.406067	
-0.406494	
-0.407471	
-0.406128	
-0.405823	
-0.406067	
-0.406067	
-0.406738	
-0.405945	
-0.404968	
-0.406311	
-0.406921	
-0.406494	
-0.40686	
-0.406311	
-0.40625	
-0.406677	
-0.405945	
-0.406677	
-0.406982	
-0.406311	
-0.405579	
-0.405579	
-0.407166	
-0.406799	
-0.407166	
-0.40564	
-0.406006	
-0.405884	
-0.405823	
-0.406189	
-0.405945	
-0.406006	
-0.40564	
-0.404358	
-0.404602	
-0.40448	
-0.40509	
-0.403381	
-0.403259	
-0.402039	
-0.403442	
-0.403137	
-0.402222	
-0.402222	
-0.401672	
-0.402771	
-0.402466	
-0.402771	
-0.402527	
-0.4021	
-0.402161	
-0.402527	
-0.403015	
-0.402832	
-0.402771	
-0.401794	
-0.402161	
-0.404114	
-0.403503	
-0.405029	
-0.404114	
-0.404114	
-0.40387	
-0.404358	
-0.405396	
-0.405334	
-0.405762	
-0.404907	
-0.405457	
-0.407104	
-0.407166	
-0.408386	
-0.407471	
-0.40863	
-0.408997	
-0.410278	
-0.411499	
	
