E:\DOCUMENTS AND SETTINGS\JPOTAS\MEUS DOCUMENTOS\UFRJ\RSCI-BM 12 WK SERIES\070720-RSCI-BM-04\RSCI-BM-04-REMG\070720-RSCI-BM-REMG-0000.ACQ
0.025000 msec/sample
1 channel
Analog input
Volts
CH1	
2000	
-0.388428	
-0.388	
-0.387695	
-0.387268	
-0.388306	
-0.388916	
-0.387695	
-0.388306	
-0.388245	
-0.388062	
-0.388489	
-0.388306	
-0.388062	
-0.388306	
-0.388428	
-0.389526	
-0.388977	
-0.388123	
-0.387817	
-0.387939	
-0.388489	
-0.388428	
-0.388367	
-0.388245	
-0.388672	
-0.389282	
-0.389221	
-0.389526	
-0.387512	
-0.386536	
-0.387329	
-0.388062	
-0.388428	
-0.387817	
-0.388062	
-0.388062	
-0.38855	
-0.388916	
-0.388672	
-0.386658	
-0.386963	
-0.386414	
-0.387695	
-0.387817	
-0.387085	
-0.387329	
-0.387024	
-0.387695	
-0.387878	
-0.387512	
-0.38623	
-0.386902	
-0.38623	
-0.387512	
-0.388733	
-0.388062	
-0.388	
-0.387939	
-0.388672	
-0.389099	
-0.388123	
-0.387207	
-0.388428	
-0.388855	
-0.389526	
-0.389832	
-0.38916	
-0.389099	
-0.388611	
-0.389343	
-0.389954	
-0.38855	
-0.388367	
-0.388062	
-0.388306	
-0.388733	
-0.389221	
-0.388916	
-0.38855	
-0.388489	
-0.389648	
-0.390076	
-0.389038	
-0.388062	
-0.388611	
-0.389282	
-0.389709	
-0.39032	
-0.389526	
-0.389832	
-0.388855	
-0.390625	
-0.391846	
-0.390198	
-0.390015	
-0.389893	
-0.390503	
-0.390564	
-0.39032	
-0.390259	
-0.390442	
-0.390503	
-0.390991	
-0.391357	
-0.390015	
-0.389099	
-0.389343	
-0.390747	
-0.390869	
-0.390808	
-0.390808	
-0.391296	
-0.391479	
-0.391602	
-0.392334	
-0.391174	
-0.390137	
-0.389526	
-0.391357	
-0.392029	
-0.391846	
-0.391968	
-0.391479	
-0.392944	
-0.392761	
-0.392456	
-0.391052	
-0.391113	
-0.390259	
-0.392151	
-0.393188	
-0.391846	
-0.391602	
-0.391541	
-0.392517	
-0.391541	
-0.390869	
-0.389343	
-0.390015	
-0.389587	
-0.389771	
-0.39093	
-0.389343	
-0.389404	
-0.389343	
-0.389526	
-0.389526	
-0.388611	
-0.387268	
-0.387756	
-0.387817	
-0.387756	
-0.388062	
-0.386963	
-0.386658	
-0.385437	
-0.38739	
-0.38739	
-0.385925	
-0.385315	
-0.385681	
-0.385681	
-0.386108	
-0.386108	
-0.385925	
-0.385803	
-0.387024	
-0.387695	
-0.388123	
-0.386292	
-0.385559	
-0.386414	
-0.386353	
-0.387512	
-0.387268	
-0.387573	
-0.387939	
-0.389404	
-0.389038	
-0.390381	
-0.388855	
-0.388428	
-0.388367	
-0.389343	
-0.389771	
-0.389221	
-0.388794	
-0.388489	
-0.390076	
-0.388916	
-0.390381	
-0.388245	
-0.387817	
-0.387268	
-0.388489	
-0.389099	
-0.388062	
-0.385559	
-0.385376	
-0.386414	
-0.386414	
-0.387329	
-0.384277	
-0.38855	
-0.387512	
-0.389038	
-0.389099	
-0.388428	
-0.388367	
-0.387634	
-0.389099	
-0.388794	
-0.388428	
-0.388245	
-0.388184	
-0.387268	
-0.389099	
-0.388916	
-0.389465	
-0.388916	
-0.388733	
-0.389526	
-0.389343	
-0.388794	
-0.388428	
-0.388611	
-0.387939	
-0.38855	
-0.388306	
-0.388611	
-0.388611	
-0.388855	
-0.389587	
-0.389343	
-0.388367	
-0.388489	
-0.388489	
-0.388489	
-0.389465	
-0.388733	
-0.388611	
-0.388062	
-0.388733	
-0.388977	
-0.389099	
-0.388916	
-0.388184	
-0.388306	
-0.388733	
-0.38916	
-0.389282	
-0.389343	
-0.389404	
-0.390198	
-0.390991	
-0.392334	
-0.390259	
-0.390076	
-0.39032	
-0.391602	
-0.392944	
-0.392578	
-0.392212	
-0.392395	
-0.393738	
-0.393433	
-0.394226	
-0.392212	
-0.3927	
-0.391846	
-0.393921	
-0.394592	
-0.39386	
-0.394104	
-0.394531	
-0.396179	
-0.395325	
-0.39624	
-0.394775	
-0.396179	
-0.395935	
-0.397888	
-0.399048	
-0.399231	
-0.400391	
-0.400818	
-0.403931	
-0.405334	
-0.405945	
-0.405945	
-0.408264	
-0.410706	
-0.412415	
-0.41394	
-0.415771	
-0.418335	
-0.420837	
-0.422913	
-0.42511	
-0.426208	
-0.427612	
-0.428528	
-0.431641	
-0.433228	
-0.433533	
-0.434021	
-0.434082	
-0.437134	
-0.436829	
-0.435547	
-0.434265	
-0.43573	
-0.437378	
-0.438293	
-0.439392	
-0.441101	
-0.443237	
-0.446167	
-0.447876	
-0.451172	
-0.452759	
-0.455322	
-0.457764	
-0.461853	
-0.465271	
-0.467651	
-0.470947	
-0.474121	
-0.477905	
-0.480835	
-0.483398	
-0.486267	
-0.489197	
-0.492126	
-0.494995	
-0.498779	
-0.5	
-0.501587	
-0.50293	
-0.506653	
-0.507507	
-0.506958	
-0.506592	
-0.508606	
-0.510986	
-0.51178	
-0.512573	
-0.512939	
-0.513489	
-0.514648	
-0.514465	
-0.514709	
-0.51355	
-0.513184	
-0.512329	
-0.512573	
-0.512817	
-0.511292	
-0.510071	
-0.508789	
-0.508606	
-0.506104	
-0.502563	
-0.500549	
-0.49884	
-0.497192	
-0.495728	
-0.493958	
-0.49115	
-0.488892	
-0.485168	
-0.484619	
-0.480713	
-0.477478	
-0.473145	
-0.470154	
-0.466797	
-0.462646	
-0.458923	
-0.455627	
-0.451355	
-0.448425	
-0.444458	
-0.440735	
-0.43573	
-0.429871	
-0.427002	
-0.423706	
-0.4198	
-0.414368	
-0.410278	
-0.405579	
-0.401917	
-0.3974	
-0.391418	
-0.386597	
-0.380859	
-0.37738	
-0.374023	
-0.370239	
-0.366211	
-0.362976	
-0.359009	
-0.356812	
-0.35437	
-0.350769	
-0.34845	
-0.345642	
-0.344604	
-0.34436	
-0.344666	
-0.343628	
-0.342773	
-0.343262	
-0.345093	
-0.345032	
-0.344543	
-0.342834	
-0.34491	
-0.34613	
-0.347473	
-0.348145	
-0.348755	
-0.349976	
-0.351196	
-0.352539	
-0.352478	
-0.353088	
-0.353577	
-0.353516	
-0.355896	
-0.357056	
-0.357544	
-0.358398	
-0.359009	
-0.360107	
-0.360291	
-0.360291	
-0.359802	
-0.360474	
-0.36084	
-0.361023	
-0.360718	
-0.360535	
-0.360596	
-0.361145	
-0.362305	
-0.362	
-0.36145	
-0.360779	
-0.360718	
-0.362305	
-0.363586	
-0.363647	
-0.36377	
-0.364319	
-0.365906	
-0.365173	
-0.365234	
-0.365051	
-0.366028	
-0.366272	
-0.366882	
-0.367065	
-0.367432	
-0.367798	
-0.368713	
-0.369141	
-0.369202	
-0.367493	
-0.368958	
-0.369507	
-0.370117	
-0.371094	
-0.370667	
-0.371704	
-0.371582	
-0.374268	
-0.373718	
-0.373047	
-0.37323	
-0.374451	
-0.375183	
-0.376221	
-0.375793	
-0.376465	
-0.377014	
-0.378296	
-0.377686	
-0.378052	
-0.377014	
-0.377808	
-0.377991	
-0.378906	
-0.379395	
-0.379272	
-0.379639	
-0.379333	
-0.381287	
-0.380554	
-0.379639	
-0.377991	
-0.379089	
-0.379395	
-0.379028	
-0.378723	
-0.377869	
-0.377258	
-0.377075	
-0.376221	
-0.375549	
-0.374023	
-0.375305	
-0.373718	
-0.374817	
-0.375366	
-0.37439	
-0.374634	
-0.373962	
-0.375793	
-0.375732	
-0.375061	
-0.373962	
-0.376038	
-0.376587	
-0.377502	
-0.378052	
-0.378235	
-0.378723	
-0.380737	
-0.379456	
-0.380188	
-0.379272	
-0.380127	
-0.379517	
-0.380798	
-0.381714	
-0.381958	
-0.381409	
-0.381348	
-0.382874	
-0.382141	
-0.382385	
-0.380493	
-0.382202	
-0.382507	
-0.382507	
-0.383301	
-0.38269	
-0.383057	
-0.382202	
-0.383667	
-0.383362	
-0.381836	
-0.382263	
-0.382446	
-0.382874	
-0.382996	
-0.383118	
-0.383362	
-0.383118	
-0.384827	
-0.384705	
-0.384155	
-0.382935	
-0.382813	
-0.382935	
-0.384155	
-0.384827	
-0.384216	
-0.384277	
-0.384705	
-0.385193	
-0.384399	
-0.385132	
-0.384155	
-0.384583	
-0.384399	
-0.385437	
-0.386292	
-0.385132	
-0.385254	
-0.385498	
-0.385071	
-0.385132	
-0.38446	
-0.383972	
-0.383606	
-0.384155	
-0.384827	
-0.384338	
-0.383911	
-0.383789	
-0.383057	
-0.383972	
-0.383728	
-0.383057	
-0.382935	
-0.383179	
-0.383545	
-0.383911	
-0.383789	
-0.383301	
-0.383545	
-0.383911	
-0.383789	
-0.383484	
-0.382263	
-0.382568	
-0.381531	
-0.382507	
-0.382629	
-0.382385	
-0.382385	
-0.382629	
-0.383118	
-0.383057	
-0.381714	
-0.381165	
-0.380188	
-0.380676	
-0.381348	
-0.381775	
-0.380737	
-0.380493	
-0.380737	
-0.38092	
-0.380432	
-0.379517	
-0.378784	
-0.378906	
-0.380554	
-0.380676	
-0.380798	
-0.380371	
-0.380859	
-0.380005	
-0.380798	
-0.381531	
-0.380066	
-0.38092	
-0.381714	
-0.382385	
-0.382568	
-0.383301	
-0.383545	
-0.384094	
-0.384277	
-0.384705	
-0.384155	
-0.383667	
-0.383301	
-0.382263	
-0.383728	
-0.384338	
-0.38385	
-0.384338	
-0.383911	
-0.38446	
-0.384216	
-0.382202	
-0.381592	
-0.382141	
-0.38269	
-0.383423	
-0.383301	
-0.382568	
-0.382996	
-0.383728	
-0.384033	
-0.384155	
-0.382935	
-0.383179	
-0.383789	
-0.384277	
-0.384277	
-0.383972	
-0.384399	
-0.38446	
-0.38501	
-0.385437	
-0.384277	
-0.383972	
-0.384155	
-0.383667	
-0.384766	
-0.385071	
-0.385132	
-0.385132	
-0.385315	
-0.385559	
-0.384705	
-0.384521	
-0.383728	
-0.383728	
-0.384888	
-0.385437	
-0.38446	
-0.384277	
-0.385193	
-0.385681	
-0.385498	
-0.385498	
-0.384705	
-0.384766	
-0.384583	
-0.384705	
-0.385071	
-0.384338	
-0.384583	
-0.383484	
-0.384888	
-0.385071	
-0.384155	
-0.383972	
-0.383789	
-0.38385	
-0.384888	
-0.384094	
-0.384399	
-0.38501	
-0.385559	
-0.38562	
-0.384949	
-0.385498	
-0.384888	
-0.385193	
-0.385803	
-0.387146	
-0.386719	
-0.386719	
-0.387146	
-0.387146	
-0.38739	
-0.387024	
-0.386658	
-0.386475	
-0.386475	
-0.386597	
-0.38739	
-0.386475	
-0.386353	
-0.385986	
-0.38739	
-0.38739	
-0.386292	
-0.386597	
-0.385681	
-0.38623	
-0.386963	
-0.387207	
-0.386963	
-0.387878	
-0.387756	
-0.388245	
-0.387512	
-0.387573	
-0.38739	
-0.387634	
-0.387329	
-0.388245	
-0.387573	
-0.387878	
-0.388428	
-0.388123	
-0.38916	
-0.388245	
-0.388123	
-0.386536	
-0.387878	
-0.388123	
-0.38855	
-0.387817	
-0.388367	
-0.388367	
-0.388611	
-0.389465	
-0.388855	
-0.388611	
-0.388	
-0.389038	
-0.389343	
-0.390137	
-0.38916	
-0.390015	
-0.389099	
-0.390137	
-0.389709	
-0.389954	
-0.389404	
-0.389709	
-0.389282	
-0.390259	
-0.390869	
-0.39032	
-0.390686	
-0.389587	
-0.391785	
-0.390503	
-0.389648	
-0.388611	
-0.389282	
-0.388977	
-0.388733	
-0.389038	
-0.388855	
-0.388794	
-0.38739	
-0.388672	
-0.388123	
-0.387573	
-0.385864	
-0.386047	
-0.386719	
-0.387085	
-0.386658	
-0.386292	
-0.385498	
-0.385986	
-0.385437	
-0.384644	
-0.384644	
-0.384399	
-0.383972	
-0.384888	
-0.384583	
-0.384216	
-0.384155	
-0.383972	
-0.385498	
-0.384399	
-0.384583	
-0.384216	
-0.384644	
-0.384949	
-0.384827	
-0.385742	
-0.385498	
-0.38623	
-0.385315	
-0.38678	
-0.38678	
-0.386475	
-0.385681	
-0.387085	
-0.387756	
-0.387817	
-0.388245	
-0.388	
-0.388184	
-0.386963	
-0.388184	
-0.386841	
-0.387634	
-0.386475	
-0.38678	
-0.387817	
-0.388123	
-0.387817	
-0.387512	
-0.387085	
-0.388245	
-0.387146	
-0.386963	
-0.386536	
-0.38678	
-0.387695	
-0.387451	
-0.388062	
-0.38739	
-0.387939	
-0.387329	
-0.387939	
-0.387573	
-0.387634	
-0.386719	
-0.387634	
-0.387573	
-0.387817	
-0.388794	
-0.388245	
-0.388245	
-0.387573	
-0.388794	
-0.388123	
-0.387939	
-0.387146	
-0.387329	
-0.388245	
-0.388245	
-0.388367	
-0.388062	
-0.387573	
-0.387207	
-0.388306	
-0.388123	
-0.38739	
-0.38678	
-0.386841	
-0.387329	
-0.387939	
-0.388184	
-0.388733	
-0.388	
-0.388733	
-0.388184	
-0.387451	
-0.387451	
-0.387329	
-0.38739	
-0.387207	
-0.388123	
-0.387512	
-0.388489	
-0.387146	
-0.388733	
-0.387573	
-0.387634	
-0.386841	
-0.387939	
-0.388672	
-0.388672	
-0.389404	
-0.389404	
-0.388794	
-0.389099	
-0.390625	
-0.39032	
-0.390015	
-0.389099	
-0.390198	
-0.390076	
-0.390808	
-0.390747	
-0.391418	
-0.390503	
-0.390076	
-0.391907	
-0.391541	
-0.391296	
-0.39093	
-0.390869	
-0.391968	
-0.392395	
-0.392578	
-0.393738	
-0.392395	
-0.393005	
-0.392395	
-0.392822	
-0.392578	
-0.392517	
-0.393372	
-0.39325	
-0.394287	
-0.393982	
-0.393433	
-0.393677	
-0.394714	
-0.395081	
-0.394165	
-0.393799	
-0.394043	
-0.39447	
-0.394653	
-0.39563	
-0.394897	
-0.394592	
-0.394226	
-0.395508	
-0.39447	
-0.393799	
-0.392334	
-0.392395	
-0.393005	
-0.392395	
-0.392212	
-0.39209	
-0.391174	
-0.390137	
-0.390747	
-0.391602	
-0.389954	
-0.388367	
-0.389465	
-0.39093	
-0.390869	
-0.391296	
-0.391541	
-0.39093	
-0.391479	
-0.389771	
-0.391235	
-0.390808	
-0.391113	
-0.390198	
-0.391724	
-0.392639	
-0.392212	
-0.391785	
-0.391357	
-0.393005	
-0.391357	
-0.391235	
-0.390747	
-0.390991	
-0.390808	
-0.391052	
-0.391724	
-0.391418	
-0.39093	
-0.390686	
-0.392883	
-0.391174	
-0.391052	
-0.390015	
-0.391357	
-0.39093	
-0.391174	
-0.391357	
-0.391785	
-0.391113	
-0.390808	
-0.391663	
-0.391052	
-0.391357	
-0.388916	
-0.390808	
-0.391602	
-0.391663	
-0.391479	
-0.391724	
-0.391235	
-0.391907	
-0.391052	
-0.392029	
-0.391357	
-0.390015	
-0.391113	
-0.391479	
-0.392395	
-0.391907	
-0.391724	
-0.391541	
-0.392151	
-0.390686	
-0.392395	
-0.391663	
-0.391724	
-0.390686	
-0.391541	
-0.391418	
-0.391174	
-0.390625	
-0.390686	
-0.391479	
-0.390686	
-0.390564	
-0.389832	
-0.389771	
-0.389221	
-0.38916	
-0.389465	
-0.389832	
-0.389099	
-0.388245	
-0.390686	
-0.389343	
-0.389343	
-0.388123	
-0.389282	
-0.389282	
-0.389404	
-0.389526	
-0.389893	
-0.389282	
-0.389771	
-0.389343	
-0.389648	
-0.38916	
-0.388672	
-0.389771	
-0.389282	
-0.389465	
-0.388977	
-0.389771	
-0.38855	
-0.389099	
-0.388123	
-0.38916	
-0.388184	
-0.388489	
-0.388733	
-0.388672	
-0.389038	
-0.388794	
-0.388916	
-0.388367	
-0.390259	
-0.388062	
-0.389465	
-0.388428	
-0.388916	
-0.388428	
-0.388855	
-0.389221	
-0.389099	
-0.388733	
-0.387512	
-0.389282	
-0.38855	
-0.388123	
-0.386658	
-0.38739	
-0.386108	
-0.386902	
-0.387268	
-0.387451	
-0.386658	
-0.386475	
-0.386719	
-0.38678	
-0.386047	
-0.385193	
-0.386414	
-0.385254	
-0.38623	
-0.385925	
-0.386292	
-0.386169	
-0.386292	
-0.386047	
-0.38678	
-0.38678	
-0.385559	
-0.386658	
-0.386963	
-0.387695	
-0.388306	
-0.387817	
-0.387817	
-0.38916	
-0.388977	
-0.389038	
-0.388	
-0.38855	
-0.38916	
-0.389709	
-0.39093	
-0.390686	
-0.390137	
-0.390747	
-0.391357	
-0.391235	
-0.392212	
-0.39032	
-0.391663	
-0.391541	
-0.39209	
-0.3927	
-0.39325	
-0.39209	
-0.391235	
-0.391602	
-0.392456	
-0.393066	
-0.391785	
-0.392151	
-0.391541	
-0.392029	
-0.392212	
-0.391418	
-0.391479	
-0.390076	
-0.390869	
-0.390137	
-0.390259	
-0.389526	
-0.389282	
-0.387695	
-0.389038	
-0.389343	
-0.388733	
-0.388489	
-0.38916	
-0.389709	
-0.388916	
-0.388	
-0.388	
-0.389099	
-0.388794	
-0.389404	
-0.390076	
-0.389282	
-0.389648	
-0.390198	
-0.389038	
-0.389465	
-0.388611	
-0.389526	
-0.388611	
-0.389404	
-0.390076	
-0.390015	
-0.388916	
-0.389038	
-0.38916	
-0.38916	
-0.389648	
-0.38916	
-0.388977	
-0.38916	
-0.389343	
-0.390198	
-0.389526	
-0.389343	
-0.389343	
-0.389038	
-0.388672	
-0.389099	
-0.388977	
-0.389099	
-0.389099	
-0.389404	
-0.390015	
-0.389465	
-0.389526	
-0.389648	
-0.389282	
-0.389954	
-0.390198	
-0.389648	
-0.39032	
-0.389099	
-0.39032	
-0.390625	
-0.390198	
-0.390259	
-0.389771	
-0.390869	
-0.391052	
-0.39093	
-0.389465	
-0.390869	
-0.390259	
-0.391296	
-0.391663	
-0.390747	
-0.390747	
-0.390381	
-0.390503	
-0.390442	
-0.390015	
-0.390686	
-0.390137	
-0.389404	
-0.390015	
-0.389832	
-0.388977	
-0.389465	
-0.388611	
-0.388428	
-0.388306	
-0.388428	
-0.388489	
-0.38855	
-0.388062	
-0.388916	
-0.388794	
-0.388	
-0.388	
-0.388062	
-0.38739	
-0.386597	
-0.38623	
-0.386597	
-0.386658	
-0.386414	
-0.386902	
-0.387085	
-0.386353	
-0.38501	
-0.385193	
-0.385315	
-0.385254	
-0.383789	
-0.384949	
-0.385071	
-0.384705	
-0.384338	
-0.384521	
-0.384094	
-0.384033	
-0.383911	
-0.383911	
-0.384277	
-0.38385	
-0.384155	
-0.384155	
-0.384521	
-0.384521	
-0.384216	
-0.384583	
-0.384888	
-0.384644	
-0.384155	
-0.38501	
-0.385193	
-0.386108	
-0.385925	
-0.387634	
-0.387756	
-0.38678	
-0.386597	
-0.387146	
-0.386902	
-0.385803	
-0.38623	
-0.38678	
-0.38739	
-0.385986	
-0.387085	
-0.387817	
-0.386353	
-0.385986	
-0.385559	
-0.385864	
-0.385071	
-0.38446	
-0.385498	
-0.38562	
-0.385132	
-0.385376	
-0.38501	
-0.385437	
-0.385437	
-0.384583	
-0.385071	
-0.38562	
-0.385315	
-0.385559	
-0.385437	
-0.386902	
-0.385498	
-0.385986	
-0.386108	
-0.385559	
-0.38562	
-0.38501	
-0.385315	
-0.385254	
-0.385559	
-0.385559	
-0.386719	
-0.38623	
-0.385193	
-0.385498	
-0.385376	
-0.38501	
-0.385254	
-0.385864	
-0.385254	
-0.385132	
-0.384827	
-0.38562	
-0.385559	
-0.385681	
-0.384888	
-0.384766	
-0.385071	
-0.384338	
-0.385559	
-0.385315	
-0.38501	
-0.384338	
-0.384766	
-0.384277	
-0.384338	
-0.384705	
-0.384766	
-0.384216	
-0.383301	
-0.384155	
-0.383972	
-0.384338	
-0.384094	
-0.384888	
-0.384583	
-0.384888	
-0.385254	
-0.385315	
-0.385254	
-0.384521	
-0.384583	
-0.385986	
-0.386047	
-0.386353	
-0.386658	
-0.386047	
-0.385986	
-0.385864	
-0.386169	
-0.385376	
-0.385803	
-0.385315	
-0.385742	
-0.385193	
-0.38678	
-0.386719	
-0.385803	
-0.385681	
-0.385559	
-0.386353	
-0.385864	
-0.386658	
-0.386353	
-0.386475	
-0.386536	
-0.387451	
-0.387207	
-0.386963	
-0.386292	
-0.386597	
-0.387024	
-0.387085	
-0.387939	
-0.387634	
-0.387268	
-0.387695	
-0.387878	
-0.387451	
-0.387268	
-0.387756	
-0.388672	
-0.386841	
-0.387085	
-0.387634	
-0.387146	
-0.387146	
-0.387146	
-0.388367	
-0.388123	
-0.388245	
-0.388794	
-0.389404	
-0.388428	
-0.387695	
-0.38855	
-0.388916	
-0.388733	
-0.388306	
-0.389465	
-0.388977	
-0.388794	
-0.388367	
-0.389771	
-0.389038	
-0.389282	
-0.388489	
-0.389099	
-0.389709	
-0.390076	
-0.389709	
-0.38916	
-0.389221	
-0.388245	
-0.388672	
-0.388123	
-0.387878	
-0.387695	
-0.388	
-0.387573	
-0.387878	
-0.387024	
-0.386536	
-0.386047	
-0.386841	
-0.385925	
-0.385864	
-0.385498	
-0.385803	
-0.385254	
-0.38501	
-0.38501	
-0.384338	
-0.384399	
-0.383789	
-0.38501	
-0.38324	
-0.382935	
-0.383057	
-0.382935	
-0.382751	
-0.382629	
-0.384155	
-0.382813	
-0.383057	
-0.382751	
-0.383423	
-0.383423	
-0.382385	
-0.383972	
-0.383118	
-0.383423	
-0.383423	
-0.384338	
-0.383972	
-0.384094	
-0.383728	
-0.38501	
-0.385742	
-0.385437	
-0.38623	
-0.385864	
-0.386108	
-0.384949	
-0.385925	
-0.385803	
-0.38623	
-0.385742	
-0.385681	
-0.385071	
-0.385254	
-0.385437	
-0.385498	
-0.38562	
-0.38562	
-0.384705	
-0.385071	
-0.385498	
-0.385315	
-0.385071	
-0.384827	
-0.385193	
-0.384827	
-0.384766	
-0.384583	
-0.386536	
-0.384949	
-0.384766	
-0.385315	
-0.386292	
-0.385193	
-0.384155	
-0.384583	
-0.385315	
-0.385437	
-0.385132	
-0.386658	
-0.38501	
-0.38562	
-0.384033	
-0.386108	
-0.385376	
-0.385132	
-0.38501	
-0.385559	
-0.385559	
-0.385071	
-0.385864	
-0.385132	
-0.385254	
-0.384216	
-0.38501	
-0.384155	
-0.384644	
-0.385071	
-0.38501	
-0.384949	
-0.384521	
-0.385193	
-0.385254	
-0.385376	
-0.38446	
-0.384338	
-0.383667	
-0.384277	
-0.384277	
-0.38385	
-0.383972	
-0.384644	
-0.384155	
-0.384705	
-0.384277	
-0.385437	
-0.385132	
-0.385132	
-0.385742	
-0.385498	
-0.385498	
-0.385925	
-0.388184	
-0.386108	
-0.387207	
-0.386047	
-0.387817	
-0.38678	
-0.386963	
-0.386902	
-0.387329	
-0.387329	
-0.387573	
-0.388611	
-0.387817	
-0.388306	
-0.386108	
-0.389221	
-0.388245	
-0.388672	
-0.388611	
-0.388733	
-0.389099	
-0.389099	
-0.389526	
-0.390015	
-0.389099	
-0.389526	
-0.390747	
-0.388794	
-0.390808	
-0.390869	
-0.390808	
-0.390747	
-0.391418	
-0.391785	
-0.391235	
-0.390625	
-0.391174	
-0.391418	
-0.391296	
-0.391479	
-0.391296	
-0.391541	
-0.391235	
-0.391785	
-0.390991	
-0.392029	
-0.390381	
-0.391357	
-0.390625	
-0.390198	
-0.389771	
-0.38916	
-0.388428	
-0.388672	
-0.388489	
-0.388062	
-0.387939	
-0.386658	
-0.387878	
-0.387756	
-0.388245	
-0.387756	
-0.388062	
-0.388367	
-0.388306	
-0.389465	
-0.388	
-0.388672	
-0.386414	
-0.389282	
-0.388062	
-0.388977	
-0.389771	
-0.389038	
-0.389282	
-0.389343	
-0.389526	
-0.389465	
-0.388794	
-0.387695	
-0.389709	
-0.388245	
-0.389038	
-0.388672	
-0.388794	
-0.388855	
-0.388733	
-0.388916	
-0.388916	
-0.388367	
-0.389038	
-0.38916	
-0.389038	
-0.388733	
-0.388	
-0.389038	
-0.389038	
-0.389099	
-0.389038	
-0.389465	
-0.388794	
-0.389648	
-0.389709	
-0.389709	
-0.389893	
-0.388672	
-0.389648	
-0.390198	
-0.390137	
-0.390137	
-0.390991	
-0.388428	
-0.390137	
-0.390137	
-0.39093	
-0.390686	
-0.390686	
-0.390564	
-0.390381	
-0.390991	
-0.390564	
-0.391357	
-0.389832	
-0.390686	
-0.389832	
-0.390198	
-0.389893	
-0.390015	
-0.390198	
-0.390747	
-0.390381	
-0.389771	
-0.389587	
-0.388184	
-0.389587	
-0.388123	
-0.389099	
-0.388794	
-0.388367	
-0.388794	
-0.388794	
-0.388672	
-0.388733	
-0.388184	
-0.387329	
-0.388245	
-0.388428	
-0.389038	
-0.388062	
-0.388306	
-0.388672	
-0.388977	
-0.388733	
-0.389282	
-0.388367	
-0.38855	
-0.388306	
-0.388306	
-0.387878	
-0.388	
-0.387085	
-0.387634	
-0.387573	
-0.387268	
-0.388062	
-0.385681	
-0.387695	
-0.386597	
-0.387573	
-0.387146	
-0.387085	
-0.387512	
-0.387573	
-0.388245	
-0.387878	
-0.387573	
-0.387146	
-0.388306	
-0.386658	
-0.387573	
-0.387878	
-0.387268	
-0.387695	
-0.387695	
-0.387634	
-0.387268	
-0.386414	
-0.38501	
-0.386841	
-0.386353	
-0.385681	
-0.386597	
-0.385559	
-0.385742	
-0.387024	
-0.385864	
-0.385986	
-0.38385	
-0.38446	
-0.38562	
-0.384766	
-0.384949	
-0.384644	
-0.384583	
-0.385071	
-0.385071	
-0.385864	
-0.385803	
-0.383972	
-0.38562	
-0.385193	
-0.386475	
-0.386475	
-0.386597	
-0.386902	
-0.387146	
-0.387024	
-0.387878	
-0.387573	
-0.387268	
-0.387878	
-0.388123	
-0.388611	
-0.388855	
-0.389465	
-0.389465	
-0.390442	
-0.389526	
-0.39032	
-0.389832	
-0.389343	
-0.391113	
-0.390564	
-0.391174	
-0.391052	
-0.391663	
-0.391235	
-0.392456	
-0.390808	
-0.391785	
-0.391602	
-0.391602	
-0.391907	
-0.391235	
-0.391663	
-0.391235	
-0.390686	
-0.390808	
-0.391357	
-0.389771	
-0.390381	
-0.388855	
-0.388977	
-0.389404	
-0.388367	
-0.388611	
-0.388245	
-0.388062	
-0.38855	
-0.389465	
-0.388428	
-0.389526	
-0.386536	
-0.388672	
-0.388916	
-0.388794	
-0.388977	
-0.388123	
-0.389465	
-0.389465	
-0.389282	
-0.389404	
-0.390015	
-0.388794	
-0.389282	
-0.388977	
-0.389343	
-0.389038	
-0.390076	
-0.389343	
-0.389893	
-0.388733	
-0.389648	
-0.389404	
-0.389282	
-0.389587	
-0.389099	
-0.389343	
-0.389587	
-0.389954	
-0.389038	
-0.390137	
-0.388245	
-0.389221	
-0.38855	
-0.389099	
-0.389099	
-0.389587	
-0.389771	
-0.388916	
-0.389709	
-0.389709	
-0.391418	
-0.388855	
-0.390869	
-0.389099	
-0.389832	
-0.390503	
-0.389832	
-0.390259	
-0.390015	
-0.390686	
-0.390381	
-0.391052	
-0.390259	
-0.391724	
-0.389221	
-0.391907	
-0.390747	
-0.391235	
-0.391113	
-0.39032	
-0.390808	
-0.391052	
-0.390747	
-0.390625	
-0.390198	
-0.389099	
-0.389709	
-0.388733	
-0.389465	
-0.389038	
-0.388733	
-0.388855	
-0.389038	
-0.388245	
-0.388306	
-0.387878	
-0.387207	
-0.387756	
-0.387146	
-0.387512	
-0.388	
-0.387573	
-0.387146	
-0.388245	
-0.386719	
-0.386902	
-0.385681	
-0.386414	
-0.38623	
-0.385925	
-0.385986	
-0.385376	
-0.386841	
-0.38562	
-0.386597	
-0.384949	
-0.385986	
-0.383545	
-0.384705	
-0.385071	
-0.384216	
-0.384216	
-0.383728	
-0.384827	
-0.383972	
-0.384705	
-0.382996	
-0.383972	
-0.382813	
-0.383606	
-0.382874	
-0.383606	
-0.384155	
-0.383179	
-0.384583	
-0.384583	
-0.385132	
-0.383789	
-0.384155	
-0.383545	
-0.385315	
-0.385498	
-0.386108	
-0.385986	
-0.387085	
-0.387268	
-0.388	
-0.386963	
-0.386475	
-0.386536	
-0.387085	
-0.387512	
-0.387146	
-0.38678	
-0.387024	
-0.387329	
-0.386719	
-0.38678	
-0.386353	
-0.386902	
-0.385071	
-0.38623	
-0.386536	
-0.386169	
-0.385681	
-0.385437	
-0.386292	
	
