E:\DOCUMENTS AND SETTINGS\JPOTAS\MEUS DOCUMENTOS\UFRJ\RSCI-BM 12 WK SERIES\070719-RSCI-BM-02\RSCI-BM-02-REMG\070719-RSCI-BM-02-REMG-0012.ACQ
0.025000 msec/sample
1 channel
Analog input
Volts
CH1	
2000	
-0.399292	
-0.400757	
-0.400818	
-0.400452	
-0.400452	
-0.40094	
-0.400085	
-0.40155	
-0.399719	
-0.400513	
-0.399963	
-0.400208	
-0.400146	
-0.40033	
-0.400085	
-0.401062	
-0.400757	
-0.401123	
-0.400208	
-0.400574	
-0.401001	
-0.400818	
-0.400513	
-0.399414	
-0.400452	
-0.400757	
-0.401062	
-0.400452	
-0.401733	
-0.399353	
-0.40155	
-0.398071	
-0.400574	
-0.399902	
-0.400146	
-0.400391	
-0.401611	
-0.40033	
-0.400818	
-0.398499	
-0.40094	
-0.400452	
-0.400757	
-0.400696	
-0.401245	
-0.400879	
-0.401611	
-0.400818	
-0.400757	
-0.400513	
-0.40033	
-0.400757	
-0.399841	
-0.400085	
-0.400208	
-0.400696	
-0.400452	
-0.40094	
-0.400208	
-0.402161	
-0.399109	
-0.400696	
-0.398804	
-0.400513	
-0.399597	
-0.40033	
-0.400452	
-0.40155	
-0.400085	
-0.400452	
-0.399475	
-0.400452	
-0.399597	
-0.399902	
-0.399597	
-0.399963	
-0.399841	
-0.400208	
-0.399658	
-0.399353	
-0.400452	
-0.398865	
-0.399231	
-0.397766	
-0.398926	
-0.39801	
-0.398743	
-0.398682	
-0.399475	
-0.397827	
-0.398987	
-0.394653	
-0.397766	
-0.395996	
-0.396606	
-0.396179	
-0.396057	
-0.395569	
-0.396729	
-0.394958	
-0.39502	
-0.39447	
-0.395325	
-0.394958	
-0.395508	
-0.395386	
-0.396057	
-0.395935	
-0.396423	
-0.39679	
-0.396912	
-0.396545	
-0.396484	
-0.397461	
-0.396545	
-0.397644	
-0.397156	
-0.398621	
-0.399353	
-0.400452	
-0.399048	
-0.40094	
-0.39801	
-0.399353	
-0.3974	
-0.399414	
-0.39917	
-0.399231	
-0.399536	
-0.400391	
-0.399658	
-0.399841	
-0.398743	
-0.399475	
-0.398499	
-0.399109	
-0.398376	
-0.39856	
-0.398438	
-0.398743	
-0.398438	
-0.39856	
-0.398132	
-0.398376	
-0.398865	
-0.397949	
-0.397766	
-0.39679	
-0.397827	
-0.397522	
-0.399353	
-0.397461	
-0.398987	
-0.395447	
-0.397217	
-0.394348	
-0.396729	
-0.396179	
-0.395935	
-0.395874	
-0.396362	
-0.39624	
-0.396301	
-0.394592	
-0.395203	
-0.39447	
-0.394775	
-0.393921	
-0.39386	
-0.393738	
-0.393921	
-0.395081	
-0.394958	
-0.394226	
-0.393555	
-0.394836	
-0.394592	
-0.394714	
-0.393616	
-0.39447	
-0.394775	
-0.39624	
-0.394958	
-0.395569	
-0.394409	
-0.395447	
-0.394043	
-0.395081	
-0.394714	
-0.395325	
-0.395386	
-0.396057	
-0.395386	
-0.396362	
-0.394714	
-0.39502	
-0.394043	
-0.393188	
-0.392151	
-0.392273	
-0.392151	
-0.392578	
-0.393799	
-0.395142	
-0.395264	
-0.393738	
-0.395691	
-0.394958	
-0.394836	
-0.394165	
-0.394836	
-0.394958	
-0.395813	
-0.395203	
-0.396484	
-0.394836	
-0.39563	
-0.393677	
-0.395325	
-0.39502	
-0.395203	
-0.395081	
-0.395874	
-0.396301	
-0.396973	
-0.395569	
-0.395203	
-0.395264	
-0.39624	
-0.395752	
-0.396179	
-0.396301	
-0.395935	
-0.397217	
-0.39624	
-0.39563	
-0.39447	
-0.396179	
-0.395386	
-0.395447	
-0.394348	
-0.395142	
-0.395081	
-0.395691	
-0.395203	
-0.395813	
-0.394775	
-0.394775	
-0.393555	
-0.394348	
-0.393799	
-0.393799	
-0.39386	
-0.394165	
-0.394592	
-0.394714	
-0.393005	
-0.391296	
-0.391113	
-0.391663	
-0.391113	
-0.389832	
-0.390015	
-0.38916	
-0.389954	
-0.387634	
-0.386536	
-0.385498	
-0.385925	
-0.385071	
-0.384521	
-0.383118	
-0.383789	
-0.383911	
-0.383606	
-0.382935	
-0.383301	
-0.381409	
-0.382019	
-0.380798	
-0.381958	
-0.381836	
-0.38208	
-0.382751	
-0.384216	
-0.385193	
-0.386169	
-0.384949	
-0.385559	
-0.38501	
-0.386963	
-0.387878	
-0.389343	
-0.390076	
-0.391235	
-0.394287	
-0.394409	
-0.395325	
-0.395325	
-0.398254	
-0.399475	
-0.400513	
-0.400635	
-0.403259	
-0.404968	
-0.406555	
-0.408325	
-0.410583	
-0.411621	
-0.416199	
-0.419312	
-0.423767	
-0.427368	
-0.431824	
-0.43689	
-0.442139	
-0.445862	
-0.449402	
-0.452454	
-0.457581	
-0.460693	
-0.463928	
-0.466248	
-0.469543	
-0.47229	
-0.475952	
-0.477295	
-0.478882	
-0.479187	
-0.482666	
-0.484253	
-0.48584	
-0.487366	
-0.489563	
-0.491577	
-0.494141	
-0.494812	
-0.496765	
-0.496338	
-0.497986	
-0.497437	
-0.498596	
-0.49884	
-0.499329	
-0.498596	
-0.497986	
-0.497742	
-0.498108	
-0.495667	
-0.494751	
-0.492615	
-0.493591	
-0.492432	
-0.491333	
-0.48999	
-0.489075	
-0.488586	
-0.487854	
-0.484924	
-0.482422	
-0.480652	
-0.479797	
-0.477112	
-0.473511	
-0.471863	
-0.469482	
-0.467468	
-0.465271	
-0.461304	
-0.458557	
-0.456726	
-0.45343	
-0.450928	
-0.447693	
-0.445435	
-0.443298	
-0.442078	
-0.43988	
-0.437378	
-0.43512	
-0.435242	
-0.434143	
-0.433228	
-0.431824	
-0.431641	
-0.430847	
-0.430603	
-0.429382	
-0.428772	
-0.426086	
-0.424927	
-0.422668	
-0.422058	
-0.419739	
-0.417725	
-0.415833	
-0.41394	
-0.411621	
-0.409363	
-0.405273	
-0.402039	
-0.398499	
-0.39624	
-0.392578	
-0.389221	
-0.386536	
-0.383423	
-0.380432	
-0.37677	
-0.373474	
-0.369019	
-0.36792	
-0.364746	
-0.362183	
-0.35907	
-0.357117	
-0.354919	
-0.353577	
-0.351257	
-0.349365	
-0.34613	
-0.344666	
-0.342957	
-0.343018	
-0.341492	
-0.34137	
-0.34137	
-0.341614	
-0.343323	
-0.344727	
-0.344055	
-0.344971	
-0.345581	
-0.34845	
-0.348999	
-0.350403	
-0.35144	
-0.352722	
-0.354187	
-0.355713	
-0.354919	
-0.355469	
-0.355774	
-0.358215	
-0.359436	
-0.360352	
-0.361145	
-0.362671	
-0.364014	
-0.365112	
-0.364502	
-0.365662	
-0.365295	
-0.368225	
-0.369141	
-0.370422	
-0.371643	
-0.372925	
-0.374451	
-0.375977	
-0.375122	
-0.375244	
-0.375793	
-0.377625	
-0.378052	
-0.37854	
-0.379456	
-0.379639	
-0.380798	
-0.381897	
-0.380188	
-0.37915	
-0.379211	
-0.38092	
-0.380798	
-0.380981	
-0.381287	
-0.381287	
-0.382324	
-0.382019	
-0.380859	
-0.380371	
-0.380066	
-0.38092	
-0.380981	
-0.381348	
-0.382202	
-0.382141	
-0.38324	
-0.383972	
-0.382141	
-0.381897	
-0.381775	
-0.383423	
-0.383301	
-0.383179	
-0.383484	
-0.383301	
-0.384583	
-0.384644	
-0.382629	
-0.382446	
-0.381653	
-0.383057	
-0.382874	
-0.382568	
-0.382568	
-0.38269	
-0.383301	
-0.383606	
-0.382629	
-0.381958	
-0.381714	
-0.38324	
-0.38324	
-0.383301	
-0.384155	
-0.383728	
-0.384949	
-0.385071	
-0.38385	
-0.383362	
-0.384094	
-0.385376	
-0.385071	
-0.385559	
-0.385498	
-0.385681	
-0.387024	
-0.386536	
-0.385681	
-0.38562	
-0.386963	
-0.386719	
-0.386292	
-0.385681	
-0.387024	
-0.38678	
-0.387695	
-0.388367	
-0.388367	
-0.388062	
-0.38855	
-0.388489	
-0.388977	
-0.388672	
-0.389221	
-0.389282	
-0.38916	
-0.389832	
-0.389343	
-0.388367	
-0.38739	
-0.387451	
-0.387878	
-0.387634	
-0.387695	
-0.387878	
-0.388	
-0.388794	
-0.38855	
-0.387085	
-0.386475	
-0.386292	
-0.387573	
-0.387573	
-0.388	
-0.388245	
-0.38855	
-0.389709	
-0.389709	
-0.388794	
-0.388123	
-0.388855	
-0.388977	
-0.389465	
-0.389465	
-0.389465	
-0.389771	
-0.390808	
-0.39032	
-0.389771	
-0.389221	
-0.390686	
-0.39032	
-0.389954	
-0.389038	
-0.389709	
-0.389404	
-0.389221	
-0.389709	
-0.390137	
-0.38855	
-0.388977	
-0.386963	
-0.389404	
-0.389221	
-0.389648	
-0.39032	
-0.390808	
-0.391479	
-0.391418	
-0.389893	
-0.388977	
-0.389099	
-0.390076	
-0.389954	
-0.390198	
-0.390198	
-0.390198	
-0.391785	
-0.39093	
-0.390381	
-0.390137	
-0.391663	
-0.39093	
-0.391052	
-0.390503	
-0.391357	
-0.390747	
-0.391663	
-0.392273	
-0.392456	
-0.391479	
-0.391235	
-0.390381	
-0.391968	
-0.391724	
-0.392029	
-0.392517	
-0.392761	
-0.393555	
-0.394104	
-0.392822	
-0.391602	
-0.391846	
-0.392944	
-0.3927	
-0.393127	
-0.393066	
-0.393127	
-0.394287	
-0.393738	
-0.393005	
-0.39209	
-0.393188	
-0.392944	
-0.393188	
-0.393494	
-0.393738	
-0.393372	
-0.394104	
-0.394043	
-0.393982	
-0.393921	
-0.39502	
-0.394714	
-0.394775	
-0.393799	
-0.394897	
-0.395203	
-0.39563	
-0.396423	
-0.396057	
-0.395447	
-0.395386	
-0.394531	
-0.395691	
-0.395264	
-0.395691	
-0.39563	
-0.395935	
-0.396484	
-0.396667	
-0.395569	
-0.395935	
-0.395142	
-0.395813	
-0.396057	
-0.396179	
-0.396484	
-0.396301	
-0.397034	
-0.397644	
-0.396423	
-0.395691	
-0.395264	
-0.396606	
-0.396667	
-0.39679	
-0.39679	
-0.397278	
-0.397705	
-0.398254	
-0.396729	
-0.395935	
-0.394836	
-0.396912	
-0.396484	
-0.396973	
-0.397095	
-0.397156	
-0.397949	
-0.398743	
-0.397095	
-0.396851	
-0.396179	
-0.397461	
-0.397583	
-0.3974	
-0.398254	
-0.398071	
-0.398438	
-0.39856	
-0.398865	
-0.397339	
-0.3974	
-0.396545	
-0.397949	
-0.396912	
-0.397156	
-0.397461	
-0.397339	
-0.397461	
-0.398315	
-0.397278	
-0.397583	
-0.396362	
-0.3974	
-0.397034	
-0.397278	
-0.397156	
-0.3974	
-0.398193	
-0.398499	
-0.397278	
-0.396545	
-0.396362	
-0.397156	
-0.396912	
-0.397034	
-0.396912	
-0.396851	
-0.398254	
-0.397827	
-0.396545	
-0.395996	
-0.396118	
-0.396362	
-0.395813	
-0.396057	
-0.395996	
-0.395874	
-0.396057	
-0.396667	
-0.395996	
-0.394775	
-0.39447	
-0.39325	
-0.394592	
-0.393372	
-0.393738	
-0.393372	
-0.393677	
-0.39386	
-0.394409	
-0.392639	
-0.392578	
-0.391296	
-0.392761	
-0.39325	
-0.393127	
-0.393799	
-0.394348	
-0.395142	
-0.394836	
-0.394165	
-0.393188	
-0.393616	
-0.39447	
-0.39502	
-0.39502	
-0.395874	
-0.396423	
-0.397217	
-0.397766	
-0.396912	
-0.396912	
-0.397888	
-0.397827	
-0.397644	
-0.396545	
-0.397827	
-0.397522	
-0.398071	
-0.39856	
-0.397766	
-0.397461	
-0.396362	
-0.397034	
-0.397522	
-0.3974	
-0.3974	
-0.3974	
-0.397339	
-0.398193	
-0.398132	
-0.396912	
-0.395996	
-0.395386	
-0.396545	
-0.396301	
-0.396301	
-0.396301	
-0.396484	
-0.397949	
-0.397644	
-0.396057	
-0.394531	
-0.39447	
-0.395752	
-0.395447	
-0.393921	
-0.395203	
-0.395081	
-0.395691	
-0.395752	
-0.394348	
-0.392395	
-0.392822	
-0.394104	
-0.39386	
-0.39325	
-0.392761	
-0.393005	
-0.393005	
-0.39325	
-0.392883	
-0.392639	
-0.392883	
-0.393616	
-0.393127	
-0.393066	
-0.393188	
-0.393616	
-0.393921	
-0.394226	
-0.393982	
-0.393005	
-0.393616	
-0.393372	
-0.39386	
-0.394104	
-0.393738	
-0.394348	
-0.394775	
-0.396179	
-0.395447	
-0.394226	
-0.392212	
-0.39502	
-0.394531	
-0.394836	
-0.393677	
-0.394531	
-0.394714	
-0.396118	
-0.394836	
-0.394104	
-0.393005	
-0.394897	
-0.394775	
-0.39447	
-0.394104	
-0.39386	
-0.393738	
-0.395142	
-0.394958	
-0.39386	
-0.393494	
-0.393066	
-0.394531	
-0.39447	
-0.394348	
-0.394714	
-0.394897	
-0.395569	
-0.395569	
-0.395508	
-0.394287	
-0.393738	
-0.394958	
-0.395203	
-0.395081	
-0.394409	
-0.395264	
-0.395691	
-0.396484	
-0.395264	
-0.394775	
-0.393738	
-0.394958	
-0.394592	
-0.394165	
-0.393982	
-0.394409	
-0.394592	
-0.395142	
-0.394104	
-0.393677	
-0.392944	
-0.393616	
-0.393555	
-0.393616	
-0.392761	
-0.393188	
-0.393127	
-0.394226	
-0.393372	
-0.39447	
-0.393311	
-0.394043	
-0.395142	
-0.394958	
-0.394897	
-0.394714	
-0.395447	
-0.396667	
-0.395813	
-0.396423	
-0.393433	
-0.394348	
-0.394226	
-0.394836	
-0.394653	
-0.395264	
-0.395447	
-0.396057	
-0.397156	
-0.396057	
-0.395142	
-0.39386	
-0.396118	
-0.396179	
-0.395569	
-0.395264	
-0.395081	
-0.395447	
-0.396301	
-0.395325	
-0.395081	
-0.394714	
-0.395447	
-0.395996	
-0.395325	
-0.395264	
-0.394592	
-0.395447	
-0.395691	
-0.394897	
-0.395447	
-0.394348	
-0.39447	
-0.393372	
-0.394348	
-0.39447	
-0.394043	
-0.39447	
-0.395142	
-0.395569	
-0.394531	
-0.393127	
-0.392761	
-0.393921	
-0.395203	
-0.394104	
-0.393982	
-0.392944	
-0.394775	
-0.395386	
-0.394226	
-0.393372	
-0.392822	
-0.393616	
-0.393982	
-0.39386	
-0.393799	
-0.393616	
-0.393982	
-0.394592	
-0.39386	
-0.393311	
-0.393616	
-0.394043	
-0.394287	
-0.393616	
-0.393433	
-0.393433	
-0.393494	
-0.394104	
-0.393738	
-0.393066	
-0.392639	
-0.392151	
-0.392944	
-0.394165	
-0.393127	
-0.392639	
-0.392517	
-0.394348	
-0.39386	
-0.39325	
-0.391846	
-0.391602	
-0.392029	
-0.392761	
-0.392456	
-0.392273	
-0.392212	
-0.393372	
-0.393799	
-0.393494	
-0.391785	
-0.391479	
-0.391724	
-0.392456	
-0.393372	
-0.392395	
-0.392578	
-0.392151	
-0.392761	
-0.393311	
-0.3927	
-0.392151	
-0.392029	
-0.392822	
-0.39325	
-0.392761	
-0.392761	
-0.392517	
-0.392944	
-0.393066	
-0.392273	
-0.391846	
-0.391785	
-0.392151	
-0.392639	
-0.393372	
-0.392761	
-0.392517	
-0.392273	
-0.393127	
-0.392883	
-0.391846	
-0.392578	
-0.392761	
-0.393066	
-0.3927	
-0.392151	
-0.392883	
-0.393433	
-0.393066	
-0.394104	
-0.391663	
-0.391296	
-0.39032	
-0.392761	
-0.392395	
-0.392578	
-0.392517	
-0.392761	
-0.393127	
-0.393677	
-0.392517	
-0.392761	
-0.391968	
-0.393127	
-0.393066	
-0.394165	
-0.393311	
-0.393738	
-0.392517	
-0.39386	
-0.393616	
-0.393372	
-0.393311	
-0.394348	
-0.394104	
-0.394836	
-0.39502	
-0.395325	
-0.396179	
-0.396362	
-0.397034	
-0.39502	
-0.395325	
-0.395508	
-0.396667	
-0.397095	
-0.397461	
-0.397644	
-0.397644	
-0.398254	
-0.39801	
-0.396362	
-0.396179	
-0.395813	
-0.396362	
-0.396423	
-0.396851	
-0.39624	
-0.396484	
-0.395447	
-0.396545	
-0.395691	
-0.394653	
-0.394531	
-0.39447	
-0.394226	
-0.394348	
-0.39386	
-0.394104	
-0.39447	
-0.394043	
-0.39502	
-0.392212	
-0.392761	
-0.391113	
-0.393372	
-0.393494	
-0.393433	
-0.393738	
-0.393616	
-0.394836	
-0.394897	
-0.394104	
-0.39386	
-0.39386	
-0.394348	
-0.394348	
-0.395081	
-0.394592	
-0.394592	
-0.394226	
-0.395813	
-0.395325	
-0.394897	
-0.39502	
-0.395569	
-0.395569	
-0.395508	
-0.395447	
-0.396057	
-0.396973	
-0.397156	
-0.397766	
-0.396179	
-0.396423	
-0.396301	
-0.397766	
-0.397766	
-0.39801	
-0.398071	
-0.398193	
-0.39978	
-0.400269	
-0.39856	
-0.398132	
-0.398132	
-0.399353	
-0.399597	
-0.400391	
-0.399231	
-0.399048	
-0.398621	
-0.399109	
-0.398743	
-0.398315	
-0.398254	
-0.398865	
-0.398743	
-0.398865	
-0.398499	
-0.398254	
-0.39856	
-0.398315	
-0.398438	
-0.395935	
-0.396912	
-0.395874	
-0.397522	
-0.397766	
-0.398499	
-0.397522	
-0.397827	
-0.397095	
-0.398376	
-0.396851	
-0.39679	
-0.396423	
-0.397644	
-0.397278	
-0.397644	
-0.397644	
-0.397461	
-0.397766	
-0.398071	
-0.397644	
-0.397766	
-0.3974	
-0.397766	
-0.397766	
-0.398132	
-0.398621	
-0.397766	
-0.398315	
-0.396912	
-0.39801	
-0.396301	
-0.39679	
-0.39679	
-0.397034	
-0.397156	
-0.397278	
-0.39679	
-0.397156	
-0.396729	
-0.397644	
-0.395447	
-0.395081	
-0.394714	
-0.395996	
-0.396606	
-0.396667	
-0.396912	
-0.3974	
-0.397583	
-0.398071	
-0.3974	
-0.397583	
-0.397522	
-0.397949	
-0.398071	
-0.39856	
-0.398926	
-0.398254	
-0.399353	
-0.39801	
-0.399292	
-0.39801	
-0.398438	
-0.396973	
-0.398193	
-0.397583	
-0.39801	
-0.397217	
-0.397705	
-0.396423	
-0.3974	
-0.395447	
-0.395386	
-0.395508	
-0.395691	
-0.395874	
-0.396667	
-0.396301	
-0.396729	
-0.396606	
-0.39679	
-0.395996	
-0.395142	
-0.395142	
-0.395386	
-0.395142	
-0.395203	
-0.396362	
-0.395813	
-0.395996	
-0.394592	
-0.397278	
-0.39563	
-0.395874	
-0.394043	
-0.395996	
-0.395752	
-0.396545	
-0.395996	
-0.39679	
-0.395935	
-0.396667	
-0.394714	
-0.395569	
-0.395935	
-0.396179	
-0.395935	
-0.396484	
-0.395935	
-0.396729	
-0.397034	
-0.39679	
-0.397156	
-0.395813	
-0.396667	
-0.396301	
-0.39679	
-0.396912	
-0.397461	
-0.396484	
-0.397034	
-0.395508	
-0.397827	
-0.397156	
-0.397156	
-0.39563	
-0.39679	
-0.397278	
-0.398132	
-0.3974	
-0.398132	
-0.396729	
-0.397461	
-0.396301	
-0.396606	
-0.397278	
-0.397766	
-0.397705	
-0.398193	
-0.397949	
-0.398254	
-0.398193	
-0.398376	
-0.397644	
-0.397156	
-0.3974	
-0.398376	
-0.398376	
-0.398254	
-0.398621	
-0.398071	
-0.397827	
-0.397339	
-0.399353	
-0.397827	
-0.398254	
-0.396362	
-0.398132	
-0.398438	
-0.398804	
-0.398132	
-0.398682	
-0.398682	
-0.398499	
-0.3974	
-0.3974	
-0.398254	
-0.398315	
-0.398254	
-0.398682	
-0.398438	
-0.398865	
-0.398438	
-0.398499	
-0.398621	
-0.398193	
-0.39801	
-0.398438	
-0.398438	
-0.398743	
-0.398865	
-0.398376	
-0.397827	
-0.397156	
-0.399658	
-0.397888	
-0.397766	
-0.39679	
-0.398499	
-0.398743	
-0.39917	
-0.398743	
-0.399109	
-0.398987	
-0.399414	
-0.396851	
-0.397278	
-0.397644	
-0.39801	
-0.398132	
-0.398376	
-0.39801	
-0.398438	
-0.398438	
-0.398254	
-0.3974	
-0.397827	
-0.398071	
-0.398315	
-0.398132	
-0.398132	
-0.398987	
-0.398438	
-0.397949	
-0.396912	
-0.398743	
-0.397522	
-0.397156	
-0.396057	
-0.397949	
-0.3974	
-0.397705	
-0.397461	
-0.397766	
-0.397888	
-0.398254	
-0.395691	
-0.395569	
-0.395569	
-0.396179	
-0.396362	
-0.396301	
-0.396057	
-0.396484	
-0.395203	
-0.394775	
-0.393921	
-0.393921	
-0.393738	
-0.394165	
-0.39386	
-0.393616	
-0.393921	
-0.393005	
-0.392822	
-0.39209	
-0.393311	
-0.391968	
-0.392334	
-0.391418	
-0.393005	
-0.393311	
-0.393188	
-0.393616	
-0.393433	
-0.393494	
-0.394348	
-0.39325	
-0.392761	
-0.393494	
-0.394714	
-0.394958	
-0.395508	
-0.396851	
-0.39679	
-0.39679	
-0.396118	
-0.396301	
-0.395996	
-0.396301	
-0.395569	
-0.396484	
-0.396301	
-0.39679	
-0.397156	
-0.396912	
-0.39679	
-0.397278	
-0.396118	
-0.396179	
-0.394653	
-0.396179	
-0.395935	
-0.396179	
-0.395935	
-0.395508	
-0.396179	
-0.395935	
-0.395691	
-0.395508	
-0.394958	
-0.395325	
-0.39502	
-0.395081	
-0.396179	
-0.394836	
-0.395386	
-0.393494	
-0.395264	
-0.39325	
-0.394104	
-0.392883	
-0.393982	
-0.393372	
-0.393982	
-0.39386	
-0.393982	
-0.392395	
-0.393494	
-0.392273	
-0.391968	
-0.391296	
-0.391418	
-0.391296	
-0.391541	
-0.392273	
-0.391724	
-0.391724	
-0.391418	
-0.391602	
-0.391846	
-0.391418	
-0.392273	
-0.392151	
-0.392395	
-0.392944	
-0.391968	
-0.392151	
-0.391418	
-0.39386	
-0.392395	
-0.392761	
-0.391113	
-0.392822	
-0.392761	
-0.39325	
-0.393799	
-0.393616	
-0.392883	
-0.392517	
-0.391907	
-0.392578	
-0.392029	
-0.392822	
-0.392578	
-0.392639	
-0.394531	
-0.393616	
-0.392517	
-0.391174	
-0.392822	
-0.3927	
-0.392456	
-0.391479	
-0.392212	
-0.392395	
-0.393188	
-0.392639	
-0.392151	
-0.391968	
-0.394165	
-0.392944	
-0.392395	
-0.390991	
-0.392883	
-0.393005	
-0.39325	
-0.393066	
-0.393188	
-0.392761	
-0.393616	
-0.393494	
-0.393372	
-0.393127	
-0.393433	
-0.393494	
-0.393494	
-0.394653	
-0.393677	
-0.393188	
-0.391541	
-0.39325	
-0.392639	
-0.392456	
-0.391602	
-0.392517	
-0.392883	
-0.393738	
-0.393066	
-0.391968	
-0.391174	
-0.392761	
-0.392029	
-0.391235	
-0.390015	
-0.391418	
-0.391663	
-0.392151	
-0.392517	
-0.392029	
-0.392212	
-0.393127	
-0.393311	
-0.393127	
-0.393188	
-0.393738	
-0.393738	
-0.393616	
-0.39447	
-0.39386	
-0.392883	
-0.393127	
-0.393127	
-0.393555	
-0.393188	
-0.393616	
-0.394226	
-0.39447	
-0.39563	
-0.39502	
-0.394226	
-0.393494	
-0.394653	
-0.393982	
-0.393677	
-0.39209	
-0.393677	
-0.393494	
-0.394226	
-0.394653	
-0.393616	
-0.39325	
-0.39325	
-0.393616	
-0.39386	
-0.392395	
-0.393982	
-0.393188	
-0.393738	
-0.393616	
-0.393066	
-0.392517	
-0.392883	
-0.392944	
-0.392517	
-0.392273	
-0.392029	
-0.392395	
-0.3927	
-0.39325	
-0.393799	
-0.392517	
-0.392029	
-0.391479	
-0.391907	
-0.391907	
-0.391846	
-0.392273	
-0.392395	
-0.393127	
-0.392944	
-0.392029	
-0.391541	
-0.3927	
-0.391968	
-0.391785	
-0.390991	
-0.391968	
-0.392029	
-0.392639	
-0.392639	
-0.39209	
-0.391846	
-0.392029	
-0.392761	
-0.392212	
-0.391785	
-0.390808	
-0.391541	
-0.391724	
-0.392273	
-0.39325	
-0.391479	
-0.391296	
-0.390076	
-0.391418	
-0.391174	
-0.391174	
-0.391663	
-0.391785	
-0.392273	
-0.391907	
-0.391174	
-0.390442	
-0.391846	
-0.391541	
-0.391357	
-0.39032	
-0.391235	
-0.391418	
-0.391968	
-0.391663	
-0.391968	
-0.390503	
-0.391541	
-0.391235	
-0.391602	
-0.390625	
-0.390564	
-0.391541	
-0.392395	
-0.392151	
-0.392517	
-0.391663	
-0.391846	
-0.391052	
-0.391907	
-0.391724	
-0.391418	
-0.391235	
-0.391846	
-0.391296	
-0.392578	
-0.391357	
-0.391174	
-0.391174	
-0.391479	
-0.391174	
-0.391174	
-0.390686	
-0.391724	
-0.391418	
-0.392029	
-0.392517	
-0.391663	
-0.392273	
-0.392029	
-0.391541	
-0.391602	
-0.391541	
-0.391785	
-0.392517	
-0.391663	
-0.391968	
-0.390747	
-0.391907	
-0.391113	
-0.392151	
-0.391846	
-0.392029	
-0.391907	
-0.392822	
-0.392395	
-0.393066	
-0.392151	
-0.392029	
-0.391541	
-0.392822	
-0.39209	
-0.391968	
-0.392029	
-0.393005	
-0.393127	
-0.39386	
-0.393982	
-0.393555	
-0.394043	
-0.393188	
-0.394226	
-0.39447	
-0.394897	
-0.394836	
-0.396484	
-0.395691	
-0.396057	
-0.395142	
-0.39679	
-0.396362	
-0.396973	
-0.396545	
-0.396851	
-0.396179	
-0.396484	
-0.39624	
-0.396912	
-0.395935	
-0.395691	
-0.394714	
-0.396301	
-0.395508	
-0.395081	
-0.394958	
-0.395447	
-0.395752	
-0.394897	
-0.394897	
-0.393188	
-0.394226	
-0.393372	
-0.393372	
-0.392456	
-0.392395	
-0.393127	
-0.393982	
-0.393555	
-0.393372	
-0.392517	
-0.393311	
-0.393555	
-0.393372	
-0.393555	
-0.393738	
-0.393616	
-0.394226	
-0.39386	
-0.394592	
-0.393738	
-0.394165	
-0.393799	
-0.39447	
-0.39386	
-0.394165	
-0.394226	
-0.39502	
-0.395081	
-0.395325	
-0.395569	
-0.395081	
-0.395752	
-0.394531	
-0.395386	
-0.395203	
-0.395935	
-0.396545	
-0.397583	
-0.397156	
-0.397461	
-0.39679	
-0.397522	
-0.397278	
-0.398376	
-0.398254	
-0.398804	
-0.39917	
-0.39917	
-0.399475	
-0.399841	
-0.399292	
-0.399719	
-0.398499	
-0.40033	
-0.39917	
-0.399109	
-0.397766	
-0.398682	
-0.398865	
-0.398987	
-0.399475	
-0.399109	
-0.399109	
-0.398865	
-0.398071	
-0.397827	
-0.39801	
-0.398254	
-0.398804	
-0.397949	
-0.397888	
-0.397156	
-0.398132	
-0.397949	
-0.397522	
-0.397095	
-0.397827	
-0.397766	
-0.398376	
-0.397827	
-0.398682	
-0.398438	
-0.398376	
-0.3974	
-0.397766	
-0.397339	
-0.397583	
-0.396851	
-0.398376	
-0.397766	
-0.398193	
-0.398193	
-0.398315	
-0.398132	
-0.397949	
-0.397949	
-0.39801	
-0.397522	
-0.397766	
-0.398376	
-0.398071	
-0.398193	
-0.39679	
-0.398254	
-0.396545	
-0.397034	
-0.395935	
-0.39679	
-0.39679	
-0.397278	
-0.39679	
-0.397583	
-0.397278	
-0.396973	
-0.39624	
-0.397461	
-0.396667	
-0.397278	
-0.397156	
-0.397705	
-0.398132	
-0.397888	
-0.397644	
-0.397888	
-0.397827	
-0.398254	
-0.397888	
-0.398254	
-0.398376	
-0.398499	
-0.399353	
-0.398438	
-0.398804	
-0.398315	
-0.398621	
-0.397888	
-0.397217	
-0.39624	
-0.396667	
-0.395325	
-0.396851	
-0.39624	
-0.397034	
-0.396667	
-0.396545	
-0.396057	
-0.397034	
-0.397034	
-0.397095	
-0.396729	
-0.39679	
-0.396973	
-0.396484	
-0.395996	
-0.395203	
-0.396118	
-0.39563	
-0.395935	
-0.395691	
-0.396057	
-0.396179	
-0.396851	
-0.396667	
-0.396423	
-0.396362	
-0.397217	
-0.396301	
-0.396545	
-0.395874	
-0.396545	
-0.395813	
-0.397034	
-0.39679	
-0.39801	
-0.397156	
-0.396912	
-0.396057	
-0.397217	
-0.396912	
-0.39679	
-0.396912	
-0.397461	
-0.397888	
-0.398132	
-0.398071	
-0.397583	
-0.398315	
-0.397644	
-0.397949	
-0.396423	
-0.397461	
-0.396667	
-0.398376	
-0.397827	
-0.398193	
-0.398132	
-0.398315	
-0.397827	
-0.397583	
-0.397522	
-0.397888	
-0.397827	
-0.398376	
-0.398499	
-0.398865	
-0.398865	
-0.398682	
-0.397888	
-0.398865	
-0.398865	
-0.398804	
-0.398987	
-0.398987	
-0.399353	
-0.399414	
	
