E:\DOCUMENTS AND SETTINGS\JPOTAS\MEUS DOCUMENTOS\UFRJ\RSCI-BM 12 WK SERIES\070731-RSCI-BM-12\RSCI-BM-12-REMG\070731-RSCI-BM-12-REMG-0000.ACQ
0.025000 msec/sample
1 channel
Analog input
Volts
CH1	
2000	
-0.389099	
-0.388855	
-0.388977	
-0.388977	
-0.38916	
-0.390686	
-0.388855	
-0.388184	
-0.388245	
-0.38916	
-0.388733	
-0.388489	
-0.388367	
-0.387451	
-0.388489	
-0.388672	
-0.388489	
-0.389404	
-0.389465	
-0.390198	
-0.390015	
-0.389832	
-0.389832	
-0.390015	
-0.389587	
-0.390991	
-0.391602	
-0.390991	
-0.390259	
-0.392395	
-0.39209	
-0.393555	
-0.394409	
-0.394348	
-0.395081	
-0.394104	
-0.39386	
-0.394165	
-0.394836	
-0.394287	
-0.394958	
-0.393982	
-0.393799	
-0.394348	
-0.393921	
-0.39386	
-0.394226	
-0.39386	
-0.394897	
-0.393311	
-0.39325	
-0.39325	
-0.393127	
-0.393127	
-0.393921	
-0.393066	
-0.392395	
-0.389832	
-0.391846	
-0.3927	
-0.392273	
-0.391846	
-0.391785	
-0.392212	
-0.390442	
-0.390564	
-0.390198	
-0.389709	
-0.389282	
-0.389404	
-0.388794	
-0.388428	
-0.388062	
-0.387024	
-0.388	
-0.387756	
-0.387695	
-0.38855	
-0.387146	
-0.386475	
-0.386719	
-0.387024	
-0.386597	
-0.386536	
-0.386108	
-0.386108	
-0.384705	
-0.385193	
-0.386658	
-0.386658	
-0.386414	
-0.386597	
-0.387451	
-0.387085	
-0.387207	
-0.38739	
-0.387146	
-0.387756	
-0.387451	
-0.388062	
-0.387085	
-0.387146	
-0.388306	
-0.388489	
-0.388672	
-0.388672	
-0.390076	
-0.388672	
-0.388794	
-0.388733	
-0.389221	
-0.389648	
-0.389221	
-0.388916	
-0.388428	
-0.388123	
-0.389221	
-0.388916	
-0.389343	
-0.389587	
-0.390808	
-0.389709	
-0.389709	
-0.389465	
-0.389343	
-0.390381	
-0.389465	
-0.389404	
-0.389221	
-0.387878	
-0.388123	
-0.388916	
-0.389526	
-0.389221	
-0.389465	
-0.38916	
-0.387695	
-0.388306	
-0.388367	
-0.387573	
-0.389099	
-0.388672	
-0.388794	
-0.388489	
-0.387634	
-0.389587	
-0.389709	
-0.390442	
-0.390686	
-0.391968	
-0.390503	
-0.391174	
-0.390747	
-0.391785	
-0.392822	
-0.391724	
-0.391907	
-0.391418	
-0.391418	
-0.392029	
-0.39209	
-0.39209	
-0.392334	
-0.393188	
-0.392822	
-0.392456	
-0.392822	
-0.393066	
-0.392578	
-0.393494	
-0.393555	
-0.393127	
-0.391541	
-0.39093	
-0.39325	
-0.393066	
-0.393066	
-0.393616	
-0.39447	
-0.393372	
-0.393188	
-0.393494	
-0.393616	
-0.395386	
-0.394043	
-0.393311	
-0.39325	
-0.392822	
-0.393311	
-0.393311	
-0.393005	
-0.392639	
-0.39386	
-0.392883	
-0.392578	
-0.392029	
-0.391907	
-0.391663	
-0.384827	
-0.383789	
-0.383667	
-0.382263	
-0.382324	
-0.384399	
-0.390259	
-0.390869	
-0.391174	
-0.391052	
-0.389587	
-0.388977	
-0.388733	
-0.388916	
-0.388977	
-0.388	
-0.387756	
-0.386963	
-0.385559	
-0.387756	
-0.387451	
-0.387878	
-0.387573	
-0.388428	
-0.387512	
-0.387634	
-0.387512	
-0.387024	
-0.389709	
-0.388184	
-0.388184	
-0.388184	
-0.386292	
-0.388184	
-0.388367	
-0.388489	
-0.388306	
-0.388489	
-0.388611	
-0.387817	
-0.388428	
-0.388245	
-0.388855	
-0.388733	
-0.388123	
-0.388611	
-0.387817	
-0.386841	
-0.388733	
-0.388489	
-0.388672	
-0.389404	
-0.389832	
-0.388672	
-0.388672	
-0.388428	
-0.389526	
-0.390869	
-0.389465	
-0.388916	
-0.389465	
-0.388611	
-0.390381	
-0.390137	
-0.390503	
-0.390503	
-0.390503	
-0.390259	
-0.391235	
-0.390686	
-0.390442	
-0.391602	
-0.391235	
-0.391479	
-0.39209	
-0.390259	
-0.391296	
-0.391541	
-0.391724	
-0.391418	
-0.391357	
-0.391663	
-0.390808	
-0.390869	
-0.39093	
-0.392029	
-0.39325	
-0.392456	
-0.3927	
-0.392822	
-0.393005	
-0.395386	
-0.396362	
-0.397217	
-0.399353	
-0.400024	
-0.40033	
-0.401428	
-0.402161	
-0.404724	
-0.40686	
-0.407043	
-0.408203	
-0.409485	
-0.41095	
-0.412903	
-0.414001	
-0.41571	
-0.41803	
-0.418701	
-0.418152	
-0.41864	
-0.418152	
-0.419373	
-0.420898	
-0.419434	
-0.419739	
-0.418152	
-0.417358	
-0.419312	
-0.418945	
-0.418762	
-0.418396	
-0.417114	
-0.416626	
-0.415771	
-0.415161	
-0.415405	
-0.416199	
-0.415955	
-0.417053	
-0.418579	
-0.420044	
-0.421326	
-0.422424	
-0.424194	
-0.424927	
-0.425049	
-0.426208	
-0.426758	
-0.428711	
-0.430847	
-0.430298	
-0.430298	
-0.430176	
-0.430969	
-0.432373	
-0.432129	
-0.432434	
-0.432617	
-0.432251	
-0.432434	
-0.432922	
-0.433411	
-0.435242	
-0.435913	
-0.435364	
-0.436646	
-0.437378	
-0.4375	
-0.438232	
-0.438599	
-0.438416	
-0.438599	
-0.438049	
-0.437988	
-0.437866	
-0.438171	
-0.439331	
-0.439026	
-0.439636	
-0.439819	
-0.440247	
-0.439941	
-0.439331	
-0.440308	
-0.440186	
-0.439697	
-0.438843	
-0.437988	
-0.436829	
-0.434937	
-0.434753	
-0.431641	
-0.431213	
-0.429138	
-0.427063	
-0.425232	
-0.42218	
-0.422058	
-0.419983	
-0.418823	
-0.416748	
-0.415344	
-0.411987	
-0.409912	
-0.408264	
-0.405334	
-0.405579	
-0.402283	
-0.400146	
-0.398438	
-0.395935	
-0.395508	
-0.393005	
-0.39209	
-0.390503	
-0.389832	
-0.387695	
-0.386719	
-0.384949	
-0.384949	
-0.384705	
-0.382385	
-0.381653	
-0.379944	
-0.379211	
-0.377747	
-0.37793	
-0.377258	
-0.377075	
-0.375916	
-0.375305	
-0.374451	
-0.373108	
-0.373657	
-0.373291	
-0.372375	
-0.371033	
-0.370117	
-0.369934	
-0.36908	
-0.369263	
-0.368469	
-0.368347	
-0.366699	
-0.365784	
-0.364197	
-0.362488	
-0.362671	
-0.361938	
-0.360535	
-0.359131	
-0.357483	
-0.35675	
-0.355164	
-0.355652	
-0.355347	
-0.354797	
-0.354736	
-0.353516	
-0.35376	
-0.352844	
-0.354126	
-0.355469	
-0.35498	
-0.355408	
-0.355652	
-0.357178	
-0.357117	
-0.358887	
-0.360291	
-0.361206	
-0.362854	
-0.362427	
-0.363281	
-0.363342	
-0.364868	
-0.36676	
-0.366455	
-0.367432	
-0.368225	
-0.367432	
-0.368713	
-0.369507	
-0.370056	
-0.369812	
-0.370544	
-0.370483	
-0.370667	
-0.371704	
-0.371094	
-0.372253	
-0.371399	
-0.370361	
-0.371033	
-0.371643	
-0.372192	
-0.372253	
-0.372559	
-0.372803	
-0.372375	
-0.372131	
-0.372009	
-0.372803	
-0.372864	
-0.373291	
-0.372253	
-0.372742	
-0.371399	
-0.371643	
-0.372314	
-0.373047	
-0.372742	
-0.373291	
-0.372437	
-0.372681	
-0.372742	
-0.372925	
-0.373718	
-0.374634	
-0.373291	
-0.374146	
-0.37323	
-0.373352	
-0.374146	
-0.374634	
-0.374207	
-0.374817	
-0.374451	
-0.374939	
-0.375671	
-0.375122	
-0.375732	
-0.375916	
-0.374817	
-0.37616	
-0.376404	
-0.375183	
-0.376953	
-0.37793	
-0.378052	
-0.378174	
-0.377686	
-0.377502	
-0.378479	
-0.378296	
-0.379395	
-0.379395	
-0.378906	
-0.380066	
-0.381165	
-0.381348	
-0.382996	
-0.383728	
-0.383606	
-0.384827	
-0.383484	
-0.383362	
-0.385071	
-0.384155	
-0.384521	
-0.385254	
-0.383972	
-0.384644	
-0.383667	
-0.383606	
-0.384949	
-0.38562	
-0.385254	
-0.385742	
-0.384949	
-0.384766	
-0.385132	
-0.384766	
-0.385254	
-0.385498	
-0.384216	
-0.384949	
-0.383972	
-0.384521	
-0.385376	
-0.385864	
-0.385498	
-0.386658	
-0.385498	
-0.38562	
-0.385986	
-0.385132	
-0.386169	
-0.386108	
-0.384766	
-0.384949	
-0.384644	
-0.385071	
-0.385864	
-0.386353	
-0.386169	
-0.386658	
-0.385559	
-0.38623	
-0.384338	
-0.385498	
-0.386169	
-0.386169	
-0.385742	
-0.385681	
-0.385071	
-0.386475	
-0.386841	
-0.387146	
-0.387268	
-0.387634	
-0.386963	
-0.387085	
-0.385742	
-0.386169	
-0.386047	
-0.385986	
-0.385193	
-0.385437	
-0.384827	
-0.386353	
-0.385925	
-0.386292	
-0.386963	
-0.387207	
-0.38678	
-0.386841	
-0.386414	
-0.386475	
-0.386658	
-0.386353	
-0.385559	
-0.386108	
-0.38501	
-0.385864	
-0.384766	
-0.386292	
-0.386597	
-0.385681	
-0.38623	
-0.385742	
-0.385803	
-0.385681	
-0.384521	
-0.384766	
-0.384583	
-0.38446	
-0.383789	
-0.384705	
-0.384033	
-0.385071	
-0.386475	
-0.385681	
-0.385864	
-0.385681	
-0.386414	
-0.386169	
-0.385681	
-0.386292	
-0.387268	
-0.386536	
-0.385559	
-0.386902	
-0.386841	
-0.387207	
-0.387817	
-0.388	
-0.388184	
-0.388184	
-0.388367	
-0.388062	
-0.388428	
-0.386963	
-0.388184	
-0.387512	
-0.386475	
-0.387268	
-0.38678	
-0.387024	
-0.387268	
-0.387268	
-0.386902	
-0.387451	
-0.38678	
-0.386353	
-0.386536	
-0.384521	
-0.385803	
-0.385498	
-0.385681	
-0.386353	
-0.385803	
-0.386353	
-0.386963	
-0.386597	
-0.386658	
-0.387939	
-0.388062	
-0.38739	
-0.388733	
-0.387512	
-0.388916	
-0.388672	
-0.388916	
-0.389832	
-0.389893	
-0.391052	
-0.391968	
-0.391418	
-0.391663	
-0.392761	
-0.392639	
-0.392517	
-0.393494	
-0.392517	
-0.392517	
-0.392578	
-0.392639	
-0.393005	
-0.392944	
-0.393127	
-0.393616	
-0.392944	
-0.3927	
-0.3927	
-0.392639	
-0.39209	
-0.392395	
-0.391479	
-0.391235	
-0.392029	
-0.391663	
-0.391541	
-0.390991	
-0.391602	
-0.391785	
-0.391113	
-0.391174	
-0.391418	
-0.391235	
-0.39032	
-0.389893	
-0.389465	
-0.387634	
-0.38916	
-0.388062	
-0.387695	
-0.387573	
-0.386475	
-0.387512	
-0.387512	
-0.386841	
-0.387146	
-0.388184	
-0.385315	
-0.386536	
-0.38678	
-0.384583	
-0.38623	
-0.38562	
-0.38446	
-0.385254	
-0.384705	
-0.385071	
-0.386169	
-0.385681	
-0.385925	
-0.386719	
-0.38562	
-0.38623	
-0.386841	
-0.384949	
-0.386353	
-0.386475	
-0.386719	
-0.387207	
-0.387146	
-0.387573	
-0.388489	
-0.387512	
-0.387878	
-0.389221	
-0.388184	
-0.388184	
-0.388306	
-0.387939	
-0.387756	
-0.389099	
-0.388306	
-0.388428	
-0.388611	
-0.388306	
-0.389832	
-0.389648	
-0.389648	
-0.389954	
-0.389771	
-0.389282	
-0.389771	
-0.389709	
-0.389038	
-0.389954	
-0.389648	
-0.38916	
-0.389404	
-0.388916	
-0.390076	
-0.389221	
-0.389099	
-0.389648	
-0.389709	
-0.388367	
-0.388794	
-0.38855	
-0.388062	
-0.388855	
-0.389282	
-0.388367	
-0.38916	
-0.388977	
-0.388611	
-0.389282	
-0.389221	
-0.390137	
-0.390564	
-0.390442	
-0.391113	
-0.390564	
-0.389526	
-0.391052	
-0.392273	
-0.390625	
-0.391174	
-0.391113	
-0.391174	
-0.391602	
-0.391541	
-0.392212	
-0.392822	
-0.391968	
-0.392212	
-0.392822	
-0.391113	
-0.391724	
-0.392334	
-0.391968	
-0.392578	
-0.393188	
-0.392822	
-0.39386	
-0.392883	
-0.392944	
-0.393799	
-0.392639	
-0.393005	
-0.393738	
-0.391907	
-0.392517	
-0.393555	
-0.393188	
-0.393372	
-0.394165	
-0.393616	
-0.393921	
-0.393616	
-0.39386	
-0.394104	
-0.393311	
-0.39325	
-0.394043	
-0.392456	
-0.392334	
-0.392334	
-0.392822	
-0.392212	
-0.391724	
-0.391663	
-0.391663	
-0.391479	
-0.39093	
-0.391174	
-0.390625	
-0.390686	
-0.389832	
-0.389404	
-0.387939	
-0.387329	
-0.388306	
-0.387451	
-0.387329	
-0.387329	
-0.387146	
-0.387024	
-0.386658	
-0.386841	
-0.387207	
-0.387512	
-0.386169	
-0.38623	
-0.385498	
-0.386536	
-0.386414	
-0.385986	
-0.387329	
-0.387512	
-0.387329	
-0.386292	
-0.387024	
-0.387024	
-0.387695	
-0.387146	
-0.387329	
-0.387817	
-0.386353	
-0.387329	
-0.387329	
-0.387695	
-0.387634	
-0.387451	
-0.387878	
-0.388184	
-0.387634	
-0.388245	
-0.388489	
-0.387512	
-0.388489	
-0.388489	
-0.388123	
-0.387939	
-0.387329	
-0.388733	
-0.388	
-0.388489	
-0.388794	
-0.389404	
-0.389038	
-0.389526	
-0.389954	
-0.389893	
-0.390869	
-0.390137	
-0.390747	
-0.389893	
-0.389404	
-0.39093	
-0.390747	
-0.391052	
-0.39093	
-0.391785	
-0.390625	
-0.391541	
-0.392029	
-0.391785	
-0.392212	
-0.391357	
-0.391907	
-0.389709	
-0.389954	
-0.390747	
-0.391113	
-0.390686	
-0.39093	
-0.391907	
-0.390625	
-0.391174	
-0.39093	
-0.392151	
-0.391357	
-0.39093	
-0.391174	
-0.391541	
-0.392029	
-0.392395	
-0.392334	
-0.390991	
-0.392334	
-0.392761	
-0.3927	
-0.392395	
-0.392761	
-0.393738	
-0.392273	
-0.393066	
-0.391785	
-0.392334	
-0.391907	
-0.391846	
-0.392029	
-0.391846	
-0.391602	
-0.391724	
-0.391968	
-0.390015	
-0.390625	
-0.390808	
-0.389893	
-0.390198	
-0.389893	
-0.390015	
-0.388672	
-0.388	
-0.389343	
-0.389587	
-0.38916	
-0.389587	
-0.39032	
-0.389099	
-0.390076	
-0.390259	
-0.390747	
-0.390259	
-0.390442	
-0.390076	
-0.389709	
-0.389221	
-0.390869	
-0.391296	
-0.389954	
-0.391174	
-0.391174	
-0.390686	
-0.390442	
-0.390503	
-0.391113	
-0.390625	
-0.390259	
-0.390137	
-0.391052	
-0.389282	
-0.389954	
-0.389709	
-0.389832	
-0.389221	
-0.388733	
-0.388672	
-0.387146	
-0.387512	
-0.387451	
-0.386658	
-0.386536	
-0.38623	
-0.385925	
-0.384521	
-0.385193	
-0.385193	
-0.385559	
-0.384583	
-0.385132	
-0.385681	
-0.384888	
-0.384399	
-0.384888	
-0.385986	
-0.384705	
-0.384766	
-0.384949	
-0.384949	
-0.384766	
-0.385803	
-0.386475	
-0.384644	
-0.385681	
-0.386475	
-0.385925	
-0.385376	
-0.386353	
-0.386658	
-0.386536	
-0.386963	
-0.38678	
-0.387146	
-0.386536	
-0.387512	
-0.388245	
-0.38855	
-0.388916	
-0.389709	
-0.389465	
-0.388611	
-0.390137	
-0.390076	
-0.390808	
-0.390808	
-0.390991	
-0.391174	
-0.38916	
-0.391174	
-0.391602	
-0.392822	
-0.392029	
-0.392517	
-0.392334	
-0.392029	
-0.392517	
-0.392761	
-0.393127	
-0.392761	
-0.392822	
-0.392578	
-0.391724	
-0.39325	
-0.393311	
-0.393311	
-0.391296	
-0.392334	
-0.392456	
-0.392334	
-0.390808	
-0.391846	
-0.392212	
-0.391357	
-0.391174	
-0.390991	
-0.391113	
-0.390564	
-0.390686	
-0.390747	
-0.39093	
-0.390991	
-0.391174	
-0.390808	
-0.38916	
-0.390442	
-0.390198	
-0.390259	
-0.389587	
-0.390076	
-0.389954	
-0.388794	
-0.389465	
-0.389954	
-0.390137	
-0.389648	
-0.390564	
-0.390503	
-0.389587	
-0.390259	
-0.390198	
-0.391418	
-0.390381	
-0.39032	
-0.390442	
-0.389465	
-0.390381	
-0.390747	
-0.391357	
-0.390015	
-0.390564	
-0.390564	
-0.390503	
-0.389648	
-0.390015	
-0.391235	
-0.390198	
-0.390503	
-0.389771	
-0.389282	
-0.388672	
-0.388367	
-0.388489	
-0.388733	
-0.388	
-0.387878	
-0.387451	
-0.386475	
-0.386902	
-0.38739	
-0.387634	
-0.387451	
-0.386658	
-0.385986	
-0.386719	
-0.386536	
-0.386414	
-0.386536	
-0.385742	
-0.386719	
-0.385803	
-0.38562	
-0.385803	
-0.386108	
-0.38623	
-0.385681	
-0.385742	
-0.385498	
-0.384705	
-0.385254	
-0.385193	
-0.385864	
-0.385437	
-0.385681	
-0.384888	
-0.384888	
-0.384766	
-0.38501	
-0.386108	
-0.384766	
-0.384827	
-0.384888	
-0.384155	
-0.385376	
-0.385681	
-0.386169	
-0.386353	
-0.386353	
-0.386475	
-0.386414	
-0.385437	
-0.386963	
-0.387573	
-0.387085	
-0.387146	
-0.387207	
-0.386719	
-0.388428	
-0.388855	
-0.389282	
-0.390381	
-0.389709	
-0.391541	
-0.390747	
-0.390625	
-0.391357	
-0.392517	
-0.391357	
-0.391479	
-0.391724	
-0.392273	
-0.392883	
-0.391968	
-0.392029	
-0.39209	
-0.391602	
-0.392151	
-0.391235	
-0.391296	
-0.390442	
-0.391113	
-0.391479	
-0.391113	
-0.390747	
-0.390381	
-0.389343	
-0.390991	
-0.390503	
-0.390991	
-0.391357	
-0.389893	
-0.390808	
-0.390625	
-0.389526	
-0.390381	
-0.390625	
-0.390442	
-0.390137	
-0.390503	
-0.389099	
-0.390686	
-0.389526	
-0.390259	
-0.390991	
-0.389832	
-0.390808	
-0.390198	
-0.38916	
-0.390076	
-0.389954	
-0.389282	
-0.388733	
-0.388611	
-0.387939	
-0.388855	
-0.388672	
-0.38855	
-0.388916	
-0.388489	
-0.389221	
-0.388245	
-0.388	
-0.386597	
-0.387085	
-0.388	
-0.38678	
-0.386719	
-0.386414	
-0.384949	
-0.387085	
-0.387024	
-0.387573	
-0.387939	
-0.388123	
-0.387634	
-0.387024	
-0.386658	
-0.38739	
-0.388184	
-0.387329	
-0.387329	
-0.387207	
-0.38623	
-0.386963	
-0.386719	
-0.387085	
-0.386902	
-0.385803	
-0.386719	
-0.386414	
-0.386414	
-0.386108	
-0.385925	
-0.38678	
-0.385925	
-0.385803	
-0.385742	
-0.385559	
-0.385986	
-0.385986	
-0.386658	
-0.386047	
-0.387207	
-0.386414	
-0.386597	
-0.386292	
-0.386658	
-0.388367	
-0.388	
-0.388428	
-0.388	
-0.38739	
-0.38855	
-0.389221	
-0.389465	
-0.389832	
-0.389893	
-0.389282	
-0.389221	
-0.388367	
-0.388611	
-0.390564	
-0.389954	
-0.389099	
-0.389099	
-0.388733	
-0.387939	
-0.388733	
-0.389282	
-0.389893	
-0.388245	
-0.38855	
-0.388428	
-0.387817	
-0.388184	
-0.388489	
-0.388611	
-0.387756	
-0.387756	
-0.388184	
-0.387878	
-0.38855	
-0.388489	
-0.38855	
-0.38855	
-0.389404	
-0.388733	
-0.38916	
-0.388916	
-0.389893	
-0.390259	
-0.390259	
-0.390503	
-0.39032	
-0.390015	
-0.391663	
-0.392578	
-0.392883	
-0.394165	
-0.393311	
-0.393372	
-0.393372	
-0.392639	
-0.392761	
-0.394104	
-0.394531	
-0.393799	
-0.393433	
-0.393066	
-0.393494	
-0.393982	
-0.393799	
-0.394348	
-0.393311	
-0.39325	
-0.392883	
-0.392639	
-0.392883	
-0.393494	
-0.393188	
-0.3927	
-0.392029	
-0.391602	
-0.392639	
-0.391541	
-0.391602	
-0.391724	
-0.392395	
-0.391479	
-0.390625	
-0.390381	
-0.388977	
-0.39032	
-0.389709	
-0.389282	
-0.388428	
-0.388367	
-0.387939	
-0.386719	
-0.387695	
-0.387817	
-0.387939	
-0.386353	
-0.386719	
-0.386536	
-0.386353	
-0.386108	
-0.386475	
-0.387085	
-0.385742	
-0.385864	
-0.385132	
-0.38562	
-0.385803	
-0.386108	
-0.386108	
-0.386047	
-0.385803	
-0.385742	
-0.38623	
-0.38446	
-0.387146	
-0.386902	
-0.38678	
-0.386047	
-0.386047	
-0.388123	
-0.387085	
-0.387573	
-0.388245	
-0.389282	
-0.387512	
-0.387451	
-0.387634	
-0.387451	
-0.389221	
-0.388245	
-0.389038	
-0.388123	
-0.387634	
-0.388428	
-0.388062	
-0.388245	
-0.38855	
-0.38916	
-0.388672	
-0.389038	
-0.388855	
-0.388794	
-0.388794	
-0.389099	
-0.389465	
-0.389038	
-0.38855	
-0.388977	
-0.388184	
-0.388367	
-0.388794	
-0.388733	
-0.388733	
-0.388245	
-0.388855	
-0.387939	
-0.386108	
-0.388245	
-0.388245	
-0.388855	
-0.388184	
-0.387329	
-0.388062	
-0.387329	
-0.388916	
-0.388855	
-0.389343	
-0.389465	
-0.390259	
-0.389832	
-0.388977	
-0.391296	
-0.390747	
-0.391479	
-0.390808	
-0.390686	
-0.391907	
-0.391479	
-0.391479	
-0.391174	
-0.392029	
-0.392334	
-0.391846	
-0.391602	
-0.391113	
-0.391846	
-0.392029	
-0.392334	
-0.392578	
-0.392334	
-0.393127	
-0.392334	
-0.392151	
-0.392822	
-0.393555	
-0.393555	
-0.392517	
-0.39209	
-0.39209	
-0.392822	
-0.392822	
-0.392944	
-0.39386	
-0.393005	
-0.39325	
-0.393616	
-0.392639	
-0.392761	
-0.393066	
-0.3927	
-0.392151	
-0.392273	
-0.391846	
-0.391785	
-0.392151	
-0.391907	
-0.391479	
-0.391174	
-0.390747	
-0.391846	
-0.39093	
-0.39032	
-0.390747	
-0.390503	
-0.389893	
-0.389832	
-0.388916	
-0.387756	
-0.387878	
-0.388	
-0.387634	
-0.387756	
-0.386597	
-0.386841	
-0.387146	
-0.385803	
-0.38623	
-0.386597	
-0.385742	
-0.386292	
-0.386047	
-0.385925	
-0.387024	
-0.387085	
-0.386536	
-0.387207	
-0.386658	
-0.38678	
-0.387695	
-0.386963	
-0.38678	
-0.387756	
-0.387756	
-0.387085	
-0.386963	
-0.387146	
-0.387451	
-0.386536	
-0.386963	
-0.387756	
-0.388489	
-0.38678	
-0.387573	
-0.387878	
-0.38623	
-0.388428	
-0.387817	
-0.387329	
-0.387817	
-0.387695	
-0.388306	
-0.387512	
-0.387634	
-0.388	
-0.388977	
-0.387451	
-0.38916	
-0.389832	
-0.389099	
-0.390015	
-0.388977	
-0.389709	
-0.389526	
-0.389587	
-0.389404	
-0.39032	
-0.389893	
-0.390442	
-0.390686	
-0.390259	
-0.391296	
-0.391541	
-0.391418	
-0.39093	
-0.391357	
-0.391296	
-0.39032	
-0.390381	
-0.389221	
-0.39032	
-0.389648	
-0.390503	
-0.39032	
-0.390869	
-0.390076	
-0.390259	
-0.391052	
-0.39032	
-0.391479	
-0.390747	
-0.391357	
-0.39093	
-0.390747	
-0.391052	
-0.391479	
-0.390808	
-0.391235	
-0.392151	
-0.39032	
-0.391724	
-0.392456	
-0.392212	
-0.3927	
-0.391907	
-0.391602	
-0.391052	
-0.391541	
-0.391052	
-0.391785	
-0.389954	
-0.391113	
-0.390808	
-0.389648	
-0.390381	
-0.390564	
-0.390503	
-0.389343	
-0.389709	
-0.389343	
-0.38916	
-0.38916	
-0.387512	
-0.389526	
-0.388367	
-0.388367	
-0.388428	
-0.38916	
-0.388733	
-0.388794	
-0.389282	
-0.388306	
-0.390259	
-0.389099	
-0.388733	
-0.388733	
-0.388428	
-0.390137	
-0.38916	
-0.388611	
-0.389771	
-0.390259	
-0.38916	
-0.390381	
-0.389771	
-0.390564	
-0.390686	
-0.390198	
-0.389587	
-0.389526	
-0.389282	
-0.389221	
-0.389526	
-0.388855	
-0.38855	
-0.388428	
-0.387695	
-0.388184	
-0.388	
-0.388245	
-0.387146	
-0.38623	
-0.386047	
-0.385681	
-0.385193	
-0.385071	
-0.385437	
-0.384583	
-0.38324	
-0.384705	
-0.384705	
-0.384583	
-0.384033	
-0.384155	
-0.383362	
-0.383789	
-0.383545	
-0.384033	
-0.383789	
-0.383606	
-0.384338	
-0.384827	
-0.384583	
-0.384216	
-0.385681	
-0.384705	
-0.385376	
-0.385193	
-0.386475	
-0.385803	
-0.38562	
-0.385864	
-0.385559	
-0.384888	
-0.38623	
-0.386902	
-0.386841	
-0.386719	
-0.387573	
-0.387512	
-0.388062	
-0.388855	
-0.389099	
-0.39032	
-0.389404	
-0.389404	
-0.38916	
-0.388794	
-0.390564	
-0.390808	
-0.390259	
-0.389893	
-0.391174	
-0.391357	
-0.39093	
-0.391785	
-0.392029	
-0.392151	
-0.391418	
-0.391846	
-0.391785	
-0.392212	
-0.392212	
-0.391968	
-0.392456	
-0.391907	
-0.391968	
-0.392822	
-0.391052	
-0.391602	
-0.391296	
-0.391479	
-0.391113	
-0.390808	
-0.390869	
-0.390503	
-0.389282	
-0.390259	
-0.391052	
-0.390015	
-0.389038	
-0.389771	
-0.388977	
-0.389587	
-0.389832	
-0.389526	
-0.390076	
-0.389404	
-0.389038	
-0.388672	
-0.388123	
-0.388672	
-0.389038	
-0.388489	
-0.387939	
-0.389038	
-0.389526	
-0.38916	
-0.389099	
-0.389465	
-0.389648	
-0.389526	
-0.389221	
-0.389343	
-0.389465	
-0.388916	
-0.389465	
-0.389832	
-0.389038	
-0.39032	
-0.39093	
-0.389221	
-0.389832	
-0.389771	
-0.389771	
-0.39032	
-0.389221	
-0.388916	
-0.389099	
-0.388306	
-0.388855	
-0.38916	
-0.388	
-0.387756	
-0.387573	
-0.386719	
-0.387085	
-0.387268	
-0.38678	
-0.387573	
-0.386414	
-0.386536	
-0.386475	
-0.385559	
-0.38623	
-0.386353	
-0.385681	
-0.385254	
-0.38562	
-0.385681	
-0.385193	
-0.385193	
-0.38501	
-0.385071	
-0.385681	
-0.38501	
-0.384827	
-0.38446	
-0.383911	
-0.385315	
-0.385071	
-0.383972	
-0.385193	
-0.385803	
-0.384094	
-0.384583	
-0.384338	
-0.384094	
-0.385437	
-0.38385	
-0.384399	
-0.385132	
-0.384033	
-0.384827	
-0.385742	
-0.385071	
-0.385437	
-0.38623	
-0.384399	
-0.385925	
-0.386047	
-0.385681	
-0.387329	
-0.386536	
-0.386719	
-0.386536	
-0.385742	
-0.387329	
-0.388367	
-0.387756	
-0.388	
-0.389648	
-0.389404	
-0.389954	
-0.390503	
-0.390442	
-0.391113	
-0.39093	
-0.391113	
-0.390686	
-0.391296	
-0.390747	
-0.391785	
-0.391296	
-0.390442	
-0.390869	
-0.391296	
-0.391174	
-0.391052	
-0.390381	
-0.390015	
-0.391418	
-0.389893	
-0.389893	
-0.390747	
-0.389832	
-0.390259	
-0.390137	
-0.389832	
-0.389832	
-0.390991	
-0.389771	
-0.390503	
-0.390015	
-0.389587	
-0.391113	
-0.389832	
-0.389771	
-0.390015	
-0.389099	
-0.389832	
-0.389771	
-0.389587	
-0.388672	
-0.389648	
-0.388123	
-0.38916	
-0.389282	
-0.388977	
-0.389282	
-0.389282	
-0.388489	
-0.388611	
-0.388672	
-0.387268	
-0.388977	
-0.387573	
-0.387329	
-0.387756	
-0.387695	
-0.388245	
-0.388245	
-0.387512	
-0.386719	
-0.387268	
-0.386719	
-0.386597	
-0.386658	
-0.384949	
-0.387146	
-0.386169	
-0.386292	
-0.386536	
-0.387146	
-0.386902	
-0.386963	
-0.387085	
-0.386658	
-0.388123	
-0.387024	
-0.38623	
-0.386475	
-0.386047	
-0.387146	
-0.386536	
-0.38623	
-0.385132	
-0.386292	
-0.386414	
-0.386047	
-0.385681	
-0.385742	
-0.385803	
-0.386047	
-0.385498	
-0.385376	
-0.386108	
-0.384644	
-0.386353	
-0.385376	
-0.38501	
-0.386169	
-0.386108	
-0.386047	
-0.386047	
-0.386597	
-0.386414	
-0.387207	
-0.386841	
-0.387756	
-0.387878	
-0.386414	
-0.388916	
-0.387878	
-0.388306	
-0.388367	
-0.388428	
-0.38916	
-0.388977	
-0.388794	
-0.389038	
-0.389954	
-0.388977	
-0.38916	
-0.389099	
-0.387817	
-0.389099	
	
