E:\DOCUMENTS AND SETTINGS\JPOTAS\MEUS DOCUMENTOS\UFRJ\RSCI-BM 12 WK SERIES\070723-RSCI-BM-06\RSCI-BM-06-REMG\070723-RSCI-BM-REMG-0014.ACQ
0.025000 msec/sample
1 channel
Analog input
Volts
CH1	
2000	
-0.386841	
-0.386963	
-0.38678	
-0.388306	
-0.386353	
-0.38623	
-0.386536	
-0.387024	
-0.386841	
-0.385986	
-0.386658	
-0.387329	
-0.387878	
-0.386963	
-0.388062	
-0.387024	
-0.387268	
-0.386475	
-0.387634	
-0.387939	
-0.387939	
-0.388794	
-0.389709	
-0.390564	
-0.390076	
-0.390747	
-0.390503	
-0.391602	
-0.389404	
-0.391602	
-0.391846	
-0.392456	
-0.393311	
-0.393616	
-0.393982	
-0.393433	
-0.393066	
-0.393005	
-0.393982	
-0.391479	
-0.392334	
-0.392151	
-0.392395	
-0.391602	
-0.392151	
-0.391418	
-0.391846	
-0.390076	
-0.389648	
-0.391113	
-0.389893	
-0.390808	
-0.389526	
-0.390869	
-0.390808	
-0.391113	
-0.390442	
-0.390991	
-0.389282	
-0.389282	
-0.390076	
-0.38916	
-0.389893	
-0.389954	
-0.389954	
-0.389771	
-0.389832	
-0.389343	
-0.390076	
-0.388794	
-0.388916	
-0.388794	
-0.388611	
-0.388489	
-0.388977	
-0.388794	
-0.389282	
-0.388794	
-0.389038	
-0.389648	
-0.388672	
-0.389038	
-0.388184	
-0.388794	
-0.388977	
-0.38855	
-0.388733	
-0.389282	
-0.389893	
-0.389099	
-0.390259	
-0.389038	
-0.390137	
-0.38855	
-0.389648	
-0.389465	
-0.389709	
-0.389954	
-0.390381	
-0.390686	
-0.389893	
-0.390686	
-0.389954	
-0.390747	
-0.388794	
-0.389832	
-0.389221	
-0.390076	
-0.390259	
-0.390686	
-0.390564	
-0.390137	
-0.390442	
-0.388794	
-0.390015	
-0.387939	
-0.389099	
-0.388184	
-0.389404	
-0.38916	
-0.388977	
-0.389282	
-0.388245	
-0.387451	
-0.386292	
-0.387146	
-0.384888	
-0.386292	
-0.384766	
-0.385254	
-0.385132	
-0.385193	
-0.385559	
-0.385132	
-0.385437	
-0.384888	
-0.385742	
-0.384583	
-0.385315	
-0.38446	
-0.385681	
-0.386719	
-0.386414	
-0.385803	
-0.386353	
-0.385681	
-0.386536	
-0.386047	
-0.386353	
-0.38623	
-0.384949	
-0.386719	
-0.388	
-0.386536	
-0.386292	
-0.387756	
-0.386963	
-0.387085	
-0.387573	
-0.387756	
-0.387756	
-0.386963	
-0.388428	
-0.389526	
-0.390686	
-0.390198	
-0.391357	
-0.390991	
-0.391968	
-0.391907	
-0.3927	
-0.39325	
-0.392456	
-0.393738	
-0.39447	
-0.395264	
-0.395142	
-0.395752	
-0.395081	
-0.395264	
-0.394348	
-0.39563	
-0.394714	
-0.394714	
-0.395569	
-0.395264	
-0.395203	
-0.394958	
-0.394653	
-0.394226	
-0.394592	
-0.39209	
-0.394104	
-0.393494	
-0.393005	
-0.393311	
-0.39325	
-0.38916	
-0.385681	
-0.384705	
-0.384399	
-0.384521	
-0.383301	
-0.388	
-0.391418	
-0.392456	
-0.392944	
-0.392395	
-0.393188	
-0.392761	
-0.392395	
-0.390259	
-0.391968	
-0.390503	
-0.39032	
-0.390381	
-0.390259	
-0.389771	
-0.389221	
-0.389465	
-0.389587	
-0.389038	
-0.387329	
-0.38855	
-0.387634	
-0.388489	
-0.388428	
-0.389038	
-0.38855	
-0.389038	
-0.388916	
-0.390076	
-0.388977	
-0.388489	
-0.388489	
-0.388733	
-0.389771	
-0.388611	
-0.388916	
-0.389648	
-0.389832	
-0.389587	
-0.389832	
-0.389343	
-0.390015	
-0.389709	
-0.390381	
-0.390259	
-0.389709	
-0.390991	
-0.391785	
-0.39209	
-0.391663	
-0.3927	
-0.39209	
-0.392822	
-0.392883	
-0.393494	
-0.393982	
-0.393372	
-0.39447	
-0.396057	
-0.396179	
-0.395813	
-0.395935	
-0.39563	
-0.396362	
-0.396301	
-0.396973	
-0.3974	
-0.397156	
-0.397644	
-0.398193	
-0.397644	
-0.398315	
-0.396851	
-0.397278	
-0.396851	
-0.396362	
-0.3974	
-0.396729	
-0.397034	
-0.397705	
-0.397888	
-0.397705	
-0.398438	
-0.397827	
-0.398254	
-0.399109	
-0.399475	
-0.398743	
-0.399414	
-0.399963	
-0.401062	
-0.402161	
-0.401794	
-0.402222	
-0.401306	
-0.403137	
-0.402649	
-0.403687	
-0.404602	
-0.405151	
-0.405823	
-0.406799	
-0.406555	
-0.406189	
-0.40564	
-0.407776	
-0.407471	
-0.408142	
-0.408936	
-0.408936	
-0.409424	
-0.410522	
-0.410522	
-0.409912	
-0.409851	
-0.407898	
-0.407043	
-0.405762	
-0.40509	
-0.403992	
-0.402527	
-0.401978	
-0.402222	
-0.401611	
-0.400146	
-0.399292	
-0.398682	
-0.400085	
-0.398682	
-0.400085	
-0.400513	
-0.402344	
-0.403625	
-0.405701	
-0.406738	
-0.407532	
-0.407593	
-0.409485	
-0.410889	
-0.412354	
-0.413147	
-0.414795	
-0.416199	
-0.417297	
-0.418457	
-0.41864	
-0.419373	
-0.419678	
-0.421875	
-0.420532	
-0.42218	
-0.422485	
-0.423889	
-0.423828	
-0.424622	
-0.42572	
-0.426697	
-0.42627	
-0.426819	
-0.428772	
-0.430847	
-0.431396	
-0.433228	
-0.435364	
-0.437317	
-0.440308	
-0.441711	
-0.443848	
-0.445862	
-0.449219	
-0.450806	
-0.453674	
-0.455261	
-0.457031	
-0.45929	
-0.461914	
-0.463806	
-0.46344	
-0.463989	
-0.464783	
-0.466248	
-0.465576	
-0.465637	
-0.463867	
-0.4646	
-0.463318	
-0.462402	
-0.460999	
-0.458252	
-0.455017	
-0.452881	
-0.452698	
-0.450562	
-0.448914	
-0.447754	
-0.445923	
-0.444336	
-0.442871	
-0.440735	
-0.440308	
-0.437683	
-0.435913	
-0.434265	
-0.433105	
-0.431091	
-0.430664	
-0.429321	
-0.428345	
-0.427979	
-0.425964	
-0.426086	
-0.424561	
-0.424438	
-0.423035	
-0.422485	
-0.421204	
-0.420837	
-0.420349	
-0.419495	
-0.419434	
-0.416748	
-0.414734	
-0.413269	
-0.413757	
-0.411194	
-0.411316	
-0.409363	
-0.409668	
-0.408752	
-0.40741	
-0.407166	
-0.405701	
-0.403503	
-0.402344	
-0.403259	
-0.403137	
-0.403015	
-0.402588	
-0.403076	
-0.403564	
-0.403137	
-0.402405	
-0.402527	
-0.401794	
-0.401306	
-0.401306	
-0.401123	
-0.40033	
-0.400818	
-0.400757	
-0.400635	
-0.401428	
-0.400391	
-0.39978	
-0.39917	
-0.399231	
-0.398926	
-0.399292	
-0.398621	
-0.398193	
-0.397888	
-0.39801	
-0.39679	
-0.395935	
-0.395569	
-0.394348	
-0.394653	
-0.39325	
-0.393372	
-0.392578	
-0.392944	
-0.392517	
-0.392273	
-0.392883	
-0.391541	
-0.389954	
-0.390381	
-0.39032	
-0.389038	
-0.389282	
-0.388489	
-0.387634	
-0.387329	
-0.38678	
-0.386719	
-0.385132	
-0.384155	
-0.381592	
-0.381836	
-0.381226	
-0.380066	
-0.378967	
-0.377686	
-0.377197	
-0.375671	
-0.374268	
-0.37207	
-0.369934	
-0.36969	
-0.367615	
-0.36676	
-0.364441	
-0.365112	
-0.364075	
-0.362793	
-0.363098	
-0.361145	
-0.358337	
-0.356995	
-0.358215	
-0.357727	
-0.357544	
-0.357727	
-0.357422	
-0.357849	
-0.358032	
-0.358154	
-0.358154	
-0.357605	
-0.358704	
-0.357117	
-0.358826	
-0.358643	
-0.360352	
-0.360779	
-0.362427	
-0.362793	
-0.362366	
-0.362244	
-0.362061	
-0.363831	
-0.364319	
-0.365234	
-0.365295	
-0.365784	
-0.365906	
-0.366577	
-0.367126	
-0.367065	
-0.367859	
-0.369446	
-0.369324	
-0.369385	
-0.369751	
-0.37146	
-0.37207	
-0.372925	
-0.373779	
-0.374512	
-0.372742	
-0.372437	
-0.374817	
-0.375427	
-0.375916	
-0.376526	
-0.376282	
-0.376709	
-0.377686	
-0.37738	
-0.376953	
-0.37793	
-0.378967	
-0.377136	
-0.377808	
-0.377808	
-0.378052	
-0.377625	
-0.378662	
-0.378784	
-0.378967	
-0.37738	
-0.377014	
-0.378418	
-0.378662	
-0.378296	
-0.378479	
-0.378479	
-0.37915	
-0.380005	
-0.379395	
-0.379028	
-0.379028	
-0.380066	
-0.378662	
-0.37915	
-0.379028	
-0.379211	
-0.378723	
-0.380127	
-0.380676	
-0.379944	
-0.378906	
-0.378418	
-0.379944	
-0.379578	
-0.379517	
-0.378113	
-0.379822	
-0.38031	
-0.380432	
-0.380981	
-0.381653	
-0.380981	
-0.381165	
-0.381287	
-0.382263	
-0.382324	
-0.382507	
-0.382813	
-0.384338	
-0.385193	
-0.384277	
-0.384644	
-0.384094	
-0.386169	
-0.384705	
-0.385559	
-0.385803	
-0.386414	
-0.386353	
-0.387329	
-0.387817	
-0.387146	
-0.385986	
-0.386047	
-0.387695	
-0.38739	
-0.387146	
-0.386658	
-0.387878	
-0.38739	
-0.387939	
-0.387573	
-0.387024	
-0.385498	
-0.38501	
-0.386475	
-0.385864	
-0.385864	
-0.384277	
-0.384583	
-0.385071	
-0.384583	
-0.383179	
-0.38324	
-0.381592	
-0.382019	
-0.380981	
-0.381958	
-0.38208	
-0.381287	
-0.381836	
-0.382996	
-0.382629	
-0.381958	
-0.381165	
-0.380981	
-0.382385	
-0.381836	
-0.382141	
-0.382385	
-0.382446	
-0.38269	
-0.382629	
-0.383484	
-0.382813	
-0.382141	
-0.382263	
-0.38269	
-0.383057	
-0.383362	
-0.382263	
-0.382751	
-0.383179	
-0.383606	
-0.383423	
-0.383911	
-0.383301	
-0.382629	
-0.384521	
-0.383362	
-0.383484	
-0.383667	
-0.384399	
-0.38562	
-0.38623	
-0.385742	
-0.385742	
-0.386047	
-0.387146	
-0.387756	
-0.387756	
-0.388489	
-0.388428	
-0.389099	
-0.389648	
-0.390198	
-0.390137	
-0.389709	
-0.389526	
-0.390442	
-0.39032	
-0.390259	
-0.389709	
-0.389893	
-0.389771	
-0.38916	
-0.389465	
-0.388977	
-0.388184	
-0.387329	
-0.388123	
-0.388062	
-0.388184	
-0.387329	
-0.387268	
-0.388306	
-0.387939	
-0.388672	
-0.387268	
-0.387024	
-0.38739	
-0.387756	
-0.387146	
-0.387146	
-0.386963	
-0.387268	
-0.387207	
-0.387451	
-0.387756	
-0.385803	
-0.386108	
-0.385376	
-0.38678	
-0.386108	
-0.38623	
-0.384521	
-0.38623	
-0.386108	
-0.387085	
-0.38678	
-0.386414	
-0.385071	
-0.385193	
-0.386047	
-0.385803	
-0.385986	
-0.386047	
-0.386902	
-0.385925	
-0.386658	
-0.386597	
-0.386047	
-0.38501	
-0.385803	
-0.387512	
-0.387085	
-0.386475	
-0.38739	
-0.387756	
-0.387451	
-0.387817	
-0.38678	
-0.387146	
-0.387268	
-0.388123	
-0.387695	
-0.387756	
-0.387573	
-0.388306	
-0.388428	
-0.388855	
-0.389099	
-0.387756	
-0.387939	
-0.387817	
-0.388733	
-0.388	
-0.387451	
-0.387085	
-0.388184	
-0.387329	
-0.388855	
-0.388428	
-0.386841	
-0.386047	
-0.38562	
-0.386536	
-0.386047	
-0.385254	
-0.384583	
-0.385803	
-0.384949	
-0.38562	
-0.384216	
-0.38446	
-0.383728	
-0.383972	
-0.384827	
-0.385315	
-0.384766	
-0.385437	
-0.385986	
-0.385742	
-0.387268	
-0.385803	
-0.386414	
-0.38562	
-0.387146	
-0.386292	
-0.38678	
-0.386841	
-0.387207	
-0.387146	
-0.387024	
-0.387756	
-0.386841	
-0.386658	
-0.385559	
-0.387634	
-0.386719	
-0.386841	
-0.386536	
-0.387878	
-0.387024	
-0.388428	
-0.387268	
-0.388367	
-0.387878	
-0.388855	
-0.391174	
-0.391113	
-0.390747	
-0.390198	
-0.391968	
-0.391907	
-0.39386	
-0.392334	
-0.392639	
-0.391724	
-0.393921	
-0.394409	
-0.393921	
-0.393616	
-0.39386	
-0.393982	
-0.394226	
-0.394592	
-0.394165	
-0.39325	
-0.391724	
-0.393738	
-0.393494	
-0.393555	
-0.393188	
-0.393127	
-0.392029	
-0.392822	
-0.392883	
-0.392334	
-0.391479	
-0.391296	
-0.392151	
-0.391968	
-0.391479	
-0.391113	
-0.392517	
-0.39209	
-0.392578	
-0.391296	
-0.391052	
-0.390686	
-0.389954	
-0.391357	
-0.390137	
-0.390564	
-0.390259	
-0.390259	
-0.389465	
-0.390686	
-0.388062	
-0.387756	
-0.386841	
-0.388062	
-0.388672	
-0.387695	
-0.387817	
-0.38739	
-0.388123	
-0.387756	
-0.389221	
-0.387451	
-0.387329	
-0.386353	
-0.388184	
-0.388306	
-0.387756	
-0.388733	
-0.387756	
-0.388489	
-0.389282	
-0.389282	
-0.388245	
-0.388123	
-0.386353	
-0.388733	
-0.388733	
-0.388977	
-0.389038	
-0.38916	
-0.388794	
-0.390869	
-0.388672	
-0.389038	
-0.388367	
-0.388733	
-0.390015	
-0.389709	
-0.389587	
-0.389893	
-0.390808	
-0.390076	
-0.39093	
-0.388733	
-0.389893	
-0.388611	
-0.389832	
-0.390625	
-0.390137	
-0.389832	
-0.390198	
-0.390747	
-0.390137	
-0.390259	
-0.389587	
-0.389648	
-0.389221	
-0.389404	
-0.390137	
-0.389526	
-0.389526	
-0.389587	
-0.388672	
-0.389465	
-0.390137	
-0.388245	
-0.387634	
-0.38678	
-0.388428	
-0.389221	
-0.388245	
-0.388184	
-0.387817	
-0.388123	
-0.388611	
-0.387939	
-0.388062	
-0.387512	
-0.386108	
-0.388367	
-0.388611	
-0.388062	
-0.388	
-0.387207	
-0.388916	
-0.389038	
-0.388916	
-0.38855	
-0.388916	
-0.388733	
-0.389648	
-0.390137	
-0.389893	
-0.390991	
-0.391174	
-0.39209	
-0.392761	
-0.392273	
-0.392334	
-0.392212	
-0.39325	
-0.392822	
-0.393066	
-0.393311	
-0.394104	
-0.393616	
-0.393921	
-0.394287	
-0.392822	
-0.392578	
-0.391846	
-0.392151	
-0.392883	
-0.39209	
-0.392151	
-0.392456	
-0.392151	
-0.392578	
-0.391602	
-0.391235	
-0.390381	
-0.389221	
-0.391174	
-0.392395	
-0.391785	
-0.391846	
-0.391602	
-0.391174	
-0.391235	
-0.391357	
-0.39093	
-0.389771	
-0.390686	
-0.391174	
-0.391235	
-0.390076	
-0.390503	
-0.389526	
-0.389954	
-0.389343	
-0.388916	
-0.387939	
-0.38739	
-0.387512	
-0.387451	
-0.387207	
-0.38623	
-0.386658	
-0.384888	
-0.386719	
-0.387207	
-0.385254	
-0.384888	
-0.385071	
-0.38562	
-0.385864	
-0.385925	
-0.386353	
-0.386902	
-0.386414	
-0.388306	
-0.388123	
-0.387207	
-0.386963	
-0.385742	
-0.387939	
-0.387695	
-0.387451	
-0.388367	
-0.388794	
-0.388184	
-0.388672	
-0.386658	
-0.388184	
-0.386841	
-0.387939	
-0.388	
-0.388855	
-0.388428	
-0.388733	
-0.38855	
-0.388794	
-0.389099	
-0.387695	
-0.388733	
-0.388794	
-0.389404	
-0.389038	
-0.390137	
-0.390015	
-0.390015	
-0.389709	
-0.390198	
-0.391052	
-0.389343	
-0.390015	
-0.389099	
-0.390625	
-0.390564	
-0.391113	
-0.390686	
-0.39093	
-0.389832	
-0.39093	
-0.391174	
-0.389709	
-0.389221	
-0.388367	
-0.38916	
-0.389954	
-0.389038	
-0.389038	
-0.38916	
-0.387939	
-0.389771	
-0.388855	
-0.388977	
-0.387695	
-0.388245	
-0.388672	
-0.389038	
-0.388733	
-0.388977	
-0.388916	
-0.388916	
-0.389648	
-0.388428	
-0.388672	
-0.387695	
-0.389038	
-0.388794	
-0.389221	
-0.389465	
-0.389221	
-0.390015	
-0.390076	
-0.390259	
-0.389404	
-0.389954	
-0.389099	
-0.390747	
-0.391479	
-0.392212	
-0.392334	
-0.392639	
-0.393127	
-0.393738	
-0.393738	
-0.391907	
-0.393188	
-0.392639	
-0.393188	
-0.393066	
-0.394226	
-0.393127	
-0.392944	
-0.392822	
-0.393921	
-0.393677	
-0.392212	
-0.392273	
-0.391968	
-0.393311	
-0.392639	
-0.393066	
-0.392578	
-0.392456	
-0.391479	
-0.393921	
-0.392822	
-0.391907	
-0.39093	
-0.390747	
-0.391785	
-0.391663	
-0.391479	
-0.391174	
-0.391235	
-0.390076	
-0.391846	
-0.389404	
-0.389343	
-0.387085	
-0.387085	
-0.387207	
-0.387451	
-0.386597	
-0.386353	
-0.386719	
-0.385864	
-0.385864	
-0.38385	
-0.383667	
-0.38324	
-0.383118	
-0.383484	
-0.384216	
-0.384033	
-0.38385	
-0.383484	
-0.384766	
-0.384399	
-0.384521	
-0.384155	
-0.382751	
-0.384216	
-0.385071	
-0.385986	
-0.385803	
-0.386108	
-0.385498	
-0.386475	
-0.38623	
-0.385803	
-0.384888	
-0.385681	
-0.386292	
-0.386169	
-0.387085	
-0.386047	
-0.387024	
-0.386353	
-0.387146	
-0.386963	
-0.386719	
-0.386536	
-0.386475	
-0.387146	
-0.387024	
-0.387817	
-0.388428	
-0.389221	
-0.388306	
-0.390015	
-0.389648	
-0.390137	
-0.389954	
-0.389832	
-0.391235	
-0.391174	
-0.390442	
-0.391602	
-0.391479	
-0.391724	
-0.391907	
-0.39209	
-0.390869	
-0.390625	
-0.390198	
-0.390747	
-0.390686	
-0.390442	
-0.391235	
-0.390503	
-0.391418	
-0.391052	
-0.390686	
-0.389221	
-0.389465	
-0.388916	
-0.389465	
-0.390259	
-0.39032	
-0.391174	
-0.389648	
-0.389709	
-0.389282	
-0.389465	
-0.388855	
-0.388672	
-0.388733	
-0.389465	
-0.390076	
-0.388916	
-0.389648	
-0.389465	
-0.389465	
-0.388184	
-0.388672	
-0.388672	
-0.387939	
-0.388306	
-0.38916	
-0.389343	
-0.388428	
-0.389221	
-0.389282	
-0.390442	
-0.389343	
-0.388855	
-0.388611	
-0.389648	
-0.389954	
-0.389832	
-0.390137	
-0.390381	
-0.390625	
-0.390503	
-0.390686	
-0.391724	
-0.389771	
-0.390747	
-0.390381	
-0.390869	
-0.391418	
-0.391357	
-0.391724	
-0.391174	
-0.391602	
-0.391052	
-0.390747	
-0.390564	
-0.391235	
-0.39032	
-0.391113	
-0.391724	
-0.391663	
-0.391968	
-0.391174	
-0.391785	
-0.390747	
-0.390808	
-0.390198	
-0.389771	
-0.389954	
-0.389954	
-0.389832	
-0.388611	
-0.38916	
-0.387634	
-0.387939	
-0.387329	
-0.386353	
-0.385315	
-0.385559	
-0.385681	
-0.385864	
-0.38623	
-0.385986	
-0.387024	
-0.386108	
-0.386597	
-0.386475	
-0.38623	
-0.385681	
-0.386108	
-0.386719	
-0.386963	
-0.38739	
-0.386963	
-0.388	
-0.386841	
-0.386841	
-0.38739	
-0.386841	
-0.38739	
-0.386169	
-0.387634	
-0.387329	
-0.388123	
-0.388062	
-0.387512	
-0.388672	
-0.387817	
-0.388062	
-0.387085	
-0.387512	
-0.387695	
-0.388489	
-0.388733	
-0.388611	
-0.389709	
-0.389526	
-0.392151	
-0.390808	
-0.391052	
-0.390381	
-0.391418	
-0.391907	
-0.392456	
-0.393799	
-0.392578	
-0.39386	
-0.394043	
-0.39624	
-0.394287	
-0.394043	
-0.393066	
-0.393982	
-0.393799	
-0.393372	
-0.393982	
-0.393311	
-0.393616	
-0.392029	
-0.392822	
-0.392761	
-0.392151	
-0.389893	
-0.391052	
-0.39209	
-0.391724	
-0.391602	
-0.391357	
-0.391968	
-0.391113	
-0.391602	
-0.390381	
-0.391052	
-0.389648	
-0.389893	
-0.391174	
-0.391235	
-0.391235	
-0.390991	
-0.390747	
-0.391357	
-0.390625	
-0.389832	
-0.389954	
-0.388977	
-0.38916	
-0.389832	
-0.390198	
-0.390259	
-0.390625	
-0.389465	
-0.390564	
-0.389404	
-0.389587	
-0.389343	
-0.389709	
-0.389587	
-0.389587	
-0.390564	
-0.389709	
-0.390015	
-0.389526	
-0.390869	
-0.390381	
-0.390259	
-0.389893	
-0.389832	
-0.390625	
-0.39032	
-0.391602	
-0.39093	
-0.391418	
-0.389893	
-0.392029	
-0.391052	
-0.390442	
-0.389465	
-0.390625	
-0.39093	
-0.391357	
-0.391785	
-0.390564	
-0.391235	
-0.390747	
-0.391907	
-0.390747	
-0.390991	
-0.38916	
-0.390259	
-0.390442	
-0.390625	
-0.390381	
-0.39032	
-0.389954	
-0.38916	
-0.389893	
-0.389099	
-0.388916	
-0.387329	
-0.387085	
-0.387512	
-0.387512	
-0.386536	
-0.386536	
-0.386597	
-0.387146	
-0.385803	
-0.385803	
-0.386292	
-0.386353	
-0.385925	
-0.386536	
-0.38678	
-0.387085	
-0.387573	
-0.386292	
-0.387878	
-0.387268	
-0.386414	
-0.38623	
-0.387024	
-0.387268	
-0.387085	
-0.387634	
-0.387634	
-0.388062	
-0.387085	
-0.388489	
-0.38739	
-0.387878	
-0.386963	
-0.387695	
-0.388	
-0.38916	
-0.389709	
-0.388733	
-0.389282	
-0.389709	
-0.391113	
-0.390991	
-0.39093	
-0.391235	
-0.39093	
-0.392334	
-0.393494	
-0.394409	
-0.393677	
-0.394653	
-0.394897	
-0.395996	
-0.395569	
-0.395447	
-0.394531	
-0.395447	
-0.396301	
-0.396118	
-0.396484	
-0.39679	
-0.396606	
-0.395447	
-0.395935	
-0.395386	
-0.394897	
-0.393738	
-0.395447	
-0.394653	
-0.394653	
-0.394836	
-0.395142	
-0.393982	
-0.393433	
-0.393494	
-0.393494	
-0.393066	
-0.393372	
-0.393494	
-0.393494	
-0.393433	
-0.392944	
-0.393799	
-0.393066	
-0.39386	
-0.392517	
-0.392639	
-0.391907	
-0.392029	
-0.392761	
-0.391541	
-0.391052	
-0.391174	
-0.390564	
-0.389832	
-0.390564	
-0.389221	
-0.389099	
-0.387817	
-0.388611	
-0.389954	
-0.389343	
-0.389404	
-0.389038	
-0.38916	
-0.389038	
-0.389832	
-0.389404	
-0.388794	
-0.388123	
-0.389404	
-0.389648	
-0.389465	
-0.390259	
-0.389893	
-0.389282	
-0.389221	
-0.390625	
-0.389587	
-0.389832	
-0.389832	
-0.390015	
-0.389465	
-0.389832	
-0.390747	
-0.391418	
-0.390259	
-0.390015	
-0.391846	
-0.390503	
-0.390198	
-0.388794	
-0.390686	
-0.391541	
-0.39093	
-0.391357	
-0.391357	
-0.39093	
-0.390625	
-0.391113	
-0.391235	
-0.391235	
-0.389099	
-0.391174	
-0.391235	
-0.391357	
-0.391479	
-0.390869	
-0.391113	
-0.391113	
-0.391174	
-0.391052	
-0.390259	
-0.390442	
-0.389893	
-0.389893	
-0.390503	
-0.390503	
-0.389038	
-0.388672	
-0.390991	
-0.389587	
-0.389099	
-0.388184	
-0.389038	
-0.388794	
-0.389404	
-0.389771	
-0.389893	
-0.389038	
-0.389221	
-0.390747	
-0.388367	
-0.388855	
-0.387573	
-0.388489	
-0.388977	
-0.388794	
-0.389832	
-0.389954	
-0.389954	
-0.389099	
-0.39032	
-0.389954	
-0.389954	
-0.388	
-0.391296	
-0.391052	
-0.391602	
-0.393433	
-0.3927	
-0.392883	
-0.393005	
-0.394836	
-0.393738	
-0.393738	
-0.391907	
-0.394348	
-0.394531	
-0.394226	
-0.395203	
-0.394226	
-0.39386	
-0.393066	
-0.394592	
-0.394165	
-0.393188	
-0.392334	
-0.393311	
-0.39386	
-0.393311	
-0.394348	
-0.39325	
-0.393494	
-0.393494	
-0.393066	
-0.392883	
-0.392273	
-0.391418	
-0.392273	
-0.392761	
-0.392822	
-0.393494	
-0.3927	
-0.392212	
-0.393311	
-0.392517	
-0.391907	
-0.390686	
-0.39093	
-0.391602	
-0.390991	
-0.39093	
-0.390869	
-0.389893	
-0.38916	
-0.389832	
-0.388672	
-0.388245	
-0.386169	
-0.387634	
-0.387878	
-0.387268	
-0.387085	
-0.387451	
-0.386902	
-0.386963	
-0.386292	
-0.386963	
-0.386353	
-0.386292	
-0.387573	
-0.387146	
-0.387573	
-0.388794	
-0.389282	
-0.387939	
-0.388794	
-0.388306	
-0.388794	
-0.38855	
-0.38855	
-0.388611	
-0.388855	
-0.388977	
-0.389832	
-0.389343	
-0.38855	
-0.389954	
-0.388916	
-0.389038	
-0.388428	
-0.388123	
-0.389221	
-0.389404	
-0.389526	
-0.390625	
-0.389587	
-0.390503	
-0.391541	
-0.389648	
-0.389587	
-0.389526	
-0.389221	
-0.390503	
-0.390442	
-0.390503	
-0.391418	
-0.390869	
-0.391663	
-0.391968	
-0.39093	
-0.39093	
-0.390076	
-0.391357	
-0.391235	
-0.390564	
-0.390869	
-0.391663	
-0.390991	
-0.390869	
-0.390442	
-0.390381	
-0.389709	
-0.387634	
-0.389648	
-0.389465	
-0.390564	
-0.389832	
-0.390747	
-0.389771	
-0.390015	
-0.390137	
-0.389465	
-0.389343	
-0.386963	
-0.389648	
-0.389404	
-0.389404	
-0.390381	
-0.390137	
-0.389099	
-0.390137	
-0.390503	
-0.389709	
-0.389832	
-0.38855	
-0.390259	
-0.390198	
-0.390869	
-0.391479	
-0.391296	
-0.390686	
-0.391296	
-0.391052	
-0.392456	
-0.392639	
-0.391968	
-0.393372	
-0.394043	
-0.393555	
-0.39502	
-0.394287	
-0.394653	
-0.394043	
-0.392883	
-0.394104	
-0.393555	
-0.393311	
-0.393799	
-0.394226	
-0.39386	
-0.394104	
-0.393616	
-0.393433	
-0.393982	
-0.392395	
-0.393311	
-0.392761	
-0.393494	
-0.393005	
-0.393005	
-0.393494	
-0.39325	
-0.392944	
-0.3927	
-0.393127	
-0.392212	
-0.392395	
-0.391052	
-0.391663	
-0.391968	
-0.391235	
-0.390686	
-0.39093	
-0.390137	
-0.389526	
-0.390198	
-0.388428	
-0.387817	
-0.385681	
-0.386414	
-0.386475	
-0.385803	
-0.38562	
-0.385498	
-0.384644	
-0.384766	
-0.385986	
-0.384216	
-0.383728	
-0.382141	
-0.38446	
-0.384521	
-0.384644	
-0.385986	
-0.385559	
-0.384888	
-0.385742	
-0.386414	
-0.385254	
-0.385071	
-0.383606	
-0.385559	
-0.386414	
-0.386353	
-0.387024	
-0.387512	
-0.386536	
-0.386841	
-0.386536	
-0.386719	
-0.386719	
-0.38562	
-0.38678	
-0.386841	
-0.387146	
-0.387268	
-0.388245	
-0.387817	
-0.387268	
-0.387207	
-0.388306	
-0.388184	
-0.387024	
-0.388977	
-0.389282	
-0.390503	
-0.390381	
-0.391113	
-0.390381	
-0.391968	
-0.390808	
-0.39093	
-0.391052	
-0.390747	
-0.391357	
-0.391174	
-0.391785	
-0.391846	
-0.391663	
-0.391418	
-0.392639	
-0.390869	
-0.390686	
-0.390442	
-0.391113	
-0.391235	
-0.391113	
-0.391174	
-0.390869	
-0.39032	
-0.390747	
-0.391357	
-0.389954	
-0.390747	
-0.389099	
-0.389893	
-0.389893	
-0.390015	
-0.390808	
-0.390137	
-0.389771	
-0.388794	
-0.390991	
-0.389343	
-0.38916	
-0.388123	
-0.389282	
-0.389465	
-0.389404	
-0.389282	
-0.389709	
-0.388794	
-0.388062	
-0.390259	
-0.389221	
-0.388367	
-0.387573	
-0.389038	
-0.389343	
-0.389282	
-0.389709	
-0.39032	
-0.389587	
-0.390381	
-0.390381	
-0.390442	
-0.389709	
-0.389648	
-0.390503	
-0.391541	
-0.391418	
-0.391052	
-0.391235	
-0.390503	
-0.392334	
-0.390808	
-0.391052	
-0.390381	
-0.390564	
-0.390991	
-0.391113	
-0.39209	
-0.391357	
-0.391113	
-0.391052	
-0.393005	
-0.391846	
-0.390808	
-0.390625	
-0.389832	
-0.391235	
-0.391113	
-0.391174	
-0.390503	
-0.390564	
-0.389648	
-0.391357	
-0.389343	
-0.388977	
-0.387695	
-0.386719	
-0.387512	
-0.387451	
-0.386658	
-0.386963	
-0.386292	
-0.386047	
-0.387329	
-0.385498	
-0.385864	
-0.384399	
-0.385681	
-0.385986	
-0.385803	
-0.386292	
-0.387146	
-0.385986	
-0.386719	
-0.387817	
-0.386902	
-0.386169	
-0.384277	
	
