E:\DOCUMENTS AND SETTINGS\JPOTAS\MEUS DOCUMENTOS\UFRJ\RSCI-BM 12 WK SERIES\070720-RSCI-BM-04\RSCI-BM-04-REMG\070720-RSCI-BM-REMG-0002.ACQ
0.025000 msec/sample
1 channel
Analog input
Volts
CH1	
2000	
-0.391113	
-0.390991	
-0.390991	
-0.390869	
-0.391174	
-0.391235	
-0.391296	
-0.389771	
-0.388733	
-0.387756	
-0.388855	
-0.388306	
-0.387756	
-0.388367	
-0.388	
-0.387756	
-0.389282	
-0.38855	
-0.387573	
-0.385864	
-0.386902	
-0.387268	
-0.387451	
-0.387573	
-0.388	
-0.386902	
-0.387573	
-0.387085	
-0.387878	
-0.388184	
-0.38739	
-0.386963	
-0.387939	
-0.388184	
-0.388794	
-0.388611	
-0.388733	
-0.389221	
-0.389587	
-0.388855	
-0.38855	
-0.387695	
-0.38916	
-0.389343	
-0.390137	
-0.391052	
-0.391235	
-0.391357	
-0.393616	
-0.391724	
-0.391785	
-0.390686	
-0.391785	
-0.392273	
-0.3927	
-0.3927	
-0.393738	
-0.392883	
-0.393555	
-0.393799	
-0.394287	
-0.393005	
-0.390747	
-0.392029	
-0.39325	
-0.393433	
-0.393188	
-0.392944	
-0.393005	
-0.393127	
-0.393066	
-0.392639	
-0.39209	
-0.392212	
-0.391846	
-0.391846	
-0.391113	
-0.391479	
-0.39093	
-0.390869	
-0.392639	
-0.390625	
-0.390381	
-0.389526	
-0.389832	
-0.390076	
-0.390259	
-0.389893	
-0.39032	
-0.389465	
-0.389465	
-0.390381	
-0.389343	
-0.388367	
-0.385803	
-0.387268	
-0.388123	
-0.387878	
-0.387939	
-0.387512	
-0.387817	
-0.388062	
-0.387939	
-0.387756	
-0.387512	
-0.387451	
-0.388367	
-0.388672	
-0.388367	
-0.389404	
-0.389282	
-0.389832	
-0.391296	
-0.390259	
-0.389343	
-0.388794	
-0.389282	
-0.389526	
-0.389771	
-0.389587	
-0.390137	
-0.388855	
-0.389343	
-0.389648	
-0.388916	
-0.388184	
-0.38678	
-0.387939	
-0.388306	
-0.388489	
-0.388489	
-0.388428	
-0.388489	
-0.388855	
-0.388611	
-0.388062	
-0.388062	
-0.387756	
-0.388306	
-0.38855	
-0.388855	
-0.388611	
-0.388245	
-0.388062	
-0.389709	
-0.388794	
-0.387878	
-0.38678	
-0.387939	
-0.388794	
-0.388489	
-0.389099	
-0.389832	
-0.389526	
-0.390442	
-0.390442	
-0.390747	
-0.389832	
-0.388062	
-0.389099	
-0.389954	
-0.389587	
-0.389771	
-0.389404	
-0.389709	
-0.390381	
-0.390503	
-0.389954	
-0.389648	
-0.389832	
-0.390015	
-0.39032	
-0.390259	
-0.390564	
-0.389954	
-0.390076	
-0.391968	
-0.390747	
-0.389709	
-0.388855	
-0.389099	
-0.389648	
-0.389832	
-0.390015	
-0.390381	
-0.389954	
-0.390259	
-0.390503	
-0.390625	
-0.390015	
-0.387451	
-0.389282	
-0.390259	
-0.390076	
-0.389709	
-0.389221	
-0.389404	
-0.387878	
-0.386841	
-0.386292	
-0.385803	
-0.38562	
-0.385559	
-0.387085	
-0.387756	
-0.388428	
-0.387756	
-0.387146	
-0.38855	
-0.388306	
-0.387085	
-0.386108	
-0.386963	
-0.387695	
-0.388	
-0.387939	
-0.388428	
-0.388	
-0.389221	
-0.390869	
-0.389648	
-0.388977	
-0.388	
-0.388306	
-0.389343	
-0.389587	
-0.390137	
-0.389343	
-0.389893	
-0.390686	
-0.39032	
-0.390015	
-0.388306	
-0.388489	
-0.389954	
-0.390564	
-0.390747	
-0.391052	
-0.391174	
-0.391174	
-0.390503	
-0.391907	
-0.391113	
-0.391113	
-0.391663	
-0.392212	
-0.3927	
-0.393555	
-0.394043	
-0.393372	
-0.39447	
-0.395813	
-0.394409	
-0.393555	
-0.3927	
-0.393677	
-0.394348	
-0.394409	
-0.395569	
-0.394531	
-0.394775	
-0.394836	
-0.396423	
-0.395081	
-0.393799	
-0.392395	
-0.394775	
-0.394836	
-0.394775	
-0.394836	
-0.394836	
-0.395081	
-0.395203	
-0.395874	
-0.394653	
-0.394958	
-0.394226	
-0.395508	
-0.396057	
-0.397156	
-0.397095	
-0.397034	
-0.398193	
-0.400146	
-0.398682	
-0.399658	
-0.400574	
-0.402344	
-0.403809	
-0.405334	
-0.407104	
-0.407715	
-0.410034	
-0.412354	
-0.41394	
-0.415649	
-0.416687	
-0.418762	
-0.420776	
-0.422974	
-0.426086	
-0.427307	
-0.429382	
-0.430237	
-0.43457	
-0.434631	
-0.435364	
-0.435669	
-0.43927	
-0.440979	
-0.443359	
-0.443665	
-0.445557	
-0.447754	
-0.451416	
-0.451416	
-0.453613	
-0.455994	
-0.46051	
-0.464172	
-0.467773	
-0.470337	
-0.474609	
-0.478638	
-0.483215	
-0.48645	
-0.489014	
-0.492554	
-0.495361	
-0.499573	
-0.503723	
-0.507568	
-0.511047	
-0.514282	
-0.517822	
-0.523193	
-0.523987	
-0.526123	
-0.527588	
-0.530884	
-0.532532	
-0.534607	
-0.536133	
-0.537476	
-0.537903	
-0.53894	
-0.538879	
-0.538574	
-0.537964	
-0.538269	
-0.536987	
-0.536133	
-0.534973	
-0.532776	
-0.532349	
-0.531799	
-0.532654	
-0.529053	
-0.526367	
-0.522949	
-0.523193	
-0.520813	
-0.518616	
-0.515137	
-0.512268	
-0.509399	
-0.507629	
-0.5047	
-0.500488	
-0.497681	
-0.494141	
-0.49115	
-0.487366	
-0.482971	
-0.478577	
-0.473877	
-0.470093	
-0.467285	
-0.460266	
-0.455383	
-0.450134	
-0.447144	
-0.442322	
-0.438354	
-0.433899	
-0.428894	
-0.424622	
-0.420776	
-0.416382	
-0.411255	
-0.405518	
-0.398071	
-0.395203	
-0.389526	
-0.385681	
-0.379333	
-0.374146	
-0.369385	
-0.365601	
-0.361511	
-0.356995	
-0.353577	
-0.350769	
-0.348389	
-0.345764	
-0.343262	
-0.341614	
-0.340515	
-0.340088	
-0.341614	
-0.338379	
-0.337646	
-0.336121	
-0.338928	
-0.339539	
-0.340393	
-0.340637	
-0.341797	
-0.34375	
-0.345825	
-0.345703	
-0.346497	
-0.347595	
-0.349426	
-0.350708	
-0.351807	
-0.352844	
-0.353455	
-0.354736	
-0.356018	
-0.35614	
-0.356995	
-0.357483	
-0.358154	
-0.359009	
-0.359131	
-0.360107	
-0.360046	
-0.360229	
-0.360474	
-0.361755	
-0.361023	
-0.360901	
-0.358826	
-0.361511	
-0.361755	
-0.362427	
-0.361694	
-0.362488	
-0.363098	
-0.366028	
-0.364685	
-0.364014	
-0.36438	
-0.366882	
-0.368103	
-0.36908	
-0.369324	
-0.370178	
-0.371338	
-0.37207	
-0.371521	
-0.371094	
-0.371216	
-0.372437	
-0.372803	
-0.373108	
-0.373047	
-0.373596	
-0.373779	
-0.374634	
-0.374084	
-0.374268	
-0.374207	
-0.374512	
-0.374634	
-0.374817	
-0.375305	
-0.375183	
-0.375671	
-0.375427	
-0.376953	
-0.375488	
-0.375916	
-0.373535	
-0.375183	
-0.374756	
-0.375488	
-0.375122	
-0.374756	
-0.375671	
-0.376648	
-0.375	
-0.374512	
-0.374329	
-0.376099	
-0.376465	
-0.376709	
-0.376404	
-0.375916	
-0.376648	
-0.37738	
-0.375366	
-0.375061	
-0.373596	
-0.375122	
-0.374878	
-0.374512	
-0.375305	
-0.374451	
-0.374817	
-0.374207	
-0.375244	
-0.374329	
-0.37439	
-0.37384	
-0.374573	
-0.374878	
-0.375427	
-0.375061	
-0.375488	
-0.375854	
-0.377136	
-0.375854	
-0.375732	
-0.376587	
-0.377258	
-0.377869	
-0.379395	
-0.380127	
-0.380615	
-0.381226	
-0.381409	
-0.382568	
-0.38208	
-0.382935	
-0.38208	
-0.384155	
-0.384827	
-0.385315	
-0.385376	
-0.385193	
-0.385498	
-0.386414	
-0.385254	
-0.385559	
-0.384644	
-0.385803	
-0.385681	
-0.385193	
-0.385864	
-0.385071	
-0.385498	
-0.38446	
-0.383911	
-0.38269	
-0.382813	
-0.382568	
-0.382935	
-0.382996	
-0.382996	
-0.382141	
-0.382507	
-0.381714	
-0.382935	
-0.381287	
-0.381287	
-0.380981	
-0.381592	
-0.38147	
-0.381287	
-0.382202	
-0.381104	
-0.381775	
-0.381836	
-0.381348	
-0.379944	
-0.380188	
-0.3797	
-0.380859	
-0.380981	
-0.380371	
-0.381226	
-0.380737	
-0.38031	
-0.380554	
-0.380737	
-0.380981	
-0.380188	
-0.380981	
-0.381348	
-0.381531	
-0.381897	
-0.380981	
-0.382629	
-0.382813	
-0.38269	
-0.381348	
-0.381226	
-0.380432	
-0.383118	
-0.382935	
-0.383057	
-0.383301	
-0.383362	
-0.383118	
-0.383362	
-0.382996	
-0.383057	
-0.383667	
-0.383728	
-0.383789	
-0.383545	
-0.383545	
-0.384216	
-0.384216	
-0.384705	
-0.383606	
-0.382141	
-0.383545	
-0.382019	
-0.383362	
-0.383362	
-0.383301	
-0.383728	
-0.382874	
-0.383484	
-0.384094	
-0.382874	
-0.383911	
-0.383118	
-0.384094	
-0.384216	
-0.384399	
-0.384399	
-0.384888	
-0.384094	
-0.385193	
-0.38446	
-0.383789	
-0.383911	
-0.384521	
-0.385437	
-0.385315	
-0.385803	
-0.385742	
-0.386292	
-0.386292	
-0.387024	
-0.385681	
-0.385864	
-0.385071	
-0.386353	
-0.386169	
-0.385681	
-0.385681	
-0.386902	
-0.386169	
-0.386658	
-0.385132	
-0.38501	
-0.384155	
-0.38446	
-0.385437	
-0.385742	
-0.385559	
-0.386169	
-0.386475	
-0.385986	
-0.386536	
-0.384705	
-0.385498	
-0.384155	
-0.385071	
-0.384277	
-0.384216	
-0.384155	
-0.384277	
-0.383484	
-0.384644	
-0.381897	
-0.383179	
-0.38147	
-0.383057	
-0.382935	
-0.38269	
-0.382874	
-0.383423	
-0.382751	
-0.383667	
-0.383118	
-0.382263	
-0.382385	
-0.382141	
-0.383179	
-0.383423	
-0.384277	
-0.384521	
-0.385376	
-0.383972	
-0.385376	
-0.38385	
-0.384399	
-0.384094	
-0.384888	
-0.38501	
-0.384949	
-0.385193	
-0.386169	
-0.385986	
-0.387268	
-0.386353	
-0.387024	
-0.386536	
-0.386902	
-0.388062	
-0.388062	
-0.388184	
-0.388794	
-0.389771	
-0.389221	
-0.39032	
-0.388489	
-0.388855	
-0.388916	
-0.389404	
-0.389648	
-0.389343	
-0.390076	
-0.390808	
-0.389648	
-0.390442	
-0.389282	
-0.389709	
-0.388062	
-0.38739	
-0.38916	
-0.390198	
-0.389221	
-0.388733	
-0.389526	
-0.389221	
-0.388794	
-0.386414	
-0.387573	
-0.387329	
-0.387268	
-0.386963	
-0.387085	
-0.387085	
-0.387939	
-0.386719	
-0.387756	
-0.387329	
-0.385742	
-0.384827	
-0.384705	
-0.385803	
-0.385437	
-0.385315	
-0.385803	
-0.385376	
-0.385254	
-0.385315	
-0.382507	
-0.38446	
-0.383728	
-0.384705	
-0.385132	
-0.385132	
-0.38501	
-0.385498	
-0.385437	
-0.386475	
-0.386414	
-0.385681	
-0.384766	
-0.385132	
-0.386536	
-0.38678	
-0.387024	
-0.38739	
-0.388306	
-0.387146	
-0.387756	
-0.385071	
-0.386169	
-0.386292	
-0.386108	
-0.386414	
-0.38623	
-0.385925	
-0.386719	
-0.385925	
-0.385925	
-0.385559	
-0.385193	
-0.385437	
-0.385498	
-0.385437	
-0.385742	
-0.386292	
-0.38623	
-0.386719	
-0.385925	
-0.386108	
-0.384338	
-0.385742	
-0.384888	
-0.384583	
-0.38562	
-0.385925	
-0.385864	
-0.385925	
-0.385803	
-0.386169	
-0.385803	
-0.386292	
-0.386353	
-0.386841	
-0.386963	
-0.387451	
-0.387756	
-0.387695	
-0.388733	
-0.38916	
-0.388428	
-0.38623	
-0.386841	
-0.386658	
-0.38623	
-0.387451	
-0.387573	
-0.388123	
-0.388916	
-0.388123	
-0.388062	
-0.387695	
-0.387573	
-0.387939	
-0.387268	
-0.387573	
-0.387024	
-0.38739	
-0.388062	
-0.388672	
-0.388245	
-0.387878	
-0.385986	
-0.387634	
-0.386414	
-0.38739	
-0.387939	
-0.388245	
-0.388428	
-0.389038	
-0.388489	
-0.389282	
-0.387756	
-0.387939	
-0.386475	
-0.387695	
-0.387268	
-0.387268	
-0.38678	
-0.387024	
-0.387268	
-0.386536	
-0.385986	
-0.384949	
-0.38501	
-0.384094	
-0.38501	
-0.385132	
-0.385193	
-0.384827	
-0.38623	
-0.385437	
-0.386597	
-0.385559	
-0.385925	
-0.384705	
-0.386353	
-0.385803	
-0.386536	
-0.386841	
-0.387878	
-0.388367	
-0.387878	
-0.388245	
-0.385864	
-0.387512	
-0.386841	
-0.387573	
-0.387939	
-0.387878	
-0.388794	
-0.388428	
-0.388245	
-0.389709	
-0.388306	
-0.389709	
-0.388367	
-0.389282	
-0.388184	
-0.389038	
-0.389465	
-0.389648	
-0.39093	
-0.390381	
-0.391785	
-0.388611	
-0.389954	
-0.388672	
-0.390747	
-0.390625	
-0.391418	
-0.391052	
-0.391602	
-0.390869	
-0.391541	
-0.391418	
-0.391968	
-0.391296	
-0.392029	
-0.391785	
-0.392151	
-0.391846	
-0.392273	
-0.39325	
-0.391541	
-0.393188	
-0.389771	
-0.392212	
-0.389954	
-0.391602	
-0.391235	
-0.391418	
-0.391541	
-0.391907	
-0.391541	
-0.391907	
-0.391907	
-0.392578	
-0.390991	
-0.390564	
-0.391479	
-0.391785	
-0.391663	
-0.391724	
-0.393066	
-0.391418	
-0.392273	
-0.390015	
-0.391846	
-0.390381	
-0.390991	
-0.39032	
-0.391907	
-0.391724	
-0.391907	
-0.392395	
-0.391174	
-0.391052	
-0.389771	
-0.390625	
-0.390503	
-0.389954	
-0.389954	
-0.390381	
-0.390869	
-0.391052	
-0.389771	
-0.390564	
-0.389526	
-0.390381	
-0.388428	
-0.388306	
-0.387939	
-0.389099	
-0.389404	
-0.389404	
-0.389954	
-0.389221	
-0.389099	
-0.388794	
-0.389221	
-0.389526	
-0.389587	
-0.389465	
-0.389771	
-0.389954	
-0.390869	
-0.390259	
-0.390259	
-0.389771	
-0.390808	
-0.389893	
-0.390198	
-0.389893	
-0.390259	
-0.390259	
-0.390808	
-0.391174	
-0.391235	
-0.391174	
-0.391663	
-0.391663	
-0.392822	
-0.391968	
-0.39325	
-0.392944	
-0.393921	
-0.394714	
-0.39447	
-0.394348	
-0.393127	
-0.39325	
-0.393005	
-0.394043	
-0.393982	
-0.394958	
-0.395081	
-0.395325	
-0.395264	
-0.395325	
-0.394836	
-0.395325	
-0.394897	
-0.394226	
-0.39325	
-0.3927	
-0.393677	
-0.393127	
-0.393799	
-0.394043	
-0.393616	
-0.3927	
-0.3927	
-0.39209	
-0.392578	
-0.391296	
-0.391907	
-0.391785	
-0.391479	
-0.391541	
-0.390991	
-0.390808	
-0.389465	
-0.390198	
-0.388916	
-0.388855	
-0.388	
-0.388916	
-0.388672	
-0.389099	
-0.389282	
-0.388916	
-0.388062	
-0.389404	
-0.388611	
-0.38855	
-0.388123	
-0.388245	
-0.38855	
-0.388611	
-0.389526	
-0.389771	
-0.390442	
-0.389099	
-0.389282	
-0.388977	
-0.389771	
-0.388245	
-0.390381	
-0.390381	
-0.390625	
-0.390747	
-0.391296	
-0.391479	
-0.390991	
-0.391052	
-0.390808	
-0.391418	
-0.391846	
-0.391663	
-0.391968	
-0.393127	
-0.393494	
-0.393127	
-0.392639	
-0.394531	
-0.393555	
-0.393188	
-0.392883	
-0.393677	
-0.394043	
-0.394714	
-0.394409	
-0.395264	
-0.395691	
-0.395142	
-0.394287	
-0.393799	
-0.393738	
-0.393921	
-0.394714	
-0.393921	
-0.394653	
-0.393738	
-0.393127	
-0.392517	
-0.393555	
-0.392517	
-0.392273	
-0.391052	
-0.392273	
-0.392029	
-0.392334	
-0.392761	
-0.393494	
-0.393127	
-0.392578	
-0.392944	
-0.392883	
-0.392883	
-0.392151	
-0.393372	
-0.39325	
-0.39386	
-0.39386	
-0.393616	
-0.393982	
-0.394226	
-0.393677	
-0.392761	
-0.392761	
-0.392944	
-0.393799	
-0.393738	
-0.39447	
-0.394836	
-0.393555	
-0.393372	
-0.394348	
-0.393555	
-0.393005	
-0.391785	
-0.394043	
-0.392761	
-0.392883	
-0.392761	
-0.392334	
-0.392273	
-0.391968	
-0.392151	
-0.391479	
-0.391235	
-0.391541	
-0.391479	
-0.392029	
-0.392273	
-0.392273	
-0.391541	
-0.39209	
-0.393188	
-0.391296	
-0.390686	
-0.390625	
-0.390747	
-0.391418	
-0.39093	
-0.391846	
-0.391724	
-0.391235	
-0.390686	
-0.391907	
-0.391357	
-0.391235	
-0.390503	
-0.391907	
-0.391785	
-0.39209	
-0.392212	
-0.391113	
-0.391663	
-0.391907	
-0.391479	
-0.39093	
-0.390442	
-0.391052	
-0.390991	
-0.391235	
-0.391968	
-0.392151	
-0.391846	
-0.392517	
-0.392273	
-0.392639	
-0.392639	
-0.391785	
-0.393494	
-0.393555	
-0.394165	
-0.394226	
-0.394043	
-0.393982	
-0.393677	
-0.394531	
-0.394104	
-0.394043	
-0.394287	
-0.394409	
-0.394409	
-0.394409	
-0.394836	
-0.393311	
-0.393616	
-0.393677	
-0.392395	
-0.391296	
-0.39032	
-0.392456	
-0.392273	
-0.392395	
-0.393005	
-0.391663	
-0.391968	
-0.39093	
-0.391663	
-0.391479	
-0.391174	
-0.391174	
-0.391724	
-0.391235	
-0.391235	
-0.390808	
-0.391113	
-0.391174	
-0.391541	
-0.390198	
-0.389221	
-0.389526	
-0.389954	
-0.389587	
-0.389099	
-0.390076	
-0.390076	
-0.388977	
-0.388367	
-0.387756	
-0.388611	
-0.388062	
-0.388184	
-0.388733	
-0.388794	
-0.389282	
-0.389526	
-0.388611	
-0.388794	
-0.388184	
-0.387817	
-0.387939	
-0.388062	
-0.388428	
-0.388489	
-0.387634	
-0.38855	
-0.388977	
-0.388611	
-0.388489	
-0.388855	
-0.388062	
-0.387695	
-0.386902	
-0.388	
-0.387878	
-0.388123	
-0.389038	
-0.388428	
-0.388855	
-0.387573	
-0.387451	
-0.387695	
-0.387573	
-0.387817	
-0.388123	
-0.388123	
-0.388184	
-0.388245	
-0.388062	
-0.388855	
-0.389343	
-0.387939	
-0.387268	
-0.387146	
-0.389282	
-0.388794	
-0.389282	
-0.390259	
-0.390198	
-0.389343	
-0.388916	
-0.389099	
-0.388977	
-0.388428	
-0.389465	
-0.390015	
-0.389282	
-0.390015	
-0.390198	
-0.390564	
-0.391296	
-0.391541	
-0.390259	
-0.389404	
-0.389526	
-0.390259	
-0.390198	
-0.389893	
-0.39032	
-0.390381	
-0.389771	
-0.390137	
-0.390137	
-0.388977	
-0.388489	
-0.387451	
-0.389221	
-0.389221	
-0.389404	
-0.389709	
-0.389221	
-0.38916	
-0.388489	
-0.388367	
-0.388611	
-0.388123	
-0.388184	
-0.387817	
-0.388184	
-0.387573	
-0.387512	
-0.386658	
-0.387329	
-0.38739	
-0.385864	
-0.384888	
-0.38385	
-0.385315	
-0.385681	
-0.38562	
-0.386047	
-0.385742	
-0.385742	
-0.385132	
-0.384705	
-0.384827	
-0.384705	
-0.385193	
-0.384827	
-0.38562	
-0.386047	
-0.386963	
-0.386292	
-0.386597	
-0.387024	
-0.386353	
-0.385864	
-0.385803	
-0.386536	
-0.386536	
-0.386902	
-0.387573	
-0.38739	
-0.387695	
-0.388367	
-0.388	
-0.389099	
-0.388916	
-0.387756	
-0.389343	
-0.389709	
-0.390198	
-0.390686	
-0.390381	
-0.391174	
-0.389832	
-0.390869	
-0.390686	
-0.390564	
-0.391113	
-0.391541	
-0.391235	
-0.391357	
-0.392395	
-0.390686	
-0.391724	
-0.392029	
-0.390686	
-0.390015	
-0.389954	
-0.390869	
-0.390381	
-0.390991	
-0.391846	
-0.390503	
-0.390625	
-0.388611	
-0.388611	
-0.388611	
-0.388855	
-0.388123	
-0.388306	
-0.387939	
-0.388916	
-0.389465	
-0.388062	
-0.388489	
-0.387512	
-0.388062	
-0.386963	
-0.385925	
-0.386658	
-0.386658	
-0.386597	
-0.386841	
-0.386047	
-0.386169	
-0.386047	
-0.386658	
-0.385315	
-0.385498	
-0.38562	
-0.385925	
-0.385925	
-0.38623	
-0.387207	
-0.386475	
-0.387268	
-0.387085	
-0.386353	
-0.386353	
-0.386475	
-0.38623	
-0.387451	
-0.387939	
-0.388428	
-0.388	
-0.387756	
-0.387695	
-0.387451	
-0.387451	
-0.387207	
-0.387268	
-0.387573	
-0.387024	
-0.387024	
-0.387512	
-0.38678	
-0.387573	
-0.385925	
-0.387085	
-0.386353	
-0.385864	
-0.385803	
-0.38623	
-0.386658	
-0.386719	
-0.386963	
-0.386658	
-0.386414	
-0.385803	
-0.386719	
-0.386292	
-0.38623	
-0.38562	
-0.387146	
-0.38623	
-0.387085	
-0.386353	
-0.387207	
-0.386414	
-0.387146	
-0.386719	
-0.386353	
-0.387695	
-0.388123	
-0.388	
-0.388489	
-0.389038	
-0.38855	
-0.38855	
-0.387512	
-0.388733	
-0.386963	
-0.38739	
-0.387268	
-0.388306	
-0.388489	
-0.389465	
-0.388672	
-0.389099	
-0.388489	
-0.387512	
-0.388123	
-0.387878	
-0.388	
-0.388062	
-0.388245	
-0.388306	
-0.388611	
-0.388245	
-0.388611	
-0.389099	
-0.388916	
-0.386658	
-0.387024	
-0.388306	
-0.388489	
-0.388611	
-0.389465	
-0.389343	
-0.388672	
-0.388733	
-0.387695	
-0.388489	
-0.387878	
-0.387573	
-0.386963	
-0.387207	
-0.38739	
-0.387085	
-0.38623	
-0.387268	
-0.386292	
-0.385681	
-0.38501	
-0.385254	
-0.385071	
-0.385437	
-0.385803	
-0.386658	
-0.386475	
-0.385742	
-0.385803	
-0.386047	
-0.386658	
-0.384766	
-0.384827	
-0.385559	
-0.387146	
-0.387268	
-0.387573	
-0.387634	
-0.387451	
-0.387329	
-0.387695	
-0.387085	
-0.386963	
-0.387451	
-0.388062	
-0.387939	
-0.388916	
-0.389282	
-0.388184	
-0.388611	
-0.388489	
-0.38916	
-0.388184	
-0.388062	
-0.388733	
-0.38916	
-0.389771	
-0.390503	
-0.390259	
-0.390991	
-0.389404	
-0.390442	
-0.391235	
-0.389832	
-0.390198	
-0.389771	
-0.391174	
-0.391418	
-0.391907	
-0.391296	
-0.391602	
-0.391968	
-0.391846	
-0.391296	
-0.391479	
-0.391113	
-0.391785	
-0.391785	
-0.393066	
-0.392212	
-0.391541	
-0.391479	
-0.391907	
-0.392395	
-0.391357	
-0.390686	
-0.391785	
-0.391541	
-0.392151	
-0.392395	
-0.391663	
-0.392029	
-0.391968	
-0.391785	
-0.392029	
-0.390564	
-0.391785	
-0.390503	
-0.391785	
-0.392517	
-0.392944	
-0.391663	
-0.391357	
-0.392334	
-0.392151	
-0.391907	
-0.390869	
-0.391479	
-0.391907	
-0.392212	
-0.392212	
-0.392456	
-0.391174	
-0.392212	
-0.390076	
-0.391724	
-0.390198	
-0.390625	
-0.390747	
-0.390869	
-0.391602	
-0.390747	
-0.390442	
-0.389709	
-0.39093	
-0.389771	
-0.389648	
-0.388855	
-0.389771	
-0.389404	
-0.389526	
-0.389343	
-0.390564	
-0.389893	
-0.390137	
-0.389465	
-0.390076	
-0.389465	
-0.389832	
-0.390015	
-0.390198	
-0.391235	
-0.390503	
-0.391052	
-0.390137	
-0.391663	
-0.389771	
-0.390991	
-0.389038	
-0.391052	
-0.390137	
-0.390991	
-0.391113	
-0.391663	
-0.391296	
-0.392395	
-0.392456	
-0.392822	
-0.392822	
-0.393616	
-0.393799	
-0.394165	
-0.394714	
-0.394287	
-0.394104	
-0.39386	
-0.396423	
-0.394287	
-0.395325	
-0.393372	
-0.395203	
-0.395325	
-0.396118	
-0.395935	
-0.394775	
-0.395386	
-0.394409	
-0.395142	
-0.394409	
-0.394104	
-0.393677	
-0.393738	
-0.39325	
-0.394104	
-0.393188	
-0.393738	
-0.392822	
-0.39447	
-0.393311	
-0.393311	
-0.392578	
-0.392944	
-0.392395	
-0.392639	
-0.392212	
-0.391418	
-0.391296	
-0.389893	
-0.391541	
-0.389526	
-0.390686	
-0.387329	
-0.389832	
-0.389282	
-0.389771	
-0.389465	
-0.38916	
-0.38916	
-0.389526	
-0.389038	
-0.388855	
-0.388428	
-0.388794	
-0.388733	
-0.388855	
-0.390747	
-0.390015	
-0.390381	
-0.389587	
-0.391785	
-0.389893	
-0.390564	
-0.389038	
-0.390747	
-0.390503	
-0.391541	
-0.391235	
-0.391846	
-0.392334	
-0.391907	
-0.392517	
-0.391724	
-0.392822	
-0.391235	
-0.391968	
-0.39209	
-0.394165	
-0.393555	
-0.393127	
-0.392456	
-0.394165	
-0.393677	
-0.394226	
-0.392639	
-0.39447	
-0.39447	
-0.395264	
-0.395264	
-0.394531	
-0.394714	
-0.394958	
-0.395447	
-0.39502	
-0.395508	
-0.394775	
-0.394653	
-0.393127	
-0.394836	
-0.394165	
-0.394348	
-0.393616	
-0.39325	
-0.393372	
-0.391846	
-0.392151	
-0.391479	
-0.392334	
-0.393066	
-0.392944	
-0.393372	
-0.393127	
-0.393433	
-0.393677	
-0.393311	
-0.394409	
-0.393616	
-0.393677	
-0.393433	
-0.394958	
-0.394104	
-0.393982	
-0.394409	
-0.394775	
-0.394348	
-0.393555	
-0.392761	
-0.394348	
-0.394104	
-0.393372	
-0.394714	
-0.394104	
-0.394348	
-0.39447	
-0.394226	
-0.394165	
-0.393799	
-0.394043	
-0.394043	
-0.393982	
-0.394348	
-0.393372	
-0.393494	
-0.393372	
-0.393616	
-0.393127	
-0.39209	
-0.392578	
-0.392212	
-0.392456	
-0.391846	
-0.393066	
-0.393005	
-0.392517	
-0.3927	
-0.3927	
-0.3927	
-0.391724	
-0.392151	
-0.391052	
-0.391785	
-0.391968	
-0.392639	
-0.391846	
-0.392395	
-0.393127	
-0.392273	
-0.392273	
-0.391479	
-0.392151	
-0.392456	
-0.392151	
-0.392761	
-0.391602	
-0.39209	
-0.392395	
-0.392151	
-0.393127	
-0.391418	
-0.392456	
-0.391052	
-0.391968	
-0.390625	
-0.392822	
-0.392456	
-0.3927	
-0.394226	
-0.393494	
-0.393494	
-0.39325	
-0.393921	
-0.394653	
-0.394531	
-0.39502	
-0.395264	
-0.395325	
-0.395447	
-0.395752	
-0.396179	
-0.395691	
-0.394531	
-0.394897	
-0.39563	
-0.394897	
-0.39563	
-0.394714	
-0.394592	
-0.39502	
-0.394531	
-0.39447	
-0.393311	
-0.39325	
-0.392944	
-0.392944	
-0.39325	
-0.393799	
-0.393005	
-0.392517	
-0.393799	
-0.393494	
-0.392517	
-0.39209	
-0.391846	
-0.392456	
-0.391541	
-0.392212	
-0.391846	
-0.392212	
-0.392212	
-0.392029	
-0.392822	
-0.390869	
-0.390503	
-0.390015	
-0.390442	
-0.390198	
-0.391357	
-0.39032	
-0.390076	
-0.390442	
-0.390137	
-0.390259	
-0.389954	
-0.389954	
-0.390076	
-0.389526	
-0.390198	
-0.390015	
-0.389648	
-0.389343	
-0.389343	
-0.390442	
-0.389221	
-0.388367	
-0.388855	
-0.389404	
-0.388794	
-0.389771	
-0.389282	
-0.389526	
-0.390198	
-0.389343	
-0.390198	
-0.389648	
-0.389038	
-0.387878	
-0.389465	
-0.389282	
-0.390076	
-0.389526	
-0.38916	
-0.389709	
-0.389709	
-0.389587	
-0.38916	
-0.389221	
-0.389282	
-0.388672	
-0.389343	
-0.389465	
-0.389404	
-0.389282	
-0.38855	
-0.390198	
-0.389404	
-0.389343	
-0.389709	
-0.390076	
-0.390625	
-0.390747	
-0.390442	
-0.390503	
-0.391296	
-0.390015	
-0.391052	
-0.389893	
-0.390564	
-0.389282	
-0.390808	
-0.391357	
-0.392395	
-0.391663	
-0.391968	
-0.391418	
-0.391479	
-0.391296	
-0.391296	
-0.391418	
-0.391663	
-0.390564	
-0.392029	
-0.391174	
-0.391052	
-0.391602	
-0.390503	
-0.390808	
-0.389465	
-0.390442	
-0.390137	
-0.390015	
-0.390381	
-0.39093	
-0.390442	
-0.390503	
	
