E:\DOCUMENTS AND SETTINGS\JPOTAS\MEUS DOCUMENTOS\UFRJ\RSCI-BM 12 WK SERIES\070723-RSCI-BM-06\RSCI-BM-06-REMG\070723-RSCI-BM-REMG-0013.ACQ
0.025000 msec/sample
1 channel
Analog input
Volts
CH1	
2000	
-0.385681	
-0.385254	
-0.384583	
-0.385498	
-0.385193	
-0.385437	
-0.385315	
-0.384949	
-0.385681	
-0.385803	
-0.386536	
-0.385681	
-0.386047	
-0.385254	
-0.386841	
-0.386963	
-0.386719	
-0.38678	
-0.387085	
-0.387146	
-0.387573	
-0.388	
-0.387085	
-0.388	
-0.387329	
-0.388306	
-0.388245	
-0.388184	
-0.388123	
-0.388245	
-0.388367	
-0.388306	
-0.389038	
-0.388184	
-0.389587	
-0.387878	
-0.389404	
-0.390076	
-0.388855	
-0.388977	
-0.389587	
-0.389465	
-0.389038	
-0.389771	
-0.388672	
-0.389771	
-0.388489	
-0.388916	
-0.389282	
-0.389282	
-0.388855	
-0.388672	
-0.389038	
-0.389038	
-0.388977	
-0.388245	
-0.388855	
-0.38678	
-0.387146	
-0.386902	
-0.38678	
-0.386902	
-0.386719	
-0.387024	
-0.387573	
-0.386902	
-0.386719	
-0.386963	
-0.385437	
-0.387146	
-0.386963	
-0.38739	
-0.387451	
-0.386963	
-0.388428	
-0.388611	
-0.388062	
-0.388367	
-0.388489	
-0.387878	
-0.388977	
-0.38855	
-0.388794	
-0.389343	
-0.389404	
-0.39032	
-0.389709	
-0.388794	
-0.388428	
-0.388123	
-0.388611	
-0.388733	
-0.388733	
-0.388672	
-0.388977	
-0.38855	
-0.389832	
-0.388428	
-0.388367	
-0.387695	
-0.388062	
-0.388184	
-0.388	
-0.389038	
-0.388	
-0.388184	
-0.388245	
-0.389771	
-0.388977	
-0.388855	
-0.388855	
-0.388916	
-0.389526	
-0.389404	
-0.390686	
-0.390381	
-0.390198	
-0.390076	
-0.392639	
-0.391174	
-0.391357	
-0.391907	
-0.391357	
-0.391785	
-0.391479	
-0.392883	
-0.391602	
-0.391296	
-0.391541	
-0.393188	
-0.391479	
-0.391235	
-0.390869	
-0.390259	
-0.390686	
-0.390381	
-0.390442	
-0.389648	
-0.389587	
-0.388855	
-0.391113	
-0.389648	
-0.388306	
-0.388062	
-0.387634	
-0.387451	
-0.387024	
-0.387451	
-0.386414	
-0.386414	
-0.38562	
-0.387634	
-0.387512	
-0.386047	
-0.38562	
-0.385437	
-0.385742	
-0.386414	
-0.387024	
-0.386475	
-0.386841	
-0.386047	
-0.388245	
-0.388	
-0.387512	
-0.38678	
-0.387268	
-0.388062	
-0.388	
-0.388794	
-0.389404	
-0.389282	
-0.389709	
-0.391113	
-0.390442	
-0.390442	
-0.389099	
-0.390198	
-0.390991	
-0.391113	
-0.390869	
-0.391235	
-0.391479	
-0.392517	
-0.393188	
-0.391418	
-0.391846	
-0.391663	
-0.392029	
-0.391724	
-0.391968	
-0.391663	
-0.391663	
-0.391541	
-0.391907	
-0.392273	
-0.391541	
-0.387573	
-0.383972	
-0.383789	
-0.383484	
-0.383057	
-0.38324	
-0.387451	
-0.390686	
-0.39209	
-0.392151	
-0.391296	
-0.390869	
-0.389709	
-0.390564	
-0.390808	
-0.39032	
-0.390442	
-0.389221	
-0.389587	
-0.390686	
-0.390137	
-0.388855	
-0.388611	
-0.387878	
-0.389099	
-0.388855	
-0.389099	
-0.388977	
-0.38855	
-0.388672	
-0.390564	
-0.390015	
-0.389648	
-0.389221	
-0.387878	
-0.389282	
-0.389221	
-0.389709	
-0.389038	
-0.389465	
-0.389343	
-0.390808	
-0.39032	
-0.390198	
-0.389038	
-0.388916	
-0.389709	
-0.39032	
-0.390869	
-0.390198	
-0.389832	
-0.389587	
-0.391052	
-0.390686	
-0.390625	
-0.391418	
-0.390869	
-0.391602	
-0.391663	
-0.392456	
-0.391785	
-0.391785	
-0.392212	
-0.393555	
-0.393494	
-0.393494	
-0.394592	
-0.394836	
-0.395264	
-0.395142	
-0.396179	
-0.396484	
-0.39679	
-0.396973	
-0.398071	
-0.397583	
-0.396667	
-0.39679	
-0.398071	
-0.398621	
-0.39856	
-0.399292	
-0.399231	
-0.399292	
-0.400269	
-0.400696	
-0.400085	
-0.400452	
-0.399963	
-0.401001	
-0.401062	
-0.401672	
-0.401184	
-0.401428	
-0.402222	
-0.403198	
-0.402527	
-0.401978	
-0.403442	
-0.402466	
-0.403259	
-0.403076	
-0.404175	
-0.403564	
-0.403809	
-0.403748	
-0.404114	
-0.403931	
-0.402832	
-0.403748	
-0.40448	
-0.404724	
-0.40509	
-0.404907	
-0.404846	
-0.40564	
-0.406616	
-0.405823	
-0.404419	
-0.405334	
-0.402893	
-0.402954	
-0.402832	
-0.402771	
-0.40094	
-0.400452	
-0.399902	
-0.400146	
-0.399597	
-0.398438	
-0.398071	
-0.398987	
-0.39917	
-0.398193	
-0.399719	
-0.40094	
-0.401794	
-0.401917	
-0.404114	
-0.405396	
-0.405884	
-0.407471	
-0.409729	
-0.410767	
-0.412354	
-0.413208	
-0.414307	
-0.415649	
-0.416382	
-0.417358	
-0.417419	
-0.418518	
-0.41864	
-0.4198	
-0.420593	
-0.422546	
-0.422546	
-0.423401	
-0.423218	
-0.425232	
-0.426025	
-0.42688	
-0.428284	
-0.42981	
-0.430969	
-0.432983	
-0.433716	
-0.435425	
-0.437378	
-0.439148	
-0.441772	
-0.441528	
-0.443726	
-0.446777	
-0.448914	
-0.4505	
-0.453857	
-0.455933	
-0.457825	
-0.459961	
-0.46051	
-0.462524	
-0.46283	
-0.464844	
-0.465576	
-0.467896	
-0.467163	
-0.469482	
-0.468567	
-0.46814	
-0.46698	
-0.465942	
-0.464355	
-0.462158	
-0.461609	
-0.459961	
-0.458496	
-0.456787	
-0.455566	
-0.453918	
-0.452332	
-0.450134	
-0.449097	
-0.447266	
-0.444885	
-0.444092	
-0.441772	
-0.439636	
-0.438843	
-0.436584	
-0.435181	
-0.434448	
-0.432861	
-0.432373	
-0.430237	
-0.42981	
-0.426697	
-0.426331	
-0.424805	
-0.425171	
-0.423828	
-0.423218	
-0.423645	
-0.421631	
-0.421326	
-0.419312	
-0.419006	
-0.417053	
-0.416687	
-0.414734	
-0.415894	
-0.414001	
-0.41333	
-0.41333	
-0.411316	
-0.410889	
-0.408691	
-0.409241	
-0.406494	
-0.407288	
-0.406738	
-0.407166	
-0.406128	
-0.405457	
-0.404968	
-0.406006	
-0.404846	
-0.403076	
-0.40387	
-0.401978	
-0.401855	
-0.401672	
-0.400879	
-0.400146	
-0.400391	
-0.398499	
-0.398743	
-0.39801	
-0.396484	
-0.395935	
-0.395569	
-0.394775	
-0.394165	
-0.393677	
-0.393433	
-0.393188	
-0.391418	
-0.391846	
-0.391052	
-0.391357	
-0.390503	
-0.390564	
-0.390076	
-0.391113	
-0.390137	
-0.390381	
-0.390747	
-0.389954	
-0.390991	
-0.389526	
-0.390381	
-0.389771	
-0.390686	
-0.390442	
-0.391724	
-0.39093	
-0.39032	
-0.390381	
-0.389282	
-0.388428	
-0.387085	
-0.387756	
-0.385681	
-0.385864	
-0.383972	
-0.384338	
-0.383728	
-0.38385	
-0.380493	
-0.380859	
-0.378601	
-0.379028	
-0.377197	
-0.376709	
-0.375793	
-0.375732	
-0.374451	
-0.374023	
-0.373413	
-0.37207	
-0.370972	
-0.369202	
-0.36969	
-0.36676	
-0.366638	
-0.364807	
-0.365356	
-0.365234	
-0.36499	
-0.363159	
-0.363159	
-0.361755	
-0.362305	
-0.362244	
-0.362	
-0.362244	
-0.36261	
-0.362488	
-0.362671	
-0.363647	
-0.362	
-0.364258	
-0.36377	
-0.365356	
-0.364441	
-0.364929	
-0.364868	
-0.36731	
-0.367798	
-0.368958	
-0.368225	
-0.369141	
-0.368896	
-0.370544	
-0.370544	
-0.371765	
-0.372375	
-0.372742	
-0.374084	
-0.374756	
-0.375244	
-0.374573	
-0.376404	
-0.37561	
-0.37738	
-0.375793	
-0.376953	
-0.377747	
-0.378113	
-0.378052	
-0.378845	
-0.378113	
-0.378052	
-0.377625	
-0.377808	
-0.378357	
-0.378357	
-0.378784	
-0.378845	
-0.380432	
-0.378662	
-0.37915	
-0.378418	
-0.379456	
-0.378601	
-0.379517	
-0.378357	
-0.379333	
-0.378967	
-0.379089	
-0.379639	
-0.380432	
-0.380432	
-0.378967	
-0.378479	
-0.378723	
-0.380005	
-0.379517	
-0.380188	
-0.379395	
-0.380249	
-0.380676	
-0.380798	
-0.380249	
-0.380859	
-0.380066	
-0.380798	
-0.380554	
-0.380371	
-0.380554	
-0.380859	
-0.381531	
-0.38092	
-0.381348	
-0.379883	
-0.379639	
-0.379944	
-0.381042	
-0.379456	
-0.380737	
-0.380188	
-0.380981	
-0.381592	
-0.381165	
-0.380981	
-0.38092	
-0.38147	
-0.381409	
-0.382141	
-0.381653	
-0.382568	
-0.381897	
-0.383667	
-0.384277	
-0.38385	
-0.383728	
-0.383667	
-0.38446	
-0.384705	
-0.384766	
-0.385254	
-0.385803	
-0.384949	
-0.38678	
-0.386475	
-0.387634	
-0.386047	
-0.387573	
-0.387268	
-0.387939	
-0.387512	
-0.388123	
-0.388245	
-0.387756	
-0.38855	
-0.387817	
-0.388123	
-0.385559	
-0.388184	
-0.387024	
-0.387451	
-0.386597	
-0.387207	
-0.387085	
-0.386902	
-0.387451	
-0.386475	
-0.385681	
-0.384216	
-0.385559	
-0.384644	
-0.384949	
-0.383667	
-0.38385	
-0.38324	
-0.383728	
-0.382751	
-0.382629	
-0.381958	
-0.38269	
-0.381714	
-0.38208	
-0.382385	
-0.382019	
-0.382019	
-0.381531	
-0.382751	
-0.381653	
-0.382813	
-0.381226	
-0.382751	
-0.382263	
-0.382568	
-0.38385	
-0.383606	
-0.382813	
-0.383301	
-0.385498	
-0.384583	
-0.384338	
-0.382507	
-0.385315	
-0.383362	
-0.384827	
-0.384338	
-0.38562	
-0.38501	
-0.384827	
-0.385986	
-0.385071	
-0.385498	
-0.384705	
-0.385254	
-0.385742	
-0.386292	
-0.385803	
-0.386353	
-0.386597	
-0.387451	
-0.38678	
-0.387024	
-0.386353	
-0.385986	
-0.385803	
-0.385986	
-0.38678	
-0.386536	
-0.385986	
-0.38562	
-0.387024	
-0.385925	
-0.386902	
-0.38446	
-0.385498	
-0.385254	
-0.384949	
-0.384949	
-0.38446	
-0.384155	
-0.383423	
-0.384521	
-0.383911	
-0.384033	
-0.382385	
-0.383789	
-0.382874	
-0.383911	
-0.382751	
-0.38385	
-0.38385	
-0.384521	
-0.384949	
-0.384644	
-0.384644	
-0.385376	
-0.384827	
-0.385193	
-0.386292	
-0.38623	
-0.38623	
-0.386292	
-0.387146	
-0.387207	
-0.386963	
-0.386169	
-0.387573	
-0.386108	
-0.386536	
-0.386841	
-0.386658	
-0.386536	
-0.38623	
-0.38678	
-0.387756	
-0.387451	
-0.385071	
-0.386719	
-0.386353	
-0.385864	
-0.386108	
-0.385986	
-0.385986	
-0.385254	
-0.385925	
-0.386414	
-0.38678	
-0.386047	
-0.385498	
-0.386108	
-0.386658	
-0.386108	
-0.387268	
-0.387329	
-0.387695	
-0.388306	
-0.388306	
-0.388977	
-0.389648	
-0.388733	
-0.388123	
-0.389648	
-0.389404	
-0.390137	
-0.389893	
-0.391052	
-0.39032	
-0.390442	
-0.389832	
-0.390015	
-0.389771	
-0.388672	
-0.39032	
-0.389526	
-0.389465	
-0.388672	
-0.388977	
-0.389526	
-0.388672	
-0.388	
-0.388489	
-0.387512	
-0.387268	
-0.387634	
-0.386902	
-0.386414	
-0.386292	
-0.386414	
-0.386047	
-0.385864	
-0.385315	
-0.385498	
-0.385193	
-0.385559	
-0.384888	
-0.385071	
-0.384949	
-0.385803	
-0.385803	
-0.385864	
-0.385132	
-0.386169	
-0.385254	
-0.38562	
-0.386719	
-0.385925	
-0.386963	
-0.386841	
-0.387268	
-0.387695	
-0.388733	
-0.388	
-0.389221	
-0.38916	
-0.388672	
-0.390442	
-0.389771	
-0.390015	
-0.390564	
-0.390625	
-0.390991	
-0.391357	
-0.391113	
-0.391357	
-0.391663	
-0.391296	
-0.391968	
-0.391541	
-0.391235	
-0.391785	
-0.391541	
-0.392578	
-0.391907	
-0.391174	
-0.392029	
-0.391174	
-0.391174	
-0.391052	
-0.391113	
-0.390686	
-0.390503	
-0.390747	
-0.391296	
-0.391357	
-0.391479	
-0.389465	
-0.390137	
-0.391235	
-0.390076	
-0.390076	
-0.389893	
-0.389587	
-0.39093	
-0.390808	
-0.388916	
-0.389526	
-0.388611	
-0.387451	
-0.388367	
-0.388367	
-0.388245	
-0.388733	
-0.387756	
-0.38855	
-0.388367	
-0.388245	
-0.38855	
-0.38916	
-0.388794	
-0.38855	
-0.388855	
-0.388672	
-0.389038	
-0.388489	
-0.389465	
-0.388977	
-0.388977	
-0.389526	
-0.389282	
-0.389282	
-0.389038	
-0.389282	
-0.389587	
-0.389465	
-0.389038	
-0.389832	
-0.390198	
-0.390137	
-0.389099	
-0.388855	
-0.389099	
-0.389709	
-0.389404	
-0.388855	
-0.389404	
-0.389038	
-0.390137	
-0.387939	
-0.389099	
-0.388245	
-0.387695	
-0.38855	
-0.389709	
-0.388855	
-0.389404	
-0.388916	
-0.389404	
-0.390808	
-0.389587	
-0.390442	
-0.389099	
-0.389526	
-0.389587	
-0.39093	
-0.390076	
-0.39093	
-0.390198	
-0.390686	
-0.391907	
-0.391052	
-0.391663	
-0.389709	
-0.390686	
-0.390442	
-0.391846	
-0.390808	
-0.391357	
-0.390076	
-0.390808	
-0.389893	
-0.390625	
-0.390381	
-0.388428	
-0.390259	
-0.388733	
-0.389832	
-0.389648	
-0.389282	
-0.387756	
-0.388977	
-0.388611	
-0.387756	
-0.387024	
-0.387085	
-0.386963	
-0.386719	
-0.387024	
-0.387634	
-0.386658	
-0.386963	
-0.387878	
-0.387146	
-0.387512	
-0.387329	
-0.386963	
-0.387146	
-0.38855	
-0.388184	
-0.388916	
-0.388184	
-0.388977	
-0.390747	
-0.389465	
-0.390564	
-0.389771	
-0.391052	
-0.391174	
-0.392395	
-0.391907	
-0.393494	
-0.392334	
-0.392578	
-0.393738	
-0.39325	
-0.393677	
-0.390991	
-0.394287	
-0.392761	
-0.39447	
-0.394226	
-0.394226	
-0.39325	
-0.394226	
-0.392334	
-0.393433	
-0.393677	
-0.391479	
-0.392883	
-0.392029	
-0.3927	
-0.392334	
-0.392334	
-0.391724	
-0.392456	
-0.391541	
-0.391907	
-0.391785	
-0.391846	
-0.391724	
-0.391113	
-0.391724	
-0.392151	
-0.391724	
-0.391785	
-0.392639	
-0.39209	
-0.392517	
-0.391541	
-0.391357	
-0.39093	
-0.390503	
-0.390991	
-0.391541	
-0.390198	
-0.390869	
-0.392395	
-0.391052	
-0.390869	
-0.389526	
-0.390564	
-0.391113	
-0.391174	
-0.390808	
-0.392273	
-0.391052	
-0.391907	
-0.392273	
-0.391968	
-0.392151	
-0.390015	
-0.391602	
-0.392395	
-0.393005	
-0.392761	
-0.393616	
-0.392883	
-0.393738	
-0.391907	
-0.393005	
-0.393372	
-0.393494	
-0.393311	
-0.393372	
-0.393677	
-0.39325	
-0.393127	
-0.391846	
-0.393677	
-0.392456	
-0.392029	
-0.391785	
-0.392273	
-0.391296	
-0.391357	
-0.391418	
-0.390991	
-0.390686	
-0.389832	
-0.392456	
-0.39093	
-0.39093	
-0.390991	
-0.391357	
-0.390747	
-0.390869	
-0.391052	
-0.391418	
-0.390991	
-0.391418	
-0.391724	
-0.391541	
-0.391724	
-0.390442	
-0.391174	
-0.391724	
-0.391357	
-0.392029	
-0.392273	
-0.391907	
-0.392029	
-0.391418	
-0.391663	
-0.391174	
-0.391479	
-0.391052	
-0.391052	
-0.390381	
-0.39032	
-0.391174	
-0.389771	
-0.390747	
-0.389343	
-0.389038	
-0.388672	
-0.389038	
-0.388733	
-0.388	
-0.387756	
-0.388184	
-0.388794	
-0.387695	
-0.389709	
-0.388	
-0.38855	
-0.388428	
-0.388916	
-0.389038	
-0.389465	
-0.390381	
-0.390137	
-0.39093	
-0.38916	
-0.391174	
-0.389709	
-0.390808	
-0.390076	
-0.391113	
-0.391479	
-0.391602	
-0.392334	
-0.393127	
-0.39325	
-0.393494	
-0.394531	
-0.392639	
-0.393372	
-0.39325	
-0.393066	
-0.393494	
-0.394104	
-0.39325	
-0.393738	
-0.39325	
-0.393799	
-0.394165	
-0.392883	
-0.392334	
-0.392639	
-0.3927	
-0.39209	
-0.390991	
-0.391541	
-0.392395	
-0.39093	
-0.390991	
-0.391479	
-0.390442	
-0.389893	
-0.389221	
-0.38916	
-0.389038	
-0.389038	
-0.388611	
-0.389343	
-0.388916	
-0.389526	
-0.388	
-0.388306	
-0.388245	
-0.38739	
-0.388733	
-0.387573	
-0.389038	
-0.388367	
-0.388916	
-0.388245	
-0.389404	
-0.387329	
-0.388367	
-0.388367	
-0.387756	
-0.389099	
-0.388245	
-0.388672	
-0.388977	
-0.388855	
-0.387939	
-0.39032	
-0.38916	
-0.389465	
-0.389526	
-0.389099	
-0.389648	
-0.389526	
-0.389282	
-0.390564	
-0.390259	
-0.390381	
-0.391113	
-0.390808	
-0.390808	
-0.390808	
-0.391296	
-0.391052	
-0.391846	
-0.391846	
-0.392273	
-0.391296	
-0.391174	
-0.391907	
-0.391174	
-0.391541	
-0.391113	
-0.391418	
-0.391541	
-0.391846	
-0.390808	
-0.391479	
-0.390869	
-0.391479	
-0.391052	
-0.390198	
-0.389832	
-0.39093	
-0.390869	
-0.390564	
-0.390198	
-0.390625	
-0.390991	
-0.389404	
-0.391174	
-0.389709	
-0.390442	
-0.390686	
-0.390808	
-0.390747	
-0.390808	
-0.390381	
-0.390686	
-0.391235	
-0.391357	
-0.391602	
-0.390198	
-0.39093	
-0.391052	
-0.391235	
-0.390564	
-0.391235	
-0.39032	
-0.390625	
-0.390259	
-0.390381	
-0.391541	
-0.390015	
-0.389648	
-0.388855	
-0.390198	
-0.389832	
-0.389771	
-0.388245	
-0.389221	
-0.388672	
-0.388916	
-0.389771	
-0.388855	
-0.388184	
-0.386536	
-0.389404	
-0.389038	
-0.388245	
-0.389404	
-0.389038	
-0.387756	
-0.389954	
-0.389954	
-0.389771	
-0.390076	
-0.389099	
-0.390076	
-0.390442	
-0.390442	
-0.390808	
-0.391663	
-0.391174	
-0.392639	
-0.392212	
-0.392578	
-0.392822	
-0.393494	
-0.392761	
-0.393677	
-0.392395	
-0.392456	
-0.393433	
-0.392517	
-0.3927	
-0.391785	
-0.392456	
-0.391235	
-0.392151	
-0.391785	
-0.392212	
-0.389954	
-0.390564	
-0.391052	
-0.389771	
-0.390381	
-0.388428	
-0.388428	
-0.387695	
-0.388062	
-0.387146	
-0.387146	
-0.385986	
-0.386353	
-0.385559	
-0.386841	
-0.38739	
-0.38501	
-0.385864	
-0.385376	
-0.385315	
-0.38623	
-0.385681	
-0.384827	
-0.385437	
-0.384888	
-0.385742	
-0.387024	
-0.385864	
-0.386353	
-0.386047	
-0.38678	
-0.38739	
-0.387085	
-0.387024	
-0.387634	
-0.387146	
-0.387817	
-0.388489	
-0.387756	
-0.388489	
-0.388855	
-0.388245	
-0.388	
-0.387939	
-0.388367	
-0.388428	
-0.38916	
-0.389343	
-0.388733	
-0.389099	
-0.388977	
-0.389038	
-0.389587	
-0.389587	
-0.388855	
-0.389465	
-0.389893	
-0.390076	
-0.390503	
-0.389526	
-0.389404	
-0.388977	
-0.388428	
-0.389465	
-0.389587	
-0.388367	
-0.389099	
-0.389954	
-0.39032	
-0.389893	
-0.387756	
-0.388489	
-0.387512	
-0.38739	
-0.388245	
-0.38855	
-0.387512	
-0.387817	
-0.386536	
-0.38739	
-0.387756	
-0.385803	
-0.387451	
-0.387146	
-0.387268	
-0.38739	
-0.387756	
-0.38739	
-0.388672	
-0.387634	
-0.388733	
-0.388672	
-0.38855	
-0.388855	
-0.389343	
-0.389526	
-0.389771	
-0.389648	
-0.389404	
-0.390076	
-0.389221	
-0.390198	
-0.389526	
-0.389465	
-0.389343	
-0.389648	
-0.38916	
-0.389587	
-0.388794	
-0.389587	
-0.389709	
-0.389221	
-0.389648	
-0.388855	
-0.388489	
-0.388367	
-0.389343	
-0.388794	
-0.388794	
-0.387512	
-0.388977	
-0.389404	
-0.388916	
-0.390076	
-0.388794	
-0.389221	
-0.389587	
-0.39032	
-0.389404	
-0.39093	
-0.389893	
-0.390564	
-0.390747	
-0.391785	
-0.392151	
-0.392761	
-0.39209	
-0.391296	
-0.392212	
-0.392517	
-0.392883	
-0.391541	
-0.392456	
-0.392029	
-0.392212	
-0.392151	
-0.392456	
-0.391235	
-0.390381	
-0.390686	
-0.390869	
-0.390991	
-0.390076	
-0.39093	
-0.389954	
-0.390015	
-0.389404	
-0.389954	
-0.38916	
-0.388367	
-0.387329	
-0.388184	
-0.388123	
-0.387268	
-0.387878	
-0.386658	
-0.386658	
-0.386169	
-0.386963	
-0.385925	
-0.386353	
-0.385681	
-0.386902	
-0.387878	
-0.387268	
-0.387451	
-0.387024	
-0.388428	
-0.386902	
-0.387634	
-0.387817	
-0.388367	
-0.388245	
-0.389282	
-0.390198	
-0.389282	
-0.389893	
-0.389587	
-0.390869	
-0.390198	
-0.390686	
-0.389832	
-0.391663	
-0.391357	
-0.390808	
-0.392334	
-0.39209	
-0.392517	
-0.391296	
-0.392151	
-0.392212	
-0.392578	
-0.39093	
-0.392273	
-0.392212	
-0.39209	
-0.391113	
-0.393005	
-0.391724	
-0.391907	
-0.391846	
-0.392212	
-0.391663	
-0.391846	
-0.391724	
-0.392273	
-0.392273	
-0.39209	
-0.392517	
-0.391663	
-0.391663	
-0.391663	
-0.391724	
-0.390503	
-0.391052	
-0.390442	
-0.391357	
-0.391296	
-0.389832	
-0.390381	
-0.389648	
-0.389832	
-0.388733	
-0.389343	
-0.388855	
-0.389709	
-0.388855	
-0.388611	
-0.388611	
-0.389832	
-0.388977	
-0.389282	
-0.390015	
-0.388672	
-0.390564	
-0.38916	
-0.389343	
-0.389038	
-0.389099	
-0.389893	
-0.389893	
-0.389404	
-0.389954	
-0.390198	
-0.389343	
-0.391235	
-0.389343	
-0.389648	
-0.389099	
-0.389038	
-0.389587	
-0.389954	
-0.389648	
-0.389832	
-0.389893	
-0.389832	
-0.390259	
-0.390198	
-0.389221	
-0.388062	
-0.38916	
-0.389771	
-0.389832	
-0.389404	
-0.389526	
-0.389465	
-0.389343	
-0.389038	
-0.390015	
-0.389771	
-0.388794	
-0.388977	
-0.391235	
-0.391235	
-0.390076	
-0.391174	
-0.390808	
-0.391113	
-0.390564	
-0.391052	
-0.390808	
-0.390869	
-0.391174	
-0.392639	
-0.391968	
-0.392273	
-0.392273	
-0.390991	
-0.392273	
-0.391174	
-0.391479	
-0.391541	
-0.391541	
-0.39093	
-0.391785	
-0.391296	
-0.391113	
-0.390564	
-0.389832	
-0.39093	
-0.389648	
-0.390198	
-0.389648	
-0.389099	
-0.388916	
-0.390015	
-0.388245	
-0.387817	
-0.38739	
-0.387573	
-0.388489	
-0.387268	
-0.387817	
-0.38678	
-0.387695	
-0.388184	
-0.388489	
-0.388062	
-0.388245	
-0.387512	
-0.388794	
-0.389099	
-0.389282	
-0.389343	
-0.388611	
-0.389465	
-0.390747	
-0.39093	
-0.391235	
-0.392029	
-0.391846	
-0.392883	
-0.392822	
-0.393188	
-0.39325	
-0.393616	
-0.39209	
-0.394348	
-0.395203	
-0.393982	
-0.394409	
-0.394226	
-0.394836	
-0.394409	
-0.394836	
-0.394287	
-0.394348	
-0.394165	
-0.395569	
-0.395203	
-0.393982	
-0.394409	
-0.392761	
-0.394531	
-0.392761	
-0.392517	
-0.393066	
-0.393311	
-0.392517	
-0.39325	
-0.39325	
-0.392822	
-0.392944	
-0.392334	
-0.393433	
-0.392395	
-0.392273	
-0.391541	
-0.392273	
-0.392517	
-0.392883	
-0.392212	
-0.392212	
-0.391541	
-0.391907	
-0.392273	
-0.391663	
-0.391235	
-0.389771	
-0.390808	
-0.391602	
-0.392578	
-0.391602	
-0.391235	
-0.39093	
-0.391968	
-0.392029	
-0.391052	
-0.391235	
-0.390808	
-0.392212	
-0.3927	
-0.393433	
-0.391968	
-0.392578	
-0.390747	
-0.392883	
-0.393555	
-0.393433	
-0.393616	
-0.393555	
-0.393738	
-0.393799	
-0.393677	
-0.393799	
-0.393921	
-0.392517	
-0.393555	
-0.393066	
-0.394043	
-0.393066	
-0.393188	
-0.393311	
-0.393066	
-0.39325	
-0.392944	
-0.392395	
-0.391174	
-0.391846	
-0.391418	
-0.392151	
-0.390991	
-0.390869	
-0.391174	
-0.391968	
-0.391113	
-0.391602	
-0.39209	
-0.391357	
-0.391907	
-0.390991	
-0.392517	
-0.391418	
-0.391968	
-0.391602	
-0.393311	
-0.391541	
-0.392639	
-0.392639	
-0.391968	
-0.392883	
-0.391479	
-0.393127	
-0.391785	
-0.391907	
-0.391174	
-0.392883	
-0.391479	
-0.391479	
-0.390442	
-0.391296	
-0.391174	
-0.390686	
-0.391174	
-0.389343	
-0.390198	
-0.389099	
-0.390686	
-0.389587	
-0.388855	
-0.387695	
-0.388733	
-0.388245	
-0.38855	
-0.388245	
-0.388611	
-0.388733	
-0.388794	
-0.390137	
-0.389526	
-0.389526	
-0.388611	
-0.390015	
-0.389587	
-0.390686	
-0.389954	
-0.390381	
-0.390564	
-0.391113	
-0.391418	
-0.391418	
-0.392517	
-0.390381	
-0.392456	
-0.392578	
-0.394165	
-0.393616	
-0.394165	
-0.394043	
-0.394714	
-0.394775	
-0.394409	
-0.394165	
-0.392761	
-0.394348	
-0.393127	
-0.394165	
-0.393799	
-0.393555	
-0.393494	
-0.394226	
-0.393982	
-0.392456	
-0.392883	
-0.391296	
-0.392822	
-0.391235	
-0.392517	
-0.391235	
-0.391541	
-0.39032	
-0.391663	
-0.389771	
-0.389893	
-0.389954	
-0.389038	
-0.389526	
-0.388611	
-0.389465	
-0.388733	
-0.388611	
-0.387634	
-0.38916	
-0.388916	
-0.388855	
-0.387756	
-0.388672	
-0.389282	
-0.38855	
-0.388977	
-0.388	
-0.388184	
-0.388	
-0.389893	
-0.388916	
-0.388672	
-0.386841	
-0.389038	
-0.389465	
-0.388977	
-0.388855	
-0.388428	
-0.389587	
-0.389404	
-0.39093	
-0.389221	
-0.390381	
-0.388794	
-0.389832	
-0.390259	
-0.390564	
-0.390991	
-0.390259	
-0.391052	
-0.39093	
-0.392334	
-0.391235	
-0.391541	
-0.391296	
-0.391357	
-0.391235	
-0.391968	
-0.391235	
-0.391052	
-0.391418	
-0.391663	
-0.392273	
-0.391479	
-0.391052	
-0.389954	
-0.391907	
-0.390869	
-0.391235	
-0.391357	
-0.391296	
-0.391418	
-0.391479	
-0.390259	
-0.390808	
-0.391479	
-0.390686	
-0.390808	
-0.389771	
-0.391296	
-0.390625	
-0.390808	
-0.390808	
-0.392273	
-0.391296	
-0.390991	
-0.390747	
-0.39093	
-0.391479	
-0.389893	
-0.392029	
-0.391174	
-0.391174	
-0.391113	
-0.392761	
-0.391663	
-0.391418	
-0.389771	
-0.390747	
-0.391541	
-0.389526	
-0.390991	
-0.390198	
-0.389954	
-0.389832	
-0.391418	
-0.389893	
-0.389526	
-0.388489	
-0.389099	
-0.390076	
-0.38916	
-0.388794	
-0.388123	
-0.388611	
-0.388123	
-0.389099	
-0.38855	
-0.388794	
-0.387878	
-0.388794	
-0.389404	
-0.38916	
-0.389282	
-0.38855	
-0.389282	
-0.388794	
-0.39032	
-0.390198	
-0.390198	
-0.389526	
-0.390686	
-0.390564	
-0.390808	
-0.391602	
-0.390808	
-0.391724	
-0.393005	
-0.39325	
-0.392944	
-0.393188	
-0.391357	
-0.392761	
-0.39209	
-0.392517	
-0.391968	
-0.391479	
-0.391907	
-0.392822	
-0.391724	
-0.391418	
-0.392334	
-0.39032	
-0.390503	
-0.389648	
-0.390381	
-0.389648	
-0.389404	
-0.388916	
-0.389099	
-0.388184	
-0.387207	
-0.38739	
-0.386902	
-0.386902	
-0.385437	
-0.387146	
-0.385986	
	
