E:\DOCUMENTS AND SETTINGS\JPOTAS\MEUS DOCUMENTOS\UFRJ\RSCI-BM 12 WK SERIES\070723-RSCI-BM-06\RSCI-BM-06-REMG\070723-RSCI-BM-REMG-0000.ACQ
0.025000 msec/sample
1 channel
Analog input
Volts
CH1	
2000	
-0.38855	
-0.388672	
-0.388611	
-0.38855	
-0.38916	
-0.389099	
-0.390015	
-0.389587	
-0.389282	
-0.389404	
-0.389832	
-0.389404	
-0.389221	
-0.389954	
-0.390564	
-0.39032	
-0.389832	
-0.389954	
-0.389954	
-0.390259	
-0.390747	
-0.390259	
-0.391052	
-0.39032	
-0.390259	
-0.39032	
-0.389282	
-0.389893	
-0.390625	
-0.390015	
-0.389465	
-0.389465	
-0.389404	
-0.38916	
-0.388977	
-0.388062	
-0.388672	
-0.388916	
-0.387939	
-0.388184	
-0.388306	
-0.388611	
-0.388	
-0.387573	
-0.387329	
-0.387634	
-0.38739	
-0.388123	
-0.388306	
-0.387817	
-0.388184	
-0.388245	
-0.388306	
-0.388367	
-0.388367	
-0.388428	
-0.388977	
-0.388489	
-0.388611	
-0.388916	
-0.389343	
-0.389465	
-0.389954	
-0.389526	
-0.389404	
-0.389099	
-0.389221	
-0.389404	
-0.389648	
-0.389465	
-0.389893	
-0.39032	
-0.388733	
-0.388794	
-0.388916	
-0.38855	
-0.388428	
-0.388367	
-0.388306	
-0.388062	
-0.389099	
-0.389221	
-0.388489	
-0.388245	
-0.388977	
-0.389648	
-0.389404	
-0.389404	
-0.389893	
-0.389954	
-0.390259	
-0.39093	
-0.39032	
-0.390381	
-0.390625	
-0.39093	
-0.390869	
-0.391113	
-0.391541	
-0.391846	
-0.392212	
-0.392517	
-0.392578	
-0.3927	
-0.393188	
-0.393066	
-0.392334	
-0.391785	
-0.392212	
-0.391907	
-0.391785	
-0.391235	
-0.391113	
-0.390991	
-0.390747	
-0.39032	
-0.390198	
-0.389954	
-0.389709	
-0.389526	
-0.38916	
-0.388672	
-0.388306	
-0.38739	
-0.387085	
-0.387146	
-0.387024	
-0.386414	
-0.386719	
-0.386963	
-0.386597	
-0.38678	
-0.386658	
-0.386658	
-0.386963	
-0.386963	
-0.38678	
-0.386902	
-0.387634	
-0.387512	
-0.387268	
-0.387695	
-0.388245	
-0.388611	
-0.388855	
-0.389526	
-0.390503	
-0.390808	
-0.39093	
-0.391357	
-0.391357	
-0.391663	
-0.392273	
-0.391724	
-0.39209	
-0.391357	
-0.392395	
-0.391541	
-0.391541	
-0.392395	
-0.392517	
-0.392639	
-0.392822	
-0.392639	
-0.392334	
-0.392822	
-0.3927	
-0.392456	
-0.392151	
-0.392517	
-0.392639	
-0.392822	
-0.392639	
-0.392761	
-0.392273	
-0.391907	
-0.392578	
-0.391663	
-0.392334	
-0.392212	
-0.3927	
-0.392212	
-0.392029	
-0.391968	
-0.391663	
-0.391541	
-0.391357	
-0.390686	
-0.391174	
-0.390991	
-0.390442	
-0.390503	
-0.389893	
-0.389709	
-0.389954	
-0.389221	
-0.389526	
-0.378479	
-0.376099	
-0.377136	
-0.376831	
-0.376465	
-0.377075	
-0.389282	
-0.390625	
-0.391357	
-0.39093	
-0.390076	
-0.390625	
-0.390259	
-0.390259	
-0.390259	
-0.390076	
-0.390503	
-0.391113	
-0.390747	
-0.39032	
-0.390442	
-0.390503	
-0.390625	
-0.39032	
-0.390625	
-0.390076	
-0.390381	
-0.390686	
-0.390076	
-0.390015	
-0.390015	
-0.390076	
-0.389893	
-0.390015	
-0.390198	
-0.389893	
-0.389893	
-0.389893	
-0.390015	
-0.389832	
-0.389709	
-0.389954	
-0.390198	
-0.39032	
-0.390625	
-0.390869	
-0.39093	
-0.391235	
-0.391235	
-0.391968	
-0.392334	
-0.39209	
-0.392151	
-0.392761	
-0.392822	
-0.39325	
-0.39386	
-0.394043	
-0.394714	
-0.394531	
-0.39502	
-0.395447	
-0.395691	
-0.39563	
-0.395935	
-0.396484	
-0.396362	
-0.396118	
-0.397156	
-0.396851	
-0.396667	
-0.396545	
-0.397095	
-0.39679	
-0.396912	
-0.397095	
-0.39679	
-0.396667	
-0.396301	
-0.396545	
-0.396179	
-0.396606	
-0.397156	
-0.396606	
-0.396118	
-0.396484	
-0.39624	
-0.396606	
-0.397461	
-0.397644	
-0.397827	
-0.398438	
-0.398804	
-0.398987	
-0.399536	
-0.400269	
-0.400757	
-0.400879	
-0.401489	
-0.402405	
-0.403015	
-0.404236	
-0.40509	
-0.406067	
-0.407166	
-0.40802	
-0.408569	
-0.408813	
-0.409485	
-0.40918	
-0.40918	
-0.409485	
-0.409546	
-0.409302	
-0.40918	
-0.408813	
-0.408447	
-0.408142	
-0.407532	
-0.407227	
-0.405945	
-0.404419	
-0.403809	
-0.401978	
-0.400208	
-0.398132	
-0.397034	
-0.395203	
-0.394226	
-0.392151	
-0.391479	
-0.390442	
-0.389587	
-0.389282	
-0.388245	
-0.388	
-0.387878	
-0.389099	
-0.389282	
-0.389771	
-0.390076	
-0.390869	
-0.391541	
-0.39209	
-0.392456	
-0.392334	
-0.392761	
-0.392639	
-0.392456	
-0.392334	
-0.3927	
-0.392517	
-0.392578	
-0.393066	
-0.393555	
-0.394409	
-0.395447	
-0.397644	
-0.398254	
-0.399597	
-0.401428	
-0.403015	
-0.404236	
-0.406616	
-0.408447	
-0.410461	
-0.41217	
-0.414307	
-0.415955	
-0.418579	
-0.421631	
-0.424438	
-0.426697	
-0.429443	
-0.432129	
-0.435303	
-0.438293	
-0.440674	
-0.442688	
-0.445129	
-0.447571	
-0.4505	
-0.452393	
-0.454834	
-0.457458	
-0.45929	
-0.461426	
-0.463196	
-0.464355	
-0.465027	
-0.46637	
-0.466125	
-0.466492	
-0.464783	
-0.464294	
-0.462708	
-0.460571	
-0.458618	
-0.456421	
-0.453674	
-0.451477	
-0.449829	
-0.447083	
-0.445251	
-0.442871	
-0.441284	
-0.440491	
-0.438843	
-0.437317	
-0.436096	
-0.434753	
-0.433289	
-0.431946	
-0.430481	
-0.429688	
-0.429443	
-0.428467	
-0.427795	
-0.427124	
-0.426086	
-0.425293	
-0.424744	
-0.424194	
-0.423462	
-0.422974	
-0.422729	
-0.422058	
-0.421082	
-0.420227	
-0.419678	
-0.418152	
-0.417114	
-0.415588	
-0.414368	
-0.412964	
-0.41156	
-0.409851	
-0.409058	
-0.40802	
-0.406494	
-0.405701	
-0.405151	
-0.405029	
-0.404663	
-0.404663	
-0.404968	
-0.405396	
-0.405396	
-0.406006	
-0.406311	
-0.406616	
-0.407471	
-0.407288	
-0.406921	
-0.407043	
-0.40802	
-0.408142	
-0.408875	
-0.409424	
-0.409912	
-0.410034	
-0.410522	
-0.410645	
-0.409912	
-0.40979	
-0.409973	
-0.409485	
-0.408569	
-0.408203	
-0.407532	
-0.407104	
-0.406738	
-0.406067	
-0.405029	
-0.404053	
-0.404785	
-0.404297	
-0.40271	
-0.402283	
-0.401855	
-0.402039	
-0.40094	
-0.400269	
-0.399109	
-0.398682	
-0.39856	
-0.397461	
-0.39679	
-0.397034	
-0.396423	
-0.395569	
-0.395264	
-0.395142	
-0.394226	
-0.39325	
-0.392395	
-0.391479	
-0.390869	
-0.390076	
-0.389893	
-0.388977	
-0.387634	
-0.386658	
-0.38562	
-0.384888	
-0.383606	
-0.382813	
-0.381653	
-0.381042	
-0.38092	
-0.3797	
-0.378296	
-0.378113	
-0.377197	
-0.376343	
-0.375549	
-0.374695	
-0.374268	
-0.374023	
-0.37262	
-0.372314	
-0.372009	
-0.371094	
-0.370544	
-0.370667	
-0.370483	
-0.370239	
-0.3703	
-0.370361	
-0.369873	
-0.369263	
-0.368958	
-0.368835	
-0.368225	
-0.368469	
-0.367615	
-0.367554	
-0.367981	
-0.367737	
-0.36731	
-0.368103	
-0.36792	
-0.367859	
-0.367981	
-0.368286	
-0.368713	
-0.368713	
-0.369324	
-0.370178	
-0.370483	
-0.370972	
-0.371887	
-0.371704	
-0.372681	
-0.372925	
-0.373596	
-0.37384	
-0.374207	
-0.374878	
-0.374878	
-0.376343	
-0.375854	
-0.375488	
-0.376038	
-0.377075	
-0.37738	
-0.377747	
-0.378052	
-0.37854	
-0.379272	
-0.379395	
-0.379822	
-0.379395	
-0.379578	
-0.3797	
-0.380615	
-0.380493	
-0.38031	
-0.380554	
-0.381165	
-0.381104	
-0.381104	
-0.380981	
-0.381104	
-0.381531	
-0.381592	
-0.381287	
-0.381592	
-0.381775	
-0.381836	
-0.381836	
-0.381592	
-0.381531	
-0.381531	
-0.381531	
-0.381775	
-0.381653	
-0.381836	
-0.382629	
-0.382751	
-0.382874	
-0.383118	
-0.383484	
-0.383972	
-0.384216	
-0.384521	
-0.384827	
-0.38446	
-0.385071	
-0.386108	
-0.386353	
-0.386414	
-0.386719	
-0.387085	
-0.387268	
-0.387878	
-0.388916	
-0.388367	
-0.389038	
-0.389771	
-0.389343	
-0.389526	
-0.390015	
-0.389893	
-0.389893	
-0.389954	
-0.390015	
-0.390137	
-0.389526	
-0.389709	
-0.389893	
-0.38916	
-0.388916	
-0.388672	
-0.388428	
-0.387451	
-0.387024	
-0.386414	
-0.385925	
-0.385559	
-0.385132	
-0.385071	
-0.384216	
-0.384033	
-0.383484	
-0.383606	
-0.383545	
-0.382996	
-0.382629	
-0.382874	
-0.382935	
-0.38208	
-0.382324	
-0.382202	
-0.382813	
-0.382568	
-0.383057	
-0.382568	
-0.382446	
-0.383179	
-0.383362	
-0.383118	
-0.383057	
-0.383789	
-0.384338	
-0.384338	
-0.384766	
-0.384827	
-0.384949	
-0.385315	
-0.385132	
-0.384155	
-0.384155	
-0.384644	
-0.385132	
-0.385498	
-0.385071	
-0.385193	
-0.385437	
-0.386047	
-0.385864	
-0.386047	
-0.386108	
-0.386719	
-0.387451	
-0.387329	
-0.387268	
-0.387268	
-0.386902	
-0.387451	
-0.388306	
-0.388489	
-0.388916	
-0.388916	
-0.388916	
-0.388855	
-0.388794	
-0.388794	
-0.389587	
-0.389343	
-0.389526	
-0.389343	
-0.390015	
-0.389771	
-0.389099	
-0.389038	
-0.388916	
-0.389221	
-0.388855	
-0.388794	
-0.389404	
-0.389709	
-0.389099	
-0.388489	
-0.38855	
-0.389038	
-0.388306	
-0.388489	
-0.388916	
-0.388916	
-0.388855	
-0.388794	
-0.388916	
-0.388306	
-0.388611	
-0.388611	
-0.388611	
-0.388428	
-0.388428	
-0.388733	
-0.388672	
-0.38855	
-0.389038	
-0.38855	
-0.388489	
-0.389282	
-0.388733	
-0.387634	
-0.388306	
-0.388245	
-0.388	
-0.387878	
-0.387756	
-0.387146	
-0.387329	
-0.386841	
-0.386353	
-0.38678	
-0.386902	
-0.386536	
-0.386169	
-0.386597	
-0.386536	
-0.386597	
-0.386536	
-0.38678	
-0.386475	
-0.386719	
-0.387329	
-0.387512	
-0.387329	
-0.387329	
-0.387512	
-0.388245	
-0.388306	
-0.388367	
-0.388062	
-0.388611	
-0.389404	
-0.390076	
-0.389465	
-0.389832	
-0.390625	
-0.390198	
-0.390503	
-0.39032	
-0.390198	
-0.390137	
-0.390076	
-0.390015	
-0.389709	
-0.389038	
-0.389282	
-0.38916	
-0.388977	
-0.388733	
-0.388611	
-0.38855	
-0.388794	
-0.388245	
-0.387756	
-0.387756	
-0.38739	
-0.387207	
-0.386658	
-0.386658	
-0.386292	
-0.385925	
-0.386108	
-0.386353	
-0.386536	
-0.386963	
-0.386963	
-0.386963	
-0.387024	
-0.386841	
-0.387207	
-0.386902	
-0.38739	
-0.387817	
-0.387573	
-0.387634	
-0.388306	
-0.388733	
-0.389526	
-0.390015	
-0.39032	
-0.390869	
-0.390991	
-0.391479	
-0.391174	
-0.391541	
-0.391785	
-0.392029	
-0.391663	
-0.391785	
-0.392212	
-0.391418	
-0.391968	
-0.391785	
-0.392029	
-0.391907	
-0.391846	
-0.39209	
-0.391907	
-0.392029	
-0.391785	
-0.391785	
-0.391785	
-0.391663	
-0.392029	
-0.392273	
-0.392456	
-0.392883	
-0.392456	
-0.39209	
-0.391541	
-0.391907	
-0.392395	
-0.392151	
-0.392151	
-0.391968	
-0.392639	
-0.392578	
-0.392517	
-0.392639	
-0.392639	
-0.392029	
-0.391663	
-0.391785	
-0.391663	
-0.391541	
-0.391052	
-0.391235	
-0.390625	
-0.391235	
-0.390991	
-0.391479	
-0.392029	
-0.391174	
-0.39093	
-0.391357	
-0.391663	
-0.391846	
-0.392151	
-0.392151	
-0.392151	
-0.391785	
-0.39209	
-0.391724	
-0.391602	
-0.392151	
-0.391968	
-0.391907	
-0.392334	
-0.392822	
-0.392395	
-0.391907	
-0.392212	
-0.391846	
-0.391602	
-0.391846	
-0.391846	
-0.391724	
-0.391907	
-0.391602	
-0.391418	
-0.391174	
-0.390869	
-0.391602	
-0.390991	
-0.391174	
-0.391541	
-0.391052	
-0.39093	
-0.391357	
-0.39093	
-0.390747	
-0.391113	
-0.391418	
-0.391357	
-0.391724	
-0.391785	
-0.392212	
-0.392578	
-0.392395	
-0.392517	
-0.392639	
-0.392883	
-0.392822	
-0.392883	
-0.393372	
-0.393372	
-0.393921	
-0.394104	
-0.393677	
-0.39386	
-0.394531	
-0.394348	
-0.394409	
-0.394226	
-0.39386	
-0.394043	
-0.394165	
-0.393372	
-0.393738	
-0.39386	
-0.393677	
-0.393066	
-0.393494	
-0.393616	
-0.392944	
-0.392944	
-0.393005	
-0.392273	
-0.392212	
-0.392822	
-0.39209	
-0.39209	
-0.392029	
-0.391907	
-0.391602	
-0.391724	
-0.391968	
-0.391418	
-0.390808	
-0.392029	
-0.392334	
-0.391663	
-0.391907	
-0.3927	
-0.392273	
-0.393188	
-0.392883	
-0.393188	
-0.393494	
-0.393738	
-0.394653	
-0.394653	
-0.395386	
-0.395935	
-0.396851	
-0.397034	
-0.397095	
-0.397583	
-0.398071	
-0.398438	
-0.397949	
-0.397827	
-0.398376	
-0.398315	
-0.398682	
-0.398499	
-0.398315	
-0.398621	
-0.398743	
-0.398865	
-0.398865	
-0.398254	
-0.39917	
-0.399475	
-0.399414	
-0.398804	
-0.398621	
-0.398865	
-0.398682	
-0.398315	
-0.398071	
-0.397583	
-0.397888	
-0.397827	
-0.397461	
-0.3974	
-0.397461	
-0.397827	
-0.397217	
-0.397034	
-0.397217	
-0.396973	
-0.397095	
-0.397156	
-0.397766	
-0.397095	
-0.397156	
-0.397095	
-0.397217	
-0.396729	
-0.39679	
-0.396606	
-0.39679	
-0.395996	
-0.396057	
-0.395508	
-0.396057	
-0.39624	
-0.396545	
-0.396667	
-0.396545	
-0.397278	
-0.396851	
-0.396301	
-0.396667	
-0.396606	
-0.396912	
-0.396973	
-0.397217	
-0.397644	
-0.398132	
-0.398193	
-0.398499	
-0.397827	
-0.397949	
-0.399231	
-0.398865	
-0.399109	
-0.399292	
-0.399292	
-0.39917	
-0.398804	
-0.398987	
-0.399475	
-0.399597	
-0.399231	
-0.399658	
-0.39917	
-0.399231	
-0.399658	
-0.398926	
-0.398865	
-0.398743	
-0.398926	
-0.398621	
-0.398621	
-0.397827	
-0.398132	
-0.398071	
-0.397156	
-0.397461	
-0.397095	
-0.397705	
-0.397644	
-0.398132	
-0.397888	
-0.398071	
-0.39856	
-0.398804	
-0.398926	
-0.398865	
-0.398865	
-0.399109	
-0.399109	
-0.399048	
-0.398926	
-0.399353	
-0.399048	
-0.399475	
-0.399048	
-0.398743	
-0.397949	
-0.398071	
-0.398621	
-0.39801	
-0.397705	
-0.397888	
-0.397766	
-0.397583	
-0.397888	
-0.397217	
-0.3974	
-0.397644	
-0.396851	
-0.396423	
-0.396179	
-0.395874	
-0.395569	
-0.395447	
-0.395264	
-0.395264	
-0.395569	
-0.395752	
-0.39624	
-0.396179	
-0.39624	
-0.397278	
-0.397034	
-0.397034	
-0.397339	
-0.397766	
-0.397705	
-0.398132	
-0.398804	
-0.398804	
-0.398804	
-0.399292	
-0.400024	
-0.400452	
-0.40094	
-0.401611	
-0.401428	
-0.401245	
-0.401672	
-0.402222	
-0.402161	
-0.401489	
-0.401733	
-0.402283	
-0.401855	
-0.401733	
-0.40155	
-0.402039	
-0.4021	
-0.401733	
-0.401306	
-0.400757	
-0.400269	
-0.400269	
-0.400452	
-0.400146	
-0.399658	
-0.398865	
-0.39856	
-0.398438	
-0.397827	
-0.397583	
-0.397217	
-0.397522	
-0.397278	
-0.397217	
-0.396851	
-0.396851	
-0.397217	
-0.397156	
-0.39624	
-0.395874	
-0.39679	
-0.396729	
-0.39624	
-0.396423	
-0.396545	
-0.396667	
-0.396362	
-0.396301	
-0.396423	
-0.396423	
-0.396667	
-0.396912	
-0.397278	
-0.396301	
-0.396667	
-0.397217	
-0.397339	
-0.396912	
-0.396973	
-0.397339	
-0.397583	
-0.397949	
-0.397522	
-0.397583	
-0.39801	
-0.397949	
-0.398132	
-0.398132	
-0.398438	
-0.398926	
-0.398987	
-0.399231	
-0.399048	
-0.399292	
-0.399048	
-0.399475	
-0.399719	
-0.399231	
-0.399658	
-0.399841	
-0.39917	
-0.399292	
-0.399536	
-0.399475	
-0.399597	
-0.399597	
-0.399719	
-0.39978	
-0.399353	
-0.399902	
-0.399841	
-0.399231	
-0.399231	
-0.398193	
-0.398804	
-0.399231	
-0.399048	
-0.398499	
-0.398499	
-0.399048	
-0.39856	
-0.398682	
-0.398987	
-0.399353	
-0.398926	
-0.399048	
-0.399048	
-0.398926	
-0.39917	
-0.399475	
-0.399109	
-0.399841	
-0.39978	
-0.399475	
-0.398987	
-0.398865	
-0.398804	
-0.398865	
-0.398682	
-0.399048	
-0.39856	
-0.398804	
-0.398926	
-0.398254	
-0.39856	
-0.398132	
-0.398193	
-0.398193	
-0.397522	
-0.397888	
-0.398071	
-0.397156	
-0.397095	
-0.397583	
-0.39679	
-0.396912	
-0.396973	
-0.396667	
-0.396179	
-0.396606	
-0.396729	
-0.396606	
-0.3974	
-0.397339	
-0.3974	
-0.397644	
-0.397888	
-0.397827	
-0.397766	
-0.398254	
-0.398071	
-0.398865	
-0.398987	
-0.398926	
-0.399292	
-0.399597	
-0.399719	
-0.39978	
-0.400024	
-0.400391	
-0.40033	
-0.400269	
-0.400452	
-0.400696	
-0.40094	
-0.400696	
-0.400635	
-0.400635	
-0.399902	
-0.400085	
-0.400146	
-0.399475	
-0.399048	
-0.399292	
-0.39917	
-0.399109	
-0.398254	
-0.398071	
-0.397644	
-0.396729	
-0.396545	
-0.395813	
-0.395691	
-0.395203	
-0.395081	
-0.394531	
-0.394531	
-0.395081	
-0.394348	
-0.394226	
-0.393921	
-0.39447	
-0.393616	
-0.393433	
-0.393799	
-0.393433	
-0.393311	
-0.393372	
-0.39325	
-0.393799	
-0.393982	
-0.393616	
-0.393555	
-0.394043	
-0.394348	
-0.394836	
-0.394653	
-0.394958	
-0.395264	
-0.395508	
-0.39563	
-0.396179	
-0.39563	
-0.39563	
-0.395691	
-0.395691	
-0.395935	
-0.396179	
-0.396362	
-0.395996	
-0.396484	
-0.396484	
-0.396667	
-0.396179	
-0.396423	
-0.396423	
-0.396973	
-0.397095	
-0.3974	
-0.397461	
-0.397217	
-0.397278	
-0.396667	
-0.3974	
-0.397461	
-0.397461	
-0.396606	
-0.397034	
-0.3974	
-0.397278	
-0.396545	
-0.396301	
-0.396362	
-0.396545	
-0.396423	
-0.396667	
-0.396179	
-0.395142	
-0.395142	
-0.395447	
-0.395203	
-0.394043	
-0.394287	
-0.395081	
-0.394714	
-0.394836	
-0.394226	
-0.394226	
-0.394226	
-0.394226	
-0.393982	
-0.394348	
-0.39447	
-0.394531	
-0.394348	
-0.394348	
-0.394958	
-0.394897	
-0.394653	
-0.395142	
-0.394958	
-0.395569	
-0.395508	
-0.395508	
-0.395691	
-0.39563	
-0.395508	
-0.395508	
-0.395569	
-0.396118	
-0.39563	
-0.395447	
-0.395569	
-0.395752	
-0.395142	
-0.395264	
-0.395081	
-0.395264	
-0.394653	
-0.394897	
-0.395142	
-0.394897	
-0.393921	
-0.39447	
-0.394714	
-0.39502	
-0.39502	
-0.395142	
-0.395325	
-0.395569	
-0.395691	
-0.395813	
-0.395874	
-0.395813	
-0.396057	
-0.396301	
-0.396362	
-0.396545	
-0.397156	
-0.396912	
-0.397461	
-0.397644	
-0.39801	
-0.397583	
-0.398315	
-0.398438	
-0.398254	
-0.398071	
-0.39801	
-0.398071	
-0.397461	
-0.397156	
-0.396606	
-0.396545	
-0.396606	
-0.396362	
-0.395935	
-0.395996	
-0.39563	
-0.395142	
-0.395325	
-0.394958	
-0.394348	
-0.394287	
-0.393982	
-0.393188	
-0.3927	
-0.392334	
-0.391907	
-0.392151	
-0.391846	
-0.391846	
-0.392029	
-0.392029	
-0.392578	
-0.391785	
-0.391968	
-0.391846	
-0.392395	
-0.392334	
-0.392029	
-0.392334	
-0.3927	
-0.393066	
-0.392639	
-0.393555	
-0.394104	
-0.39447	
-0.394958	
-0.395325	
-0.396301	
-0.396423	
-0.396606	
-0.397217	
-0.397034	
-0.397095	
-0.396851	
-0.396912	
-0.396851	
-0.397339	
-0.396912	
-0.397339	
-0.397034	
-0.397522	
-0.3974	
-0.397644	
-0.397827	
-0.397278	
-0.397278	
-0.397522	
-0.39679	
-0.397278	
-0.397339	
-0.397156	
-0.3974	
-0.397766	
-0.397522	
-0.397278	
-0.396973	
-0.397034	
-0.397156	
-0.396851	
-0.396729	
-0.396057	
-0.396423	
-0.39679	
-0.396484	
-0.395752	
-0.395691	
-0.395203	
-0.395813	
-0.395264	
-0.395142	
-0.39502	
-0.39502	
-0.394104	
-0.393738	
-0.393982	
-0.393921	
-0.393066	
-0.39386	
-0.393799	
-0.393616	
-0.393616	
-0.393677	
-0.393555	
-0.39325	
-0.393494	
-0.393738	
-0.394226	
-0.393921	
-0.393677	
-0.393677	
-0.393982	
-0.394104	
-0.393921	
-0.393433	
-0.394226	
-0.394165	
-0.394653	
-0.39447	
-0.394287	
-0.394409	
-0.393555	
-0.393616	
-0.393616	
-0.39386	
-0.394104	
-0.393616	
-0.393494	
-0.393433	
-0.393677	
-0.393005	
-0.393188	
-0.393188	
-0.393127	
-0.393311	
-0.393127	
-0.393372	
-0.393127	
-0.393066	
-0.393311	
-0.393311	
-0.39386	
-0.393188	
-0.393372	
-0.393982	
-0.394226	
-0.394043	
-0.394104	
-0.394653	
-0.394104	
-0.39447	
-0.394653	
-0.394653	
-0.39502	
-0.395142	
-0.395569	
-0.395325	
-0.395142	
-0.395508	
-0.395325	
-0.394714	
-0.395325	
-0.395447	
-0.394775	
-0.394714	
-0.394531	
-0.394165	
-0.394104	
-0.393982	
-0.393799	
-0.393921	
-0.393494	
-0.393127	
-0.393311	
-0.392944	
-0.392578	
-0.392456	
-0.392395	
-0.392456	
-0.391907	
-0.391663	
-0.39209	
-0.391541	
-0.39093	
-0.391602	
-0.391479	
-0.391418	
-0.391418	
-0.391418	
-0.391785	
-0.391418	
-0.391907	
-0.392761	
-0.391968	
-0.39209	
-0.3927	
-0.392883	
-0.3927	
-0.393494	
-0.394836	
-0.395081	
-0.394897	
-0.396057	
-0.396362	
-0.396423	
-0.396606	
-0.396851	
-0.397034	
-0.396729	
-0.3974	
-0.397217	
-0.397339	
-0.397644	
-0.397644	
-0.397583	
-0.397461	
-0.398132	
-0.397339	
-0.3974	
-0.397461	
-0.397644	
-0.397583	
-0.397522	
-0.397217	
-0.397217	
-0.397522	
-0.396667	
-0.396179	
-0.395569	
-0.395935	
-0.395386	
-0.395386	
-0.395386	
-0.395325	
-0.395142	
-0.394958	
-0.394409	
-0.394836	
-0.394531	
-0.395081	
-0.394775	
-0.39447	
-0.394409	
-0.394409	
-0.394348	
-0.394165	
-0.393921	
-0.394226	
-0.394043	
-0.393799	
-0.394104	
-0.393616	
-0.392944	
-0.393127	
-0.392883	
-0.392944	
-0.393433	
-0.393677	
-0.393738	
-0.393982	
-0.394348	
-0.39447	
-0.394409	
-0.393677	
-0.393433	
-0.394165	
-0.394592	
-0.394897	
-0.394592	
-0.395264	
-0.395508	
-0.395447	
-0.39502	
-0.394836	
-0.395325	
-0.395813	
-0.395508	
-0.395752	
-0.395447	
-0.394958	
-0.395447	
-0.395874	
-0.395508	
-0.395935	
-0.395386	
-0.395935	
-0.395813	
-0.395386	
-0.39502	
-0.39502	
-0.395386	
-0.395569	
-0.394409	
-0.394104	
-0.394348	
-0.394226	
-0.393738	
-0.393799	
-0.393127	
-0.393616	
-0.393677	
-0.393982	
-0.393738	
-0.393677	
-0.394043	
-0.39447	
-0.393616	
-0.393677	
-0.394531	
-0.394287	
-0.394653	
-0.39447	
-0.394653	
-0.394897	
-0.394348	
-0.394165	
-0.393982	
-0.393982	
-0.393982	
-0.39386	
-0.393555	
-0.393372	
-0.393433	
-0.392761	
-0.3927	
-0.392883	
-0.392578	
-0.391907	
-0.391846	
-0.392029	
-0.39209	
-0.391174	
-0.391113	
-0.391296	
-0.39093	
-0.390259	
-0.39032	
-0.390442	
-0.390198	
-0.390503	
-0.390381	
-0.390747	
-0.391174	
-0.39093	
-0.391479	
-0.391846	
-0.391785	
-0.391724	
-0.392334	
-0.392761	
-0.392456	
-0.392517	
-0.393555	
-0.393433	
-0.393799	
-0.394348	
-0.394836	
-0.395386	
-0.395569	
-0.396057	
-0.395874	
-0.396118	
-0.396057	
-0.396118	
-0.395325	
-0.395569	
-0.396301	
-0.396057	
-0.395813	
-0.395813	
-0.395508	
-0.395752	
-0.394897	
-0.394836	
-0.394653	
-0.393982	
-0.394043	
-0.393677	
-0.393066	
-0.392822	
-0.393005	
-0.39209	
-0.391174	
-0.390991	
-0.39093	
-0.390686	
-0.390625	
-0.390442	
-0.390259	
-0.390015	
-0.390259	
-0.389832	
-0.389648	
-0.390015	
-0.389587	
-0.389832	
-0.389587	
-0.389221	
-0.389709	
-0.389771	
-0.389954	
-0.389404	
-0.38916	
-0.389404	
-0.389343	
-0.389709	
-0.389526	
-0.389648	
-0.389587	
-0.389587	
-0.390198	
-0.390015	
-0.389709	
-0.390381	
-0.390686	
-0.390503	
-0.390137	
-0.390625	
-0.39093	
-0.390808	
-0.390564	
-0.390747	
-0.391968	
-0.39209	
-0.392578	
-0.391968	
-0.392029	
-0.392456	
-0.392273	
-0.392517	
-0.392822	
-0.392395	
-0.392395	
-0.39325	
-0.393799	
-0.393066	
-0.392883	
-0.391907	
-0.393005	
-0.392517	
-0.392761	
-0.3927	
-0.392517	
-0.392822	
-0.392883	
-0.392883	
-0.392517	
-0.391968	
-0.391785	
-0.391602	
-0.391602	
-0.392273	
-0.391846	
-0.391968	
-0.392029	
-0.391968	
-0.391479	
-0.391418	
-0.391663	
-0.392273	
-0.391968	
-0.391907	
-0.391968	
-0.39209	
-0.392517	
-0.392395	
-0.392029	
-0.392517	
-0.392639	
-0.391846	
-0.392151	
-0.391846	
-0.392029	
-0.391846	
-0.391724	
-0.391235	
-0.391174	
-0.390747	
-0.390991	
-0.391052	
-0.390686	
-0.390503	
-0.390259	
-0.390137	
-0.390686	
-0.390503	
-0.389771	
-0.390137	
-0.389709	
-0.389404	
-0.38916	
-0.388977	
-0.38916	
-0.389282	
-0.389343	
-0.389404	
-0.389526	
-0.389893	
-0.390015	
-0.390442	
-0.390137	
-0.390442	
-0.390564	
-0.390991	
-0.390869	
-0.390808	
-0.391174	
-0.392029	
-0.391663	
-0.391541	
-0.391907	
-0.391968	
-0.392212	
-0.392578	
-0.392883	
-0.392944	
-0.3927	
-0.393005	
-0.393311	
-0.393311	
-0.393005	
-0.392883	
-0.393066	
-0.392578	
-0.392151	
-0.391968	
-0.392212	
-0.391785	
-0.391235	
-0.391479	
-0.391235	
-0.390808	
-0.390259	
-0.390137	
-0.388855	
-0.388184	
-0.387939	
-0.387573	
-0.387207	
-0.38739	
-0.387207	
-0.386536	
-0.387146	
-0.386658	
-0.386414	
-0.386719	
-0.386475	
-0.386047	
-0.38562	
-0.385559	
-0.386108	
-0.385864	
-0.385681	
-0.386047	
-0.385986	
-0.38623	
-0.385925	
-0.385986	
-0.386292	
-0.38678	
-0.386536	
-0.387146	
-0.386963	
-0.387329	
-0.388062	
-0.388	
-0.388062	
	
