E:\DOCUMENTS AND SETTINGS\JPOTAS\MEUS DOCUMENTOS\UFRJ\RSCI-BM 12 WK SERIES\070723-RSCI-BM-06\RSCI-BM-06-REMG\070723-RSCI-BM-REMG-0002.ACQ
0.025000 msec/sample
1 channel
Analog input
Volts
CH1	
2000	
-0.391968	
-0.391968	
-0.391968	
-0.391724	
-0.391724	
-0.391785	
-0.391724	
-0.391418	
-0.391968	
-0.391907	
-0.391602	
-0.391479	
-0.391479	
-0.391541	
-0.391052	
-0.391113	
-0.391663	
-0.392151	
-0.391846	
-0.391418	
-0.392212	
-0.391846	
-0.392334	
-0.391663	
-0.391663	
-0.392212	
-0.391907	
-0.390625	
-0.391296	
-0.39093	
-0.391113	
-0.390442	
-0.390747	
-0.390503	
-0.39032	
-0.390869	
-0.391357	
-0.390686	
-0.390076	
-0.390076	
-0.391113	
-0.39093	
-0.391235	
-0.391174	
-0.391724	
-0.391296	
-0.391296	
-0.391357	
-0.391296	
-0.391785	
-0.392212	
-0.391602	
-0.391418	
-0.392395	
-0.392151	
-0.39325	
-0.392883	
-0.393311	
-0.392883	
-0.392395	
-0.392639	
-0.392395	
-0.392151	
-0.392334	
-0.391907	
-0.391541	
-0.391235	
-0.39093	
-0.390869	
-0.390442	
-0.390076	
-0.390564	
-0.389893	
-0.390076	
-0.390747	
-0.390259	
-0.390503	
-0.390442	
-0.390198	
-0.389954	
-0.390564	
-0.390503	
-0.39032	
-0.390137	
-0.391174	
-0.390991	
-0.390503	
-0.390808	
-0.390625	
-0.390442	
-0.390564	
-0.390808	
-0.390625	
-0.390747	
-0.390991	
-0.391052	
-0.391235	
-0.391479	
-0.391052	
-0.391296	
-0.390991	
-0.390991	
-0.390503	
-0.389893	
-0.389648	
-0.389465	
-0.38916	
-0.389038	
-0.38916	
-0.388428	
-0.388367	
-0.388489	
-0.387695	
-0.387451	
-0.387756	
-0.387268	
-0.387268	
-0.387695	
-0.38739	
-0.387512	
-0.387634	
-0.388184	
-0.387878	
-0.387817	
-0.38855	
-0.388489	
-0.388794	
-0.389282	
-0.389648	
-0.38916	
-0.389832	
-0.390198	
-0.390137	
-0.390503	
-0.390564	
-0.390808	
-0.39032	
-0.391296	
-0.391479	
-0.392029	
-0.392151	
-0.392639	
-0.392883	
-0.392273	
-0.393005	
-0.392883	
-0.393066	
-0.392212	
-0.392273	
-0.392517	
-0.392517	
-0.392578	
-0.391785	
-0.391602	
-0.392151	
-0.39209	
-0.391968	
-0.391724	
-0.392944	
-0.392212	
-0.39209	
-0.391724	
-0.391663	
-0.390686	
-0.390442	
-0.390137	
-0.389465	
-0.38916	
-0.389099	
-0.389221	
-0.388611	
-0.388672	
-0.388245	
-0.388611	
-0.389099	
-0.388489	
-0.388428	
-0.388428	
-0.388733	
-0.388306	
-0.388428	
-0.388184	
-0.388367	
-0.388306	
-0.388123	
-0.388428	
-0.388672	
-0.389221	
-0.388733	
-0.388916	
-0.388367	
-0.388977	
-0.388611	
-0.388306	
-0.388855	
-0.388916	
-0.388916	
-0.382019	
-0.378967	
-0.378967	
-0.378784	
-0.377991	
-0.378357	
-0.387024	
-0.390137	
-0.391357	
-0.391479	
-0.391907	
-0.391907	
-0.391846	
-0.392395	
-0.391907	
-0.391968	
-0.392273	
-0.392883	
-0.392395	
-0.391968	
-0.392273	
-0.391602	
-0.392517	
-0.392334	
-0.3927	
-0.392517	
-0.392456	
-0.392639	
-0.391968	
-0.392212	
-0.391907	
-0.392151	
-0.392334	
-0.39209	
-0.391907	
-0.391602	
-0.391479	
-0.391418	
-0.391907	
-0.391418	
-0.391418	
-0.391846	
-0.391541	
-0.391663	
-0.391968	
-0.392334	
-0.392212	
-0.392273	
-0.392151	
-0.393005	
-0.393066	
-0.393005	
-0.392456	
-0.393616	
-0.39386	
-0.393433	
-0.393982	
-0.393677	
-0.393982	
-0.393555	
-0.394043	
-0.394348	
-0.39386	
-0.394653	
-0.394348	
-0.394653	
-0.395081	
-0.395813	
-0.395691	
-0.395264	
-0.395996	
-0.396057	
-0.395874	
-0.395569	
-0.39624	
-0.396729	
-0.396057	
-0.396118	
-0.396179	
-0.396362	
-0.396484	
-0.396973	
-0.396729	
-0.397522	
-0.397583	
-0.397827	
-0.398071	
-0.398865	
-0.399109	
-0.399536	
-0.400208	
-0.401123	
-0.401489	
-0.401367	
-0.402527	
-0.40271	
-0.403564	
-0.404907	
-0.405884	
-0.406311	
-0.407166	
-0.407837	
-0.408142	
-0.409058	
-0.408813	
-0.409119	
-0.40979	
-0.40918	
-0.409607	
-0.409729	
-0.409302	
-0.409485	
-0.40918	
-0.408447	
-0.407837	
-0.407532	
-0.406982	
-0.406006	
-0.404968	
-0.404236	
-0.402771	
-0.40094	
-0.399597	
-0.397461	
-0.395569	
-0.394226	
-0.393005	
-0.391235	
-0.389954	
-0.389526	
-0.388123	
-0.387817	
-0.386902	
-0.387207	
-0.387329	
-0.388184	
-0.388916	
-0.389099	
-0.39032	
-0.391663	
-0.392273	
-0.392273	
-0.393616	
-0.394348	
-0.395386	
-0.396362	
-0.397522	
-0.398499	
-0.399231	
-0.400452	
-0.40155	
-0.4021	
-0.403259	
-0.404297	
-0.405762	
-0.407104	
-0.40863	
-0.409668	
-0.410889	
-0.412537	
-0.413513	
-0.414795	
-0.416382	
-0.418579	
-0.419678	
-0.421082	
-0.424011	
-0.425903	
-0.427856	
-0.429871	
-0.432312	
-0.434448	
-0.435913	
-0.438416	
-0.441284	
-0.443176	
-0.445862	
-0.448364	
-0.450378	
-0.452881	
-0.454956	
-0.456909	
-0.458496	
-0.4599	
-0.461548	
-0.463257	
-0.463989	
-0.464966	
-0.465454	
-0.464661	
-0.464417	
-0.463318	
-0.462097	
-0.460571	
-0.458557	
-0.457397	
-0.455139	
-0.453552	
-0.451416	
-0.449646	
-0.448486	
-0.44696	
-0.444885	
-0.443787	
-0.442505	
-0.441162	
-0.440063	
-0.437988	
-0.436279	
-0.434448	
-0.433167	
-0.431274	
-0.429626	
-0.428284	
-0.42688	
-0.426147	
-0.424683	
-0.423706	
-0.422424	
-0.421448	
-0.420654	
-0.420166	
-0.419434	
-0.418945	
-0.418274	
-0.416992	
-0.416504	
-0.416138	
-0.414795	
-0.414063	
-0.413086	
-0.412659	
-0.411865	
-0.411072	
-0.410706	
-0.410095	
-0.408997	
-0.408081	
-0.408264	
-0.407471	
-0.407349	
-0.407593	
-0.40741	
-0.407043	
-0.407532	
-0.407593	
-0.407776	
-0.407593	
-0.407898	
-0.407776	
-0.407166	
-0.407043	
-0.407288	
-0.406555	
-0.405762	
-0.405762	
-0.405457	
-0.404968	
-0.405518	
-0.404907	
-0.404419	
-0.404175	
-0.402893	
-0.4021	
-0.401428	
-0.400818	
-0.399353	
-0.399658	
-0.398987	
-0.397888	
-0.397217	
-0.397278	
-0.396362	
-0.395691	
-0.395508	
-0.394775	
-0.394409	
-0.393433	
-0.393494	
-0.393677	
-0.392822	
-0.392883	
-0.392578	
-0.392334	
-0.392395	
-0.392273	
-0.392517	
-0.391968	
-0.392212	
-0.391846	
-0.391785	
-0.391357	
-0.390991	
-0.390259	
-0.389526	
-0.388733	
-0.388367	
-0.388123	
-0.387085	
-0.388	
-0.386963	
-0.386719	
-0.385376	
-0.385193	
-0.38446	
-0.383423	
-0.382935	
-0.382446	
-0.381958	
-0.380615	
-0.380737	
-0.379822	
-0.379333	
-0.378601	
-0.377319	
-0.376892	
-0.376526	
-0.375122	
-0.374268	
-0.374084	
-0.373657	
-0.372925	
-0.372559	
-0.371521	
-0.37146	
-0.370361	
-0.370239	
-0.370056	
-0.369385	
-0.369141	
-0.368958	
-0.368164	
-0.367371	
-0.368347	
-0.367798	
-0.367859	
-0.367676	
-0.368225	
-0.367615	
-0.367004	
-0.367493	
-0.367737	
-0.367615	
-0.367188	
-0.368042	
-0.367981	
-0.368042	
-0.368774	
-0.369141	
-0.369446	
-0.369873	
-0.370239	
-0.370911	
-0.371643	
-0.37207	
-0.371826	
-0.372192	
-0.372559	
-0.373291	
-0.373718	
-0.374084	
-0.374451	
-0.373962	
-0.374207	
-0.374756	
-0.375122	
-0.375977	
-0.375732	
-0.375793	
-0.37616	
-0.376404	
-0.377136	
-0.376953	
-0.377136	
-0.377625	
-0.377258	
-0.377563	
-0.378113	
-0.378235	
-0.378052	
-0.378357	
-0.378845	
-0.378418	
-0.378479	
-0.378662	
-0.378784	
-0.378052	
-0.378296	
-0.379089	
-0.379089	
-0.379211	
-0.37915	
-0.379578	
-0.379761	
-0.379822	
-0.380066	
-0.380188	
-0.380615	
-0.380493	
-0.38092	
-0.380798	
-0.381287	
-0.381409	
-0.381714	
-0.381775	
-0.382019	
-0.382446	
-0.382568	
-0.383362	
-0.383484	
-0.384277	
-0.383545	
-0.384583	
-0.384888	
-0.384705	
-0.385193	
-0.385315	
-0.385498	
-0.385132	
-0.385498	
-0.385498	
-0.385315	
-0.385559	
-0.385315	
-0.385132	
-0.385193	
-0.385498	
-0.384766	
-0.384949	
-0.384521	
-0.384155	
-0.383972	
-0.383789	
-0.383484	
-0.382935	
-0.383057	
-0.382996	
-0.382385	
-0.382324	
-0.382751	
-0.382568	
-0.382019	
-0.382813	
-0.383057	
-0.382751	
-0.382813	
-0.383301	
-0.383667	
-0.383667	
-0.384399	
-0.384521	
-0.38446	
-0.385315	
-0.385742	
-0.385803	
-0.386292	
-0.387146	
-0.386902	
-0.387451	
-0.388184	
-0.388367	
-0.388	
-0.388489	
-0.388916	
-0.388428	
-0.388916	
-0.388672	
-0.388489	
-0.387939	
-0.388367	
-0.388184	
-0.387939	
-0.387939	
-0.387817	
-0.388306	
-0.387817	
-0.388245	
-0.388123	
-0.388	
-0.388367	
-0.388123	
-0.388245	
-0.388306	
-0.38855	
-0.388367	
-0.388977	
-0.388489	
-0.388428	
-0.388794	
-0.389099	
-0.389038	
-0.388977	
-0.388916	
-0.388733	
-0.388916	
-0.388977	
-0.388367	
-0.389099	
-0.388184	
-0.388428	
-0.387329	
-0.38739	
-0.38678	
-0.387268	
-0.387329	
-0.387146	
-0.387268	
-0.387451	
-0.387146	
-0.387146	
-0.386902	
-0.386292	
-0.387268	
-0.387207	
-0.387512	
-0.387085	
-0.38739	
-0.387573	
-0.387146	
-0.38678	
-0.386658	
-0.387085	
-0.387756	
-0.387756	
-0.387634	
-0.387573	
-0.387939	
-0.387451	
-0.388	
-0.38739	
-0.387634	
-0.387329	
-0.387024	
-0.387207	
-0.386353	
-0.386841	
-0.385925	
-0.386108	
-0.38623	
-0.385864	
-0.386047	
-0.385925	
-0.386108	
-0.386047	
-0.386414	
-0.386536	
-0.386902	
-0.386963	
-0.387451	
-0.387817	
-0.388	
-0.388428	
-0.388306	
-0.388733	
-0.388916	
-0.389404	
-0.38916	
-0.389893	
-0.390259	
-0.39032	
-0.390625	
-0.391174	
-0.391602	
-0.391296	
-0.391235	
-0.391418	
-0.391602	
-0.391541	
-0.391663	
-0.391357	
-0.391663	
-0.391418	
-0.390991	
-0.390442	
-0.390137	
-0.389771	
-0.389954	
-0.388855	
-0.388245	
-0.387817	
-0.387634	
-0.387024	
-0.386841	
-0.386902	
-0.385986	
-0.385315	
-0.385254	
-0.385437	
-0.385193	
-0.384827	
-0.384949	
-0.385193	
-0.385254	
-0.385132	
-0.385559	
-0.385437	
-0.385803	
-0.385681	
-0.385742	
-0.386658	
-0.386292	
-0.386353	
-0.386536	
-0.386719	
-0.38623	
-0.386597	
-0.387268	
-0.387512	
-0.388367	
-0.388367	
-0.389038	
-0.389099	
-0.389038	
-0.389343	
-0.389648	
-0.389832	
-0.389404	
-0.389709	
-0.389465	
-0.389404	
-0.389587	
-0.389709	
-0.389099	
-0.389526	
-0.389587	
-0.389282	
-0.389526	
-0.389587	
-0.390015	
-0.389526	
-0.389343	
-0.389526	
-0.388611	
-0.388794	
-0.388489	
-0.387756	
-0.387878	
-0.388367	
-0.388062	
-0.387634	
-0.38739	
-0.387512	
-0.387512	
-0.387085	
-0.387207	
-0.387268	
-0.387634	
-0.387695	
-0.388306	
-0.388	
-0.388428	
-0.388184	
-0.388	
-0.388184	
-0.388062	
-0.387878	
-0.388245	
-0.388916	
-0.388062	
-0.387878	
-0.388489	
-0.388794	
-0.389038	
-0.388733	
-0.388916	
-0.388855	
-0.388916	
-0.389343	
-0.389343	
-0.389282	
-0.38916	
-0.390015	
-0.390015	
-0.390259	
-0.389526	
-0.389526	
-0.390259	
-0.390198	
-0.39032	
-0.390198	
-0.391357	
-0.391174	
-0.390747	
-0.391052	
-0.391174	
-0.390991	
-0.390808	
-0.391479	
-0.391724	
-0.391235	
-0.391357	
-0.391541	
-0.391724	
-0.391296	
-0.391785	
-0.391541	
-0.391541	
-0.391296	
-0.391846	
-0.39209	
-0.392273	
-0.392151	
-0.391785	
-0.391907	
-0.391846	
-0.391541	
-0.392517	
-0.392944	
-0.393005	
-0.3927	
-0.392456	
-0.392761	
-0.393372	
-0.392822	
-0.392761	
-0.393494	
-0.394409	
-0.394104	
-0.39386	
-0.394226	
-0.394531	
-0.394348	
-0.394226	
-0.394531	
-0.394226	
-0.394165	
-0.394348	
-0.394043	
-0.393982	
-0.393921	
-0.393494	
-0.393433	
-0.392883	
-0.393188	
-0.393127	
-0.393127	
-0.393005	
-0.392944	
-0.3927	
-0.392517	
-0.392517	
-0.392029	
-0.391479	
-0.391541	
-0.392395	
-0.391418	
-0.391663	
-0.391907	
-0.391418	
-0.391541	
-0.391785	
-0.39209	
-0.392151	
-0.392456	
-0.392517	
-0.392822	
-0.392944	
-0.392944	
-0.392761	
-0.393311	
-0.393799	
-0.393372	
-0.394348	
-0.394775	
-0.394836	
-0.39502	
-0.395447	
-0.39502	
-0.395142	
-0.395813	
-0.396057	
-0.395447	
-0.395142	
-0.395508	
-0.39502	
-0.395142	
-0.394836	
-0.394775	
-0.394653	
-0.394653	
-0.394287	
-0.393799	
-0.394043	
-0.393982	
-0.393311	
-0.393066	
-0.393005	
-0.393372	
-0.392334	
-0.392639	
-0.39209	
-0.391541	
-0.391357	
-0.390747	
-0.390442	
-0.39032	
-0.390869	
-0.390503	
-0.390198	
-0.390808	
-0.391479	
-0.391235	
-0.391541	
-0.392029	
-0.39209	
-0.392456	
-0.391968	
-0.391663	
-0.392029	
-0.392456	
-0.392578	
-0.392578	
-0.392212	
-0.392395	
-0.3927	
-0.392578	
-0.392944	
-0.392883	
-0.392151	
-0.392334	
-0.3927	
-0.393005	
-0.392578	
-0.392029	
-0.393005	
-0.392883	
-0.392517	
-0.392334	
-0.392578	
-0.393005	
-0.393433	
-0.39325	
-0.393311	
-0.393311	
-0.393494	
-0.393677	
-0.393494	
-0.393433	
-0.393372	
-0.394348	
-0.394104	
-0.39386	
-0.394043	
-0.394104	
-0.394165	
-0.393677	
-0.393372	
-0.393188	
-0.393494	
-0.394043	
-0.393738	
-0.393372	
-0.392822	
-0.39325	
-0.393433	
-0.393188	
-0.392578	
-0.392151	
-0.392822	
-0.392578	
-0.392151	
-0.392151	
-0.392944	
-0.392822	
-0.392761	
-0.392639	
-0.3927	
-0.393188	
-0.393311	
-0.394104	
-0.393677	
-0.394226	
-0.394775	
-0.394653	
-0.394287	
-0.394653	
-0.394531	
-0.394592	
-0.394653	
-0.394836	
-0.39502	
-0.39502	
-0.395386	
-0.394714	
-0.394531	
-0.395142	
-0.394714	
-0.394714	
-0.395081	
-0.39502	
-0.394836	
-0.394958	
-0.394836	
-0.394409	
-0.394714	
-0.394287	
-0.394348	
-0.394043	
-0.393921	
-0.394287	
-0.39386	
-0.393982	
-0.393921	
-0.394165	
-0.39447	
-0.394714	
-0.394897	
-0.395081	
-0.39563	
-0.396423	
-0.396484	
-0.396362	
-0.396301	
-0.396423	
-0.396851	
-0.397461	
-0.397339	
-0.397461	
-0.397705	
-0.397766	
-0.397705	
-0.397827	
-0.397217	
-0.396851	
-0.396973	
-0.397034	
-0.396851	
-0.396362	
-0.396484	
-0.395996	
-0.395447	
-0.394897	
-0.395142	
-0.394531	
-0.39502	
-0.395081	
-0.394226	
-0.394653	
-0.394409	
-0.39386	
-0.393372	
-0.392822	
-0.393066	
-0.392334	
-0.392151	
-0.391846	
-0.391541	
-0.391541	
-0.391968	
-0.391541	
-0.391479	
-0.392029	
-0.392212	
-0.392517	
-0.392334	
-0.392761	
-0.392395	
-0.392639	
-0.392822	
-0.392273	
-0.392517	
-0.392395	
-0.392334	
-0.392944	
-0.393555	
-0.39325	
-0.393616	
-0.394592	
-0.394348	
-0.395081	
-0.394592	
-0.395325	
-0.39563	
-0.395813	
-0.395935	
-0.39563	
-0.395996	
-0.395935	
-0.396545	
-0.395874	
-0.396179	
-0.395874	
-0.395813	
-0.396179	
-0.396484	
-0.395935	
-0.395996	
-0.396667	
-0.396362	
-0.395813	
-0.395752	
-0.395996	
-0.396362	
-0.395691	
-0.395447	
-0.395874	
-0.396118	
-0.396301	
-0.396057	
-0.39563	
-0.395935	
-0.395264	
-0.395142	
-0.395203	
-0.395142	
-0.39502	
-0.39502	
-0.394714	
-0.394531	
-0.394531	
-0.393738	
-0.393799	
-0.39386	
-0.3927	
-0.392883	
-0.392883	
-0.392944	
-0.39325	
-0.392517	
-0.393066	
-0.392578	
-0.392639	
-0.393127	
-0.393127	
-0.393127	
-0.393433	
-0.39325	
-0.393188	
-0.393738	
-0.393005	
-0.393066	
-0.392456	
-0.392517	
-0.393188	
-0.393738	
-0.393555	
-0.393616	
-0.393311	
-0.393311	
-0.393555	
-0.392944	
-0.393311	
-0.393555	
-0.39386	
-0.393616	
-0.393066	
-0.393127	
-0.393982	
-0.393799	
-0.39325	
-0.393127	
-0.393738	
-0.393555	
-0.393188	
-0.393188	
-0.393372	
-0.392822	
-0.393188	
-0.393372	
-0.393616	
-0.393677	
-0.393555	
-0.394409	
-0.394714	
-0.394226	
-0.394348	
-0.394653	
-0.394348	
-0.394226	
-0.394714	
-0.394958	
-0.395386	
-0.395081	
-0.39563	
-0.395813	
-0.395508	
-0.395569	
-0.395691	
-0.395996	
-0.395447	
-0.395508	
-0.395264	
-0.395874	
-0.39563	
-0.395447	
-0.395447	
-0.395142	
-0.394836	
-0.39447	
-0.394653	
-0.394104	
-0.394165	
-0.39386	
-0.393555	
-0.393127	
-0.392883	
-0.392822	
-0.392944	
-0.392456	
-0.391724	
-0.392151	
-0.391724	
-0.391846	
-0.391907	
-0.391479	
-0.391968	
-0.391785	
-0.392334	
-0.392212	
-0.392517	
-0.392639	
-0.392517	
-0.392517	
-0.392944	
-0.393616	
-0.393555	
-0.393555	
-0.39447	
-0.394592	
-0.394531	
-0.394653	
-0.395447	
-0.395996	
-0.396301	
-0.396606	
-0.396484	
-0.397278	
-0.397095	
-0.397156	
-0.397644	
-0.397034	
-0.397339	
-0.397339	
-0.397278	
-0.397034	
-0.397278	
-0.396729	
-0.397034	
-0.396667	
-0.39679	
-0.39679	
-0.396301	
-0.396423	
-0.396545	
-0.396057	
-0.395996	
-0.395508	
-0.396423	
-0.396912	
-0.396179	
-0.395752	
-0.396667	
-0.396667	
-0.396667	
-0.39624	
-0.396912	
-0.396606	
-0.396545	
-0.396362	
-0.396606	
-0.396851	
-0.396667	
-0.396973	
-0.396118	
-0.396362	
-0.396179	
-0.396301	
-0.396362	
-0.395569	
-0.395508	
-0.39502	
-0.395935	
-0.395691	
-0.395447	
-0.395447	
-0.395996	
-0.395569	
-0.395935	
-0.396301	
-0.396484	
-0.396484	
-0.396545	
-0.396362	
-0.396606	
-0.39679	
-0.397156	
-0.396606	
-0.396423	
-0.397034	
-0.397583	
-0.397949	
-0.398438	
-0.398071	
-0.397339	
-0.397461	
-0.397644	
-0.397949	
-0.397156	
-0.397156	
-0.397278	
-0.397583	
-0.396973	
-0.39679	
-0.396057	
-0.395813	
-0.395996	
-0.395874	
-0.395691	
-0.396179	
-0.395508	
-0.395325	
-0.395325	
-0.395386	
-0.395081	
-0.395142	
-0.39563	
-0.395386	
-0.395203	
-0.395752	
-0.395569	
-0.395935	
-0.395569	
-0.394836	
-0.395508	
-0.395447	
-0.395203	
-0.395569	
-0.395508	
-0.395874	
-0.395935	
-0.395996	
-0.39679	
-0.39624	
-0.396057	
-0.395935	
-0.396545	
-0.395813	
-0.395935	
-0.395935	
-0.395264	
-0.394897	
-0.39447	
-0.394653	
-0.394714	
-0.394104	
-0.393677	
-0.393433	
-0.39325	
-0.393127	
-0.392761	
-0.392822	
-0.392639	
-0.392578	
-0.3927	
-0.39209	
-0.392578	
-0.392578	
-0.392822	
-0.393127	
-0.39325	
-0.393555	
-0.393494	
-0.39386	
-0.394287	
-0.394409	
-0.394897	
-0.395203	
-0.395264	
-0.395386	
-0.395569	
-0.395386	
-0.395874	
-0.395935	
-0.395935	
-0.395813	
-0.397217	
-0.397461	
-0.397522	
-0.397705	
-0.398071	
-0.398926	
-0.398315	
-0.397705	
-0.397644	
-0.397766	
-0.397583	
-0.397705	
-0.397278	
-0.396912	
-0.397766	
-0.397583	
-0.397217	
-0.397583	
-0.3974	
-0.3974	
-0.397339	
-0.396973	
-0.396606	
-0.396851	
-0.396423	
-0.395508	
-0.394958	
-0.394592	
-0.394836	
-0.394958	
-0.395142	
-0.393799	
-0.393616	
-0.393799	
-0.393982	
-0.393799	
-0.393494	
-0.393494	
-0.393555	
-0.393433	
-0.393127	
-0.393311	
-0.393555	
-0.393982	
-0.393494	
-0.393799	
-0.393982	
-0.394043	
-0.393616	
-0.393921	
-0.393799	
-0.393433	
-0.394104	
-0.393799	
-0.394043	
-0.394409	
-0.394165	
-0.394226	
-0.394653	
-0.394897	
-0.394897	
-0.394714	
-0.394165	
-0.395081	
-0.394836	
-0.394775	
-0.395203	
-0.39563	
-0.395447	
-0.396484	
-0.396667	
-0.396423	
-0.396301	
-0.396423	
-0.396545	
-0.396667	
-0.396912	
-0.396912	
-0.396545	
-0.396667	
-0.396973	
-0.397095	
-0.396912	
-0.396545	
-0.396729	
-0.396851	
-0.396484	
-0.397278	
-0.396362	
-0.397034	
-0.397095	
-0.396851	
-0.395935	
-0.395813	
-0.39624	
-0.396301	
-0.396118	
-0.395935	
-0.395691	
-0.395691	
-0.396179	
-0.396545	
-0.39624	
-0.395874	
-0.395813	
-0.395569	
-0.395569	
-0.395813	
-0.395935	
-0.395874	
-0.395935	
-0.396057	
-0.395996	
-0.395874	
-0.395874	
-0.396118	
-0.395569	
-0.395203	
-0.39563	
-0.395447	
-0.39502	
-0.395142	
-0.395142	
-0.394592	
-0.395264	
-0.394897	
-0.394714	
-0.394226	
-0.394287	
-0.394226	
-0.39386	
-0.393677	
-0.394226	
-0.393677	
-0.393372	
-0.393616	
-0.393616	
-0.393188	
-0.393494	
-0.393921	
-0.393005	
-0.393494	
-0.393677	
-0.393433	
-0.393982	
-0.394348	
-0.394348	
-0.394226	
-0.395142	
-0.395264	
-0.39447	
-0.395264	
-0.395996	
-0.395447	
-0.395691	
-0.396729	
-0.396606	
-0.396667	
-0.397339	
-0.396973	
-0.39679	
-0.397339	
-0.397278	
-0.396851	
-0.396545	
-0.396484	
-0.396912	
-0.396362	
-0.396179	
-0.396301	
-0.396057	
-0.395325	
-0.395325	
-0.394897	
-0.394897	
-0.394836	
-0.394226	
-0.393982	
-0.394043	
-0.39325	
-0.393188	
-0.3927	
-0.391907	
-0.391663	
-0.391724	
-0.391113	
-0.390686	
-0.390747	
-0.390686	
-0.390686	
-0.390625	
-0.390808	
-0.391541	
-0.391113	
-0.391174	
-0.391479	
-0.39209	
-0.391479	
-0.391663	
-0.391846	
-0.391663	
-0.391479	
-0.391968	
-0.392212	
-0.39209	
-0.391663	
-0.391724	
-0.391907	
-0.391785	
-0.390869	
-0.391479	
-0.391663	
-0.392395	
-0.392395	
-0.392029	
-0.391602	
-0.392029	
-0.391296	
-0.391846	
-0.391663	
-0.391602	
-0.391418	
-0.391418	
-0.392456	
-0.393188	
-0.392212	
-0.392334	
-0.393066	
-0.392822	
-0.392212	
-0.392456	
-0.392639	
-0.392456	
-0.392761	
-0.392273	
-0.391968	
-0.391663	
-0.391968	
-0.391663	
-0.391907	
-0.391541	
-0.391235	
-0.391479	
-0.391174	
-0.392151	
-0.390991	
-0.391174	
-0.390686	
-0.390259	
-0.390137	
-0.390686	
-0.389893	
-0.389709	
-0.39032	
-0.390198	
-0.390564	
-0.390259	
-0.390076	
-0.391174	
-0.390808	
-0.391174	
-0.391357	
-0.391724	
-0.391541	
-0.391418	
-0.391235	
-0.391418	
-0.392151	
-0.392395	
-0.391785	
-0.391785	
-0.391724	
-0.392151	
-0.391907	
-0.391724	
-0.391174	
-0.391296	
-0.391235	
-0.391907	
-0.391418	
-0.391724	
-0.391724	
-0.391479	
-0.391602	
-0.391113	
-0.391235	
-0.391113	
-0.391052	
-0.390869	
-0.390686	
-0.391113	
-0.390686	
-0.390991	
-0.391235	
-0.390747	
-0.390747	
-0.391052	
-0.391113	
-0.391968	
-0.392517	
-0.392273	
-0.392212	
-0.392639	
-0.392944	
-0.39325	
-0.393494	
-0.394104	
-0.39386	
-0.393799	
-0.394165	
-0.393799	
-0.393616	
-0.394226	
-0.393982	
-0.39386	
-0.393188	
-0.393677	
-0.393433	
-0.393066	
-0.392883	
-0.392517	
-0.392334	
-0.392334	
-0.391785	
-0.391663	
-0.391724	
-0.391174	
-0.390564	
-0.391174	
-0.391174	
-0.390259	
-0.39032	
-0.389526	
-0.389709	
-0.389038	
-0.388672	
-0.388794	
-0.388367	
-0.387878	
-0.387939	
-0.388245	
-0.388245	
-0.388245	
-0.388062	
-0.388489	
-0.388733	
-0.388672	
-0.388855	
-0.388733	
-0.388733	
-0.389038	
-0.388733	
-0.388428	
-0.38855	
-0.388611	
-0.389282	
-0.389282	
-0.390137	
-0.390198	
-0.390442	
-0.390747	
-0.390686	
-0.390991	
-0.391357	
-0.391602	
-0.391357	
-0.391418	
-0.391968	
-0.392212	
-0.392029	
-0.392822	
-0.392334	
-0.392029	
-0.391663	
-0.392212	
-0.391907	
-0.392212	
-0.391785	
-0.391846	
-0.392029	
-0.391724	
-0.392273	
-0.392212	
-0.392151	
-0.392273	
-0.391785	
-0.391479	
-0.391907	
-0.391479	
-0.391663	
-0.391602	
-0.390808	
-0.391602	
-0.391724	
-0.391724	
-0.391541	
-0.391174	
-0.39032	
-0.390747	
-0.390259	
-0.390686	
-0.390381	
-0.389832	
-0.389465	
-0.389343	
-0.389404	
-0.388611	
-0.388916	
-0.388916	
-0.388062	
-0.388855	
-0.388794	
-0.388794	
-0.388977	
-0.388977	
-0.388916	
-0.389038	
-0.389221	
-0.388916	
-0.389038	
-0.388794	
-0.388916	
-0.388977	
-0.388611	
-0.388367	
-0.388733	
-0.389404	
-0.389221	
-0.389404	
-0.38916	
-0.389282	
-0.389404	
-0.388733	
-0.388611	
-0.388733	
-0.388916	
-0.389343	
-0.388977	
-0.389282	
-0.389465	
-0.389221	
-0.389038	
-0.389404	
-0.388489	
-0.38855	
-0.388977	
-0.389038	
-0.389099	
-0.388977	
-0.388733	
-0.389587	
-0.389587	
-0.389221	
-0.389771	
-0.389771	
-0.389587	
-0.389954	
-0.390137	
-0.389954	
-0.390137	
-0.389954	
-0.389954	
-0.390442	
-0.390625	
-0.390564	
-0.390808	
-0.391357	
-0.391235	
-0.391174	
-0.391357	
-0.391296	
-0.391174	
-0.391296	
-0.391052	
-0.391357	
-0.391174	
-0.390747	
-0.390381	
-0.390625	
-0.39093	
-0.389893	
-0.389587	
-0.389709	
-0.389587	
-0.38916	
-0.389282	
-0.389038	
-0.388611	
-0.388489	
-0.388428	
-0.387695	
-0.387207	
-0.387573	
-0.387756	
-0.387207	
-0.387024	
-0.387573	
-0.38739	
-0.38739	
-0.387634	
-0.387695	
-0.388123	
-0.388184	
-0.387756	
-0.388367	
-0.389038	
-0.388977	
-0.389465	
-0.389404	
-0.389587	
-0.389954	
-0.389648	
-0.39093	
-0.391357	
-0.391174	
-0.391541	
-0.392639	
-0.392883	
-0.392395	
-0.392944	
-0.3927	
-0.393066	
-0.393005	
-0.392578	
-0.392517	
-0.392273	
-0.392395	
-0.392151	
	
