E:\DOCUMENTS AND SETTINGS\JPOTAS\MEUS DOCUMENTOS\UFRJ\RSCI-BM 12 WK SERIES\070718-RSCI-BM-03\RSCI-BM-03-REMG\070718-RSCI-BM-03-REMG-0001.ACQ
0.025000 msec/sample
1 channel
Analog input
Volts
CH1	
2000	
-0.395142	
-0.393921	
-0.394104	
-0.391785	
-0.393738	
-0.3927	
-0.39386	
-0.393677	
-0.394226	
-0.394165	
-0.394409	
-0.394592	
-0.392822	
-0.394897	
-0.393005	
-0.393433	
-0.394226	
-0.392578	
-0.393982	
-0.394409	
-0.395081	
-0.394409	
-0.395874	
-0.39386	
-0.394409	
-0.394714	
-0.394104	
-0.393555	
-0.393982	
-0.394104	
-0.393799	
-0.394714	
-0.394043	
-0.393799	
-0.393127	
-0.393066	
-0.393066	
-0.392578	
-0.392822	
-0.391907	
-0.391663	
-0.392761	
-0.39325	
-0.392883	
-0.392151	
-0.393433	
-0.391479	
-0.392761	
-0.39209	
-0.392273	
-0.390808	
-0.391296	
-0.391541	
-0.39093	
-0.392334	
-0.391052	
-0.391174	
-0.389954	
-0.390442	
-0.388977	
-0.389587	
-0.389465	
-0.388489	
-0.390015	
-0.390564	
-0.392273	
-0.392456	
-0.392029	
-0.390869	
-0.391418	
-0.391663	
-0.391296	
-0.392822	
-0.392029	
-0.391724	
-0.3927	
-0.392883	
-0.3927	
-0.393921	
-0.393677	
-0.392334	
-0.393433	
-0.392456	
-0.393005	
-0.392639	
-0.392151	
-0.393188	
-0.393311	
-0.394348	
-0.393555	
-0.394897	
-0.39386	
-0.393982	
-0.393188	
-0.392334	
-0.3927	
-0.392944	
-0.392029	
-0.392944	
-0.393799	
-0.393738	
-0.395264	
-0.393677	
-0.393555	
-0.39325	
-0.394775	
-0.394287	
-0.393494	
-0.392578	
-0.393311	
-0.394043	
-0.394592	
-0.395264	
-0.393677	
-0.392639	
-0.393127	
-0.393372	
-0.393433	
-0.393372	
-0.391785	
-0.393188	
-0.393494	
-0.394409	
-0.393066	
-0.3927	
-0.392029	
-0.392151	
-0.392456	
-0.392151	
-0.391907	
-0.391846	
-0.391846	
-0.392517	
-0.393005	
-0.393188	
-0.394104	
-0.393616	
-0.392639	
-0.391602	
-0.393066	
-0.392639	
-0.393005	
-0.392212	
-0.393372	
-0.392578	
-0.3927	
-0.393372	
-0.3927	
-0.391663	
-0.391418	
-0.39386	
-0.392639	
-0.392944	
-0.392395	
-0.391846	
-0.392212	
-0.392639	
-0.393188	
-0.391663	
-0.391235	
-0.391724	
-0.391357	
-0.39209	
-0.391357	
-0.391479	
-0.391296	
-0.391357	
-0.392029	
-0.392212	
-0.391602	
-0.390808	
-0.390686	
-0.390808	
-0.392456	
-0.392456	
-0.392029	
-0.391174	
-0.392517	
-0.393066	
-0.392761	
-0.392517	
-0.391602	
-0.391174	
-0.391663	
-0.393433	
-0.391418	
-0.391846	
-0.392029	
-0.390137	
-0.391052	
-0.392517	
-0.392029	
-0.391235	
-0.391113	
-0.390991	
-0.389465	
-0.391052	
-0.359741	
-0.368713	
-0.373352	
-0.37677	
-0.378174	
-0.378418	
-0.413086	
-0.397583	
-0.391174	
-0.389893	
-0.390442	
-0.389465	
-0.389038	
-0.388916	
-0.390015	
-0.388855	
-0.390381	
-0.390137	
-0.389038	
-0.390015	
-0.390015	
-0.391479	
-0.391663	
-0.392517	
-0.391785	
-0.391357	
-0.392029	
-0.392944	
-0.392334	
-0.392212	
-0.391846	
-0.389954	
-0.391724	
-0.392822	
-0.391602	
-0.391541	
-0.391235	
-0.392578	
-0.392273	
-0.394043	
-0.392822	
-0.392334	
-0.391663	
-0.392456	
-0.393555	
-0.392212	
-0.392456	
-0.392212	
-0.392639	
-0.392822	
-0.393066	
-0.392151	
-0.39209	
-0.391174	
-0.391296	
-0.39093	
-0.392883	
-0.391418	
-0.39032	
-0.391113	
-0.391602	
-0.391296	
-0.391357	
-0.391785	
-0.390137	
-0.388489	
-0.390747	
-0.391907	
-0.391357	
-0.39209	
-0.391541	
-0.392883	
-0.39209	
-0.393799	
-0.393555	
-0.392456	
-0.391785	
-0.392578	
-0.393982	
-0.392395	
-0.392578	
-0.391785	
-0.392883	
-0.392944	
-0.392761	
-0.392029	
-0.392334	
-0.391785	
-0.391968	
-0.394043	
-0.393738	
-0.393494	
-0.393127	
-0.393494	
-0.395386	
-0.396912	
-0.396729	
-0.396973	
-0.397827	
-0.397156	
-0.399353	
-0.400696	
-0.402161	
-0.404419	
-0.405457	
-0.407959	
-0.410583	
-0.413879	
-0.414795	
-0.416443	
-0.417053	
-0.421936	
-0.424683	
-0.426453	
-0.42926	
-0.430969	
-0.433716	
-0.436096	
-0.438049	
-0.43927	
-0.440613	
-0.441711	
-0.444519	
-0.446106	
-0.446899	
-0.447937	
-0.448792	
-0.450989	
-0.452332	
-0.452515	
-0.451355	
-0.449463	
-0.447266	
-0.447693	
-0.446899	
-0.44519	
-0.444153	
-0.442017	
-0.440796	
-0.439758	
-0.438782	
-0.436035	
-0.43396	
-0.430237	
-0.429321	
-0.42865	
-0.426086	
-0.424622	
-0.423584	
-0.424255	
-0.423828	
-0.42511	
-0.425781	
-0.425476	
-0.424988	
-0.426575	
-0.429321	
-0.428894	
-0.430359	
-0.431763	
-0.434204	
-0.435608	
-0.439148	
-0.440674	
-0.441223	
-0.442627	
-0.445679	
-0.448914	
-0.449097	
-0.452209	
-0.453979	
-0.456177	
-0.4599	
-0.46405	
-0.465027	
-0.466797	
-0.468689	
-0.471436	
-0.473694	
-0.474548	
-0.475647	
-0.476196	
-0.47644	
-0.478882	
-0.480042	
-0.479309	
-0.47937	
-0.478821	
-0.477844	
-0.477539	
-0.47644	
-0.474243	
-0.472534	
-0.470032	
-0.468628	
-0.466736	
-0.463623	
-0.459351	
-0.456177	
-0.451904	
-0.448425	
-0.445557	
-0.440552	
-0.436646	
-0.431824	
-0.428162	
-0.425049	
-0.422058	
-0.418274	
-0.414673	
-0.409851	
-0.408325	
-0.40625	
-0.4021	
-0.400269	
-0.396667	
-0.392761	
-0.391235	
-0.390991	
-0.385864	
-0.381958	
-0.378296	
-0.375305	
-0.371155	
-0.367432	
-0.363708	
-0.359741	
-0.356873	
-0.354004	
-0.351685	
-0.347168	
-0.344482	
-0.342285	
-0.339294	
-0.336243	
-0.334656	
-0.330872	
-0.327576	
-0.324097	
-0.323059	
-0.320923	
-0.31842	
-0.316956	
-0.316223	
-0.315796	
-0.315247	
-0.316345	
-0.315857	
-0.316895	
-0.316833	
-0.318237	
-0.319458	
-0.319763	
-0.320068	
-0.321777	
-0.322998	
-0.323608	
-0.325623	
-0.326965	
-0.328552	
-0.328674	
-0.330994	
-0.334473	
-0.336182	
-0.336426	
-0.336243	
-0.338074	
-0.340271	
-0.341675	
-0.34198	
-0.341736	
-0.340881	
-0.344299	
-0.347351	
-0.346191	
-0.344482	
-0.34491	
-0.346924	
-0.348694	
-0.34729	
-0.347839	
-0.347717	
-0.348694	
-0.349426	
-0.351257	
-0.350403	
-0.349609	
-0.349854	
-0.349915	
-0.353394	
-0.352844	
-0.353333	
-0.352478	
-0.354065	
-0.355774	
-0.356567	
-0.356445	
-0.356384	
-0.355347	
-0.356201	
-0.358765	
-0.358093	
-0.357788	
-0.357117	
-0.359863	
-0.360657	
-0.360779	
-0.360168	
-0.359497	
-0.359619	
-0.361511	
-0.362488	
-0.361267	
-0.361938	
-0.361816	
-0.363464	
-0.363037	
-0.36499	
-0.36499	
-0.364624	
-0.365784	
-0.367249	
-0.367859	
-0.367126	
-0.367554	
-0.366272	
-0.369385	
-0.369385	
-0.369568	
-0.369812	
-0.369568	
-0.36969	
-0.37146	
-0.370911	
-0.37146	
-0.372009	
-0.371094	
-0.373779	
-0.375	
-0.373474	
-0.373291	
-0.374756	
-0.374817	
-0.376099	
-0.375854	
-0.376526	
-0.376465	
-0.375427	
-0.37677	
-0.377808	
-0.376282	
-0.376465	
-0.375671	
-0.375854	
-0.376953	
-0.376038	
-0.374634	
-0.374634	
-0.373962	
-0.374939	
-0.37561	
-0.375183	
-0.374329	
-0.375488	
-0.376953	
-0.376831	
-0.377136	
-0.375549	
-0.375305	
-0.374634	
-0.375366	
-0.374817	
-0.374207	
-0.37384	
-0.372986	
-0.37262	
-0.37384	
-0.374329	
-0.372131	
-0.372314	
-0.370972	
-0.371582	
-0.371643	
-0.371033	
-0.369568	
-0.370239	
-0.369629	
-0.371094	
-0.371704	
-0.370789	
-0.370667	
-0.369629	
-0.370422	
-0.371155	
-0.371216	
-0.369751	
-0.371155	
-0.369568	
-0.371277	
-0.372681	
-0.372864	
-0.372864	
-0.372498	
-0.372437	
-0.373718	
-0.374512	
-0.373291	
-0.37439	
-0.372559	
-0.374023	
-0.375244	
-0.376038	
-0.375793	
-0.375061	
-0.372986	
-0.375732	
-0.376892	
-0.37616	
-0.375488	
-0.37439	
-0.376343	
-0.377197	
-0.377686	
-0.376343	
-0.376831	
-0.375366	
-0.376282	
-0.377563	
-0.376709	
-0.37677	
-0.37616	
-0.378113	
-0.378052	
-0.378906	
-0.377014	
-0.378113	
-0.377258	
-0.377747	
-0.378357	
-0.378174	
-0.377075	
-0.376343	
-0.376221	
-0.377625	
-0.378784	
-0.377563	
-0.377136	
-0.37738	
-0.376953	
-0.379456	
-0.378845	
-0.376709	
-0.376831	
-0.377075	
-0.377808	
-0.378418	
-0.377502	
-0.377319	
-0.376526	
-0.376038	
-0.377563	
-0.377747	
-0.376648	
-0.376587	
-0.376404	
-0.376892	
-0.376587	
-0.377197	
-0.376343	
-0.376648	
-0.376953	
-0.377686	
-0.377014	
-0.376892	
-0.375793	
-0.376587	
-0.377197	
-0.376526	
-0.377075	
-0.37738	
-0.37677	
-0.376221	
-0.376648	
-0.377197	
-0.375793	
-0.376038	
-0.376831	
-0.375916	
-0.377136	
-0.377563	
-0.377197	
-0.377441	
-0.377686	
-0.376404	
-0.377502	
-0.377319	
-0.375793	
-0.376953	
-0.376038	
-0.376221	
-0.377136	
-0.377563	
-0.376343	
-0.376709	
-0.376404	
-0.375732	
-0.376953	
-0.375061	
-0.375	
-0.375183	
-0.375916	
-0.375854	
-0.376343	
-0.375916	
-0.37561	
-0.375732	
-0.375	
-0.375366	
-0.374146	
-0.374939	
-0.374084	
-0.374268	
-0.373535	
-0.373474	
-0.372803	
-0.372375	
-0.371887	
-0.372375	
-0.37262	
-0.371033	
-0.371704	
-0.371216	
-0.372375	
-0.372559	
-0.373596	
-0.373901	
-0.374268	
-0.373169	
-0.37439	
-0.374146	
-0.372559	
-0.375427	
-0.374756	
-0.373901	
-0.374878	
-0.376648	
-0.375793	
-0.375305	
-0.37561	
-0.374207	
-0.375427	
-0.375793	
-0.375366	
-0.375366	
-0.376404	
-0.376709	
-0.375854	
-0.375916	
-0.376343	
-0.376526	
-0.375122	
-0.375366	
-0.374817	
-0.375488	
-0.375122	
-0.375977	
-0.375977	
-0.376099	
-0.37616	
-0.376221	
-0.376282	
-0.375671	
-0.376892	
-0.375122	
-0.375061	
-0.376038	
-0.37616	
-0.375549	
-0.376221	
-0.375916	
-0.376099	
-0.377319	
-0.375671	
-0.374268	
-0.374146	
-0.374268	
-0.375427	
-0.375793	
-0.373779	
-0.374329	
-0.375061	
-0.375916	
-0.375549	
-0.373962	
-0.372742	
-0.373108	
-0.374451	
-0.373169	
-0.373047	
-0.37323	
-0.373352	
-0.374207	
-0.373779	
-0.373901	
-0.373413	
-0.373657	
-0.37384	
-0.374268	
-0.373108	
-0.373047	
-0.373047	
-0.372498	
-0.372253	
-0.371826	
-0.372375	
-0.372803	
-0.372437	
-0.370667	
-0.371704	
-0.370422	
-0.37085	
-0.370422	
-0.370239	
-0.371338	
-0.371643	
-0.370911	
-0.370239	
-0.37146	
-0.369751	
-0.369263	
-0.369263	
-0.369385	
-0.368896	
-0.36792	
-0.368896	
-0.368774	
-0.369568	
-0.368591	
-0.368225	
-0.366577	
-0.36731	
-0.369019	
-0.367493	
-0.367371	
-0.367249	
-0.36792	
-0.368042	
-0.368408	
-0.367554	
-0.36731	
-0.366211	
-0.366516	
-0.367065	
-0.366638	
-0.366333	
-0.365784	
-0.366394	
-0.366028	
-0.366028	
-0.365051	
-0.365417	
-0.363953	
-0.364014	
-0.364441	
-0.363892	
-0.363586	
-0.363586	
-0.363464	
-0.363342	
-0.36438	
-0.363831	
-0.362305	
-0.362183	
-0.361084	
-0.361877	
-0.361755	
-0.362	
-0.360962	
-0.360657	
-0.361694	
-0.362305	
-0.362976	
-0.362183	
-0.361328	
-0.360779	
-0.362427	
-0.361816	
-0.362915	
-0.363159	
-0.363037	
-0.363403	
-0.363831	
-0.365784	
-0.364014	
-0.363098	
-0.362488	
-0.362976	
-0.361084	
-0.362244	
-0.362305	
-0.361389	
-0.362305	
-0.363525	
-0.363831	
-0.362793	
-0.362793	
-0.362671	
-0.362732	
-0.36261	
-0.36322	
-0.362671	
-0.361145	
-0.362915	
-0.362671	
-0.363098	
-0.362732	
-0.363525	
-0.361389	
-0.359558	
-0.363037	
-0.363159	
-0.362427	
-0.362122	
-0.363281	
-0.362305	
-0.362488	
-0.363159	
-0.363464	
-0.361084	
-0.360718	
-0.362793	
-0.362732	
-0.362671	
-0.362183	
-0.362183	
-0.360779	
-0.362244	
-0.363464	
-0.362671	
-0.361633	
-0.361145	
-0.361572	
-0.363037	
-0.362854	
-0.362793	
-0.361572	
-0.362671	
-0.364563	
-0.364868	
-0.36438	
-0.363708	
-0.363037	
-0.363342	
-0.364441	
-0.364563	
-0.364319	
-0.364319	
-0.365173	
-0.366699	
-0.366821	
-0.366699	
-0.365906	
-0.365417	
-0.362976	
-0.364319	
-0.364624	
-0.365234	
-0.365662	
-0.365234	
-0.36615	
-0.365356	
-0.366028	
-0.365295	
-0.365479	
-0.36554	
-0.366821	
-0.366455	
-0.366394	
-0.365845	
-0.365784	
-0.366211	
-0.366821	
-0.368286	
-0.367126	
-0.367188	
-0.366394	
-0.367126	
-0.367737	
-0.367981	
-0.367676	
-0.367676	
-0.368591	
-0.369019	
-0.370239	
-0.369385	
-0.369446	
-0.369019	
-0.369507	
-0.370178	
-0.3703	
-0.370056	
-0.370422	
-0.371216	
-0.371155	
-0.37085	
-0.370239	
-0.370911	
-0.370178	
-0.369812	
-0.371094	
-0.370605	
-0.371155	
-0.371399	
-0.372009	
-0.371277	
-0.372437	
-0.372253	
-0.371277	
-0.37146	
-0.371826	
-0.371643	
-0.371399	
-0.371521	
-0.371399	
-0.372375	
-0.371826	
-0.372192	
-0.372742	
-0.372253	
-0.371826	
-0.372192	
-0.372742	
-0.372375	
-0.37207	
-0.372986	
-0.37439	
-0.373535	
-0.373657	
-0.375122	
-0.373535	
-0.373535	
-0.374146	
-0.374451	
-0.374634	
-0.375488	
-0.374695	
-0.375366	
-0.375671	
-0.375244	
-0.374756	
-0.375305	
-0.37561	
-0.374023	
-0.376282	
-0.376404	
-0.37677	
-0.377197	
-0.378235	
-0.378052	
-0.378052	
-0.378906	
-0.378723	
-0.378357	
-0.37677	
-0.380066	
-0.378906	
-0.378052	
-0.378479	
-0.378723	
-0.377258	
-0.37793	
-0.377869	
-0.377441	
-0.377258	
-0.374878	
-0.376709	
-0.376343	
-0.376099	
-0.376892	
-0.376587	
-0.376526	
-0.377014	
-0.376343	
-0.375793	
-0.375732	
-0.373779	
-0.37561	
-0.376343	
-0.376282	
-0.376831	
-0.376587	
-0.376038	
-0.376221	
-0.376892	
-0.376404	
-0.376099	
-0.373535	
-0.376404	
-0.377991	
-0.377502	
-0.376709	
-0.37738	
-0.376831	
-0.376953	
-0.376587	
-0.376038	
-0.375854	
-0.373596	
-0.375671	
-0.377869	
-0.377258	
-0.376953	
-0.377014	
-0.375977	
-0.376892	
-0.377563	
-0.377625	
-0.376831	
-0.376282	
-0.377625	
-0.377869	
-0.377991	
-0.377502	
-0.377625	
-0.378174	
-0.379456	
-0.380371	
-0.379089	
-0.379028	
-0.379272	
-0.379089	
-0.378784	
-0.37793	
-0.37915	
-0.379883	
-0.379578	
-0.379089	
-0.379089	
-0.377502	
-0.378113	
-0.378845	
-0.377625	
-0.377869	
-0.378601	
-0.379395	
-0.379822	
-0.379089	
-0.378906	
-0.378967	
-0.378906	
-0.379578	
-0.379456	
-0.378601	
-0.379517	
-0.379395	
-0.379395	
-0.379456	
-0.379028	
-0.378723	
-0.379089	
-0.377869	
-0.378845	
-0.37915	
-0.378845	
-0.380127	
-0.378357	
-0.379517	
-0.379944	
-0.380188	
-0.379883	
-0.380127	
-0.379639	
-0.3797	
-0.3797	
-0.378235	
-0.379456	
-0.378052	
-0.37915	
-0.37854	
-0.379028	
-0.380066	
-0.378906	
-0.378235	
-0.379578	
-0.37915	
-0.377869	
-0.379272	
-0.378784	
-0.378845	
-0.379028	
-0.3797	
-0.380249	
-0.379211	
-0.37915	
-0.379333	
-0.380188	
-0.379517	
-0.3797	
-0.379578	
-0.380432	
-0.380615	
-0.381531	
-0.381104	
-0.38092	
-0.381714	
-0.380737	
-0.381531	
-0.380432	
-0.381226	
-0.380615	
-0.38208	
-0.381836	
-0.383179	
-0.382019	
-0.381958	
-0.382385	
-0.380676	
-0.380676	
-0.379639	
-0.37915	
-0.378662	
-0.3797	
-0.378601	
-0.379028	
-0.379639	
-0.378296	
-0.378845	
-0.379211	
-0.378967	
-0.378357	
-0.378784	
-0.379028	
-0.379272	
-0.379761	
-0.379456	
-0.379333	
-0.378723	
-0.37854	
-0.379333	
-0.377808	
-0.37677	
-0.377869	
-0.378357	
-0.378052	
-0.378296	
-0.378784	
-0.379089	
-0.37854	
-0.379089	
-0.379272	
-0.379211	
-0.376831	
-0.377625	
-0.378357	
-0.378784	
-0.378296	
-0.378784	
-0.379028	
-0.379272	
-0.379272	
-0.378174	
-0.379517	
-0.377808	
-0.37854	
-0.378113	
-0.379089	
-0.379639	
-0.380432	
-0.380737	
-0.380615	
-0.379822	
-0.379822	
-0.380249	
-0.379028	
-0.379211	
-0.379211	
-0.379089	
-0.380005	
-0.380371	
-0.381042	
-0.380371	
-0.380066	
-0.3797	
-0.379089	
-0.379028	
-0.378662	
-0.378357	
-0.379639	
-0.38031	
-0.378784	
-0.379822	
-0.378662	
-0.379822	
-0.379028	
-0.379517	
-0.378784	
-0.378906	
-0.378479	
-0.3797	
-0.37915	
-0.379456	
-0.380005	
-0.3797	
-0.381042	
-0.379517	
-0.380432	
-0.379517	
-0.37854	
-0.377563	
-0.378235	
-0.379517	
-0.379761	
-0.379395	
-0.37915	
-0.380188	
-0.379089	
-0.379211	
-0.378113	
-0.377441	
-0.377808	
-0.377869	
-0.378479	
-0.378601	
-0.378784	
-0.37854	
-0.378845	
-0.377258	
-0.377014	
-0.377441	
-0.37677	
-0.375977	
-0.375793	
-0.376953	
-0.376648	
-0.376831	
-0.37793	
-0.377502	
-0.377441	
-0.376587	
-0.377563	
-0.375671	
-0.376099	
-0.377014	
-0.376221	
-0.375671	
-0.37677	
-0.378113	
-0.376892	
-0.377319	
-0.376648	
-0.376465	
-0.376709	
-0.377136	
-0.376526	
-0.375732	
-0.377197	
-0.377136	
-0.377258	
-0.376587	
-0.378174	
-0.376587	
-0.377258	
-0.37738	
-0.37677	
-0.375427	
-0.376099	
-0.376953	
-0.376099	
-0.377075	
-0.376953	
-0.376831	
-0.375366	
-0.376587	
-0.375427	
-0.375366	
-0.374817	
-0.375244	
-0.375366	
-0.375854	
-0.376709	
-0.376099	
-0.375977	
-0.375488	
-0.376587	
-0.374573	
-0.374817	
-0.375061	
-0.37384	
-0.374878	
-0.374268	
-0.373596	
-0.37323	
-0.374268	
-0.373047	
-0.373047	
-0.372742	
-0.37207	
-0.37262	
-0.372742	
-0.373474	
-0.373474	
-0.374451	
-0.375366	
-0.375549	
-0.375244	
-0.37439	
-0.374939	
-0.374451	
-0.37439	
-0.374451	
-0.375183	
-0.374756	
-0.375488	
-0.376282	
-0.37677	
-0.377625	
-0.376465	
-0.376343	
-0.376282	
-0.375183	
-0.37561	
-0.375549	
-0.375854	
-0.37561	
-0.376282	
-0.376709	
-0.377197	
-0.376709	
-0.377075	
-0.375427	
-0.375671	
-0.375488	
-0.374939	
-0.37561	
-0.375671	
-0.376282	
-0.376465	
-0.377747	
-0.376526	
-0.376709	
-0.37616	
-0.375671	
-0.375916	
-0.376465	
-0.377136	
-0.376343	
-0.376465	
-0.377319	
-0.377808	
-0.377319	
-0.376038	
-0.376465	
-0.374817	
-0.375305	
-0.375732	
-0.375977	
-0.376038	
-0.375916	
-0.376465	
-0.376526	
-0.375366	
-0.374451	
-0.375549	
-0.374268	
-0.373596	
-0.374573	
-0.374695	
-0.374451	
-0.375366	
-0.376221	
-0.376038	
-0.375366	
-0.37561	
-0.376282	
-0.374268	
-0.373413	
-0.374634	
-0.375671	
-0.375122	
-0.375122	
-0.374634	
-0.374878	
-0.375977	
-0.375366	
-0.374451	
-0.373535	
-0.37323	
-0.374634	
-0.374268	
-0.374817	
-0.374756	
-0.374512	
-0.374207	
-0.376343	
-0.375305	
-0.374084	
-0.372864	
-0.37384	
-0.374084	
-0.372437	
-0.373596	
-0.373901	
-0.374329	
-0.374512	
-0.374817	
-0.373108	
-0.372559	
-0.374573	
-0.373352	
-0.374084	
-0.374023	
-0.374695	
-0.374207	
-0.373901	
-0.375488	
-0.376099	
-0.375	
-0.37384	
-0.374878	
-0.374023	
-0.374084	
-0.373657	
-0.374451	
-0.374268	
-0.374207	
-0.375366	
-0.37439	
-0.375061	
-0.37323	
-0.373718	
-0.372986	
-0.373474	
-0.372437	
-0.373291	
-0.373169	
-0.372437	
-0.372498	
-0.373169	
-0.372742	
-0.371216	
-0.372375	
-0.369263	
-0.370789	
-0.371521	
-0.370911	
-0.370911	
-0.371216	
-0.371826	
-0.371521	
-0.373718	
-0.371887	
-0.372192	
-0.372253	
-0.37323	
-0.373535	
-0.372803	
-0.374146	
-0.374695	
-0.374146	
-0.374451	
-0.376953	
-0.374023	
-0.372437	
-0.373962	
-0.37207	
-0.372925	
-0.373474	
-0.37439	
-0.373962	
-0.374878	
-0.374634	
-0.374634	
-0.374512	
-0.373657	
-0.374634	
-0.372925	
-0.373718	
-0.372986	
-0.372864	
-0.37323	
-0.373596	
-0.374329	
-0.373901	
-0.375	
-0.372925	
-0.37384	
-0.371765	
-0.373352	
-0.372803	
-0.373596	
-0.372986	
-0.372437	
-0.373413	
-0.373779	
-0.375854	
-0.372009	
-0.371826	
-0.371399	
-0.372742	
-0.372864	
-0.371399	
-0.371521	
-0.371826	
-0.372681	
-0.371948	
-0.373596	
-0.370667	
-0.371704	
-0.371887	
-0.371887	
-0.372131	
-0.371033	
-0.372009	
-0.372437	
-0.372742	
-0.372375	
-0.373718	
-0.372314	
-0.372131	
-0.372314	
-0.37146	
-0.373108	
-0.372986	
-0.373291	
-0.37384	
-0.374756	
-0.372559	
-0.373657	
-0.374207	
-0.373535	
-0.372742	
-0.370361	
-0.371704	
-0.371704	
-0.371521	
-0.371216	
-0.37207	
-0.372131	
-0.37323	
-0.372437	
-0.371826	
-0.37207	
-0.370483	
-0.372192	
-0.371765	
-0.371399	
-0.371704	
-0.372131	
-0.372131	
-0.372803	
-0.372864	
-0.371826	
-0.37262	
-0.370667	
-0.372131	
-0.372681	
-0.372375	
-0.372131	
-0.373474	
-0.372192	
-0.373352	
-0.375244	
-0.37384	
-0.374084	
-0.372375	
-0.372864	
-0.374146	
-0.374084	
-0.37323	
-0.374207	
-0.372864	
-0.372925	
-0.374573	
-0.37323	
-0.373779	
-0.373718	
-0.371887	
-0.372986	
-0.373718	
-0.373535	
-0.374207	
-0.373047	
-0.373901	
-0.374695	
-0.374207	
-0.373291	
-0.373169	
-0.372986	
-0.373047	
-0.373352	
-0.373535	
-0.373352	
-0.372498	
-0.37384	
-0.373779	
-0.374084	
-0.373901	
-0.373352	
-0.373108	
-0.373657	
-0.372986	
-0.373657	
-0.375061	
-0.373779	
-0.374329	
-0.375061	
-0.375122	
-0.374878	
-0.37439	
-0.373291	
-0.37439	
-0.374634	
-0.374329	
-0.375183	
-0.374084	
-0.374512	
-0.375183	
-0.375488	
-0.375061	
-0.375488	
-0.373474	
-0.374756	
-0.376282	
-0.376465	
-0.377747	
-0.377502	
-0.377075	
-0.377991	
-0.379456	
-0.378052	
-0.377686	
-0.376953	
-0.375427	
-0.376465	
-0.376587	
-0.375488	
-0.375549	
-0.375549	
-0.37561	
-0.375854	
-0.377075	
-0.376282	
-0.374939	
-0.374329	
-0.374023	
-0.374756	
-0.375	
-0.374939	
-0.374207	
-0.374512	
-0.373718	
-0.373474	
-0.374268	
-0.374451	
-0.374023	
-0.373535	
-0.373901	
-0.374268	
-0.375122	
-0.37384	
-0.374512	
-0.375183	
-0.374939	
-0.374329	
-0.374268	
-0.37384	
-0.373962	
-0.374146	
-0.374146	
-0.374512	
-0.37439	
-0.374634	
-0.375305	
-0.374695	
-0.373962	
-0.373779	
-0.373474	
-0.372681	
-0.373169	
-0.374084	
-0.374634	
-0.374817	
-0.374756	
-0.374268	
-0.375671	
-0.376343	
-0.374878	
-0.374634	
-0.374268	
-0.374939	
-0.374817	
-0.37616	
-0.37677	
-0.376587	
-0.376221	
-0.375671	
-0.377197	
-0.376404	
-0.376587	
-0.37561	
-0.375854	
-0.37561	
-0.375	
-0.375	
-0.375	
-0.376038	
-0.375244	
-0.375427	
-0.374756	
-0.374634	
-0.373779	
-0.374451	
-0.375488	
-0.375427	
-0.376404	
-0.375427	
-0.376038	
-0.375671	
-0.375732	
-0.375854	
-0.375549	
-0.374207	
-0.374756	
-0.376465	
-0.37616	
-0.375671	
-0.375122	
-0.376099	
-0.376099	
-0.377197	
-0.37616	
-0.375244	
-0.375793	
-0.376099	
-0.376953	
-0.376709	
-0.376099	
-0.37677	
-0.377197	
-0.376343	
-0.377502	
-0.37677	
-0.37616	
-0.375488	
-0.375305	
-0.374756	
-0.375916	
-0.376282	
-0.376099	
-0.376648	
-0.376709	
-0.37561	
-0.376404	
-0.375732	
-0.37439	
-0.37561	
-0.376221	
-0.376343	
-0.376526	
-0.377319	
-0.377075	
-0.377075	
-0.377747	
-0.376953	
-0.377197	
-0.377319	
-0.377014	
-0.377869	
-0.378418	
-0.377625	
-0.379272	
-0.379761	
-0.378845	
-0.3797	
-0.379333	
-0.379822	
-0.379211	
-0.378662	
-0.378967	
-0.3797	
-0.379089	
-0.3797	
-0.379333	
-0.378601	
-0.379639	
-0.37854	
-0.378296	
-0.377502	
-0.376038	
-0.375305	
-0.376709	
-0.376587	
-0.376404	
-0.376953	
-0.377136	
-0.377869	
-0.37793	
-0.378296	
-0.377808	
-0.37738	
-0.377075	
-0.377197	
-0.378052	
-0.377136	
-0.376282	
-0.377014	
-0.37738	
-0.377075	
-0.376221	
-0.376892	
-0.376465	
-0.377014	
-0.377441	
-0.377014	
-0.377258	
-0.377625	
-0.377258	
-0.377197	
-0.376526	
-0.377136	
-0.376892	
-0.377869	
-0.377808	
-0.377747	
-0.377197	
-0.377991	
-0.379395	
-0.379028	
-0.378601	
-0.378113	
-0.378174	
-0.37854	
-0.377258	
-0.37854	
-0.37915	
-0.37915	
-0.37854	
-0.379944	
-0.380432	
-0.381104	
-0.380188	
-0.379395	
-0.379395	
-0.378418	
-0.378723	
-0.378662	
-0.379822	
-0.379639	
-0.380005	
-0.380066	
-0.380493	
-0.38031	
-0.380188	
-0.380005	
-0.377563	
-0.378357	
-0.378967	
-0.380005	
-0.380005	
-0.379333	
-0.378601	
-0.379578	
-0.379761	
-0.379333	
-0.379944	
-0.379883	
-0.38031	
-0.380188	
-0.380005	
-0.379456	
-0.379822	
-0.380615	
-0.38147	
-0.380127	
-0.37915	
-0.380493	
-0.379333	
-0.379883	
-0.379456	
-0.379333	
-0.3797	
-0.379944	
-0.380615	
-0.380554	
-0.380798	
-0.379089	
-0.380005	
-0.379456	
-0.380005	
-0.377563	
-0.379028	
-0.37915	
-0.378845	
-0.379272	
-0.379028	
-0.379883	
-0.378723	
-0.37854	
-0.377075	
-0.378113	
-0.376404	
-0.378418	
-0.379089	
	
