E:\DOCUMENTS AND SETTINGS\JPOTAS\MEUS DOCUMENTOS\UFRJ\RSCI-BM 12 WK SERIES\070718-RSCI-BM-03\RSCI-BM-03-REMG\070718-RSCI-BM-03-REMG-0011.ACQ
0.025000 msec/sample
1 channel
Analog input
Volts
CH1	
2000	
-0.39209	
-0.392578	
-0.391602	
-0.390259	
-0.391479	
-0.391541	
-0.391296	
-0.390747	
-0.392578	
-0.394287	
-0.394287	
-0.394836	
-0.395447	
-0.395203	
-0.394958	
-0.395142	
-0.395752	
-0.394836	
-0.394653	
-0.396606	
-0.397278	
-0.397949	
-0.398621	
-0.397339	
-0.397034	
-0.396851	
-0.396973	
-0.396606	
-0.396423	
-0.396179	
-0.396423	
-0.39624	
-0.395752	
-0.396545	
-0.395752	
-0.395447	
-0.395264	
-0.395203	
-0.395569	
-0.395508	
-0.394653	
-0.395569	
-0.395508	
-0.394531	
-0.395569	
-0.39502	
-0.394104	
-0.393982	
-0.39325	
-0.393311	
-0.393005	
-0.391724	
-0.391785	
-0.391602	
-0.390991	
-0.391357	
-0.391479	
-0.391235	
-0.389954	
-0.389954	
-0.388794	
-0.389526	
-0.38855	
-0.390015	
-0.389709	
-0.389954	
-0.391663	
-0.391235	
-0.390869	
-0.390503	
-0.39093	
-0.389587	
-0.39093	
-0.390259	
-0.392029	
-0.393005	
-0.393005	
-0.393127	
-0.393433	
-0.393982	
-0.393372	
-0.394043	
-0.393188	
-0.393799	
-0.393372	
-0.393433	
-0.393372	
-0.394165	
-0.394714	
-0.394714	
-0.393738	
-0.392761	
-0.39447	
-0.393494	
-0.393555	
-0.394043	
-0.393677	
-0.393494	
-0.39386	
-0.394104	
-0.394043	
-0.39386	
-0.393372	
-0.393616	
-0.393494	
-0.393127	
-0.393311	
-0.393188	
-0.392944	
-0.393311	
-0.394531	
-0.395142	
-0.393738	
-0.393738	
-0.392761	
-0.393494	
-0.39386	
-0.392883	
-0.391968	
-0.393494	
-0.393127	
-0.392883	
-0.393738	
-0.39325	
-0.39386	
-0.392944	
-0.392883	
-0.391541	
-0.392761	
-0.392395	
-0.392273	
-0.3927	
-0.392761	
-0.393677	
-0.391846	
-0.393188	
-0.393311	
-0.391541	
-0.391968	
-0.392822	
-0.3927	
-0.393005	
-0.393616	
-0.393677	
-0.393738	
-0.393982	
-0.394897	
-0.39325	
-0.392395	
-0.39325	
-0.393311	
-0.391907	
-0.394592	
-0.394775	
-0.394226	
-0.394653	
-0.394714	
-0.393982	
-0.394287	
-0.392395	
-0.393066	
-0.393616	
-0.392639	
-0.393066	
-0.393494	
-0.394043	
-0.393677	
-0.394165	
-0.393982	
-0.393555	
-0.392944	
-0.392761	
-0.393127	
-0.392212	
-0.393494	
-0.39325	
-0.393188	
-0.393494	
-0.394897	
-0.3927	
-0.393005	
-0.393494	
-0.39209	
-0.390625	
-0.390869	
-0.391846	
-0.391418	
-0.391235	
-0.391602	
-0.391907	
-0.391052	
-0.391357	
-0.391541	
-0.390259	
-0.389282	
-0.389099	
-0.389526	
-0.362854	
-0.366394	
-0.371643	
-0.373474	
-0.373169	
-0.373474	
-0.404175	
-0.394043	
-0.390015	
-0.388	
-0.386597	
-0.387024	
-0.387085	
-0.387512	
-0.387634	
-0.387756	
-0.387817	
-0.388062	
-0.388428	
-0.388489	
-0.38739	
-0.387878	
-0.38916	
-0.389954	
-0.390259	
-0.389832	
-0.390686	
-0.389648	
-0.390198	
-0.39093	
-0.390991	
-0.389587	
-0.389587	
-0.390991	
-0.391296	
-0.391724	
-0.391663	
-0.392334	
-0.391113	
-0.391602	
-0.391541	
-0.390869	
-0.390747	
-0.390869	
-0.391479	
-0.391296	
-0.391357	
-0.39209	
-0.39325	
-0.393372	
-0.393494	
-0.392944	
-0.3927	
-0.392761	
-0.393311	
-0.393311	
-0.393555	
-0.393738	
-0.394653	
-0.394897	
-0.394592	
-0.394043	
-0.393982	
-0.393982	
-0.394409	
-0.394775	
-0.393921	
-0.395264	
-0.394775	
-0.395508	
-0.395325	
-0.395325	
-0.394043	
-0.393433	
-0.393921	
-0.393494	
-0.392578	
-0.390442	
-0.392639	
-0.393005	
-0.3927	
-0.392334	
-0.391907	
-0.39209	
-0.391541	
-0.392212	
-0.391785	
-0.391541	
-0.390747	
-0.392761	
-0.393738	
-0.394287	
-0.394836	
-0.394836	
-0.394592	
-0.395142	
-0.397461	
-0.397583	
-0.397644	
-0.398743	
-0.401428	
-0.401917	
-0.403076	
-0.404968	
-0.406982	
-0.40918	
-0.412231	
-0.415344	
-0.416809	
-0.419128	
-0.42041	
-0.42572	
-0.427368	
-0.431152	
-0.435059	
-0.438354	
-0.44165	
-0.445313	
-0.447754	
-0.451416	
-0.454102	
-0.458069	
-0.461609	
-0.465332	
-0.468811	
-0.471863	
-0.473694	
-0.475769	
-0.478394	
-0.47876	
-0.480103	
-0.480713	
-0.482056	
-0.483215	
-0.484863	
-0.486938	
-0.488098	
-0.488953	
-0.490295	
-0.491455	
-0.49054	
-0.490234	
-0.488647	
-0.489807	
-0.48938	
-0.489075	
-0.490173	
-0.489807	
-0.489685	
-0.490967	
-0.49292	
-0.492493	
-0.494202	
-0.495117	
-0.498047	
-0.501282	
-0.502869	
-0.506287	
-0.508728	
-0.510376	
-0.512512	
-0.51593	
-0.516907	
-0.519043	
-0.521057	
-0.524475	
-0.526306	
-0.528931	
-0.532471	
-0.534302	
-0.535522	
-0.537842	
-0.541504	
-0.542786	
-0.543335	
-0.54425	
-0.546021	
-0.546814	
-0.548218	
-0.549866	
-0.549622	
-0.549866	
-0.550842	
-0.550781	
-0.549011	
-0.547363	
-0.546204	
-0.546265	
-0.544556	
-0.541809	
-0.539612	
-0.536926	
-0.532837	
-0.53009	
-0.526794	
-0.522034	
-0.51709	
-0.511902	
-0.507751	
-0.503784	
-0.499634	
-0.49585	
-0.491028	
-0.485596	
-0.480957	
-0.476318	
-0.470337	
-0.465637	
-0.459717	
-0.455444	
-0.450378	
-0.445496	
-0.440735	
-0.435364	
-0.428833	
-0.42395	
-0.42041	
-0.415161	
-0.411316	
-0.406006	
-0.404114	
-0.399841	
-0.395325	
-0.390442	
-0.387207	
-0.383057	
-0.379517	
-0.376038	
-0.370178	
-0.36792	
-0.363464	
-0.360718	
-0.358643	
-0.356201	
-0.352539	
-0.349976	
-0.347534	
-0.344849	
-0.34375	
-0.340454	
-0.339661	
-0.33667	
-0.337891	
-0.338318	
-0.337402	
-0.337402	
-0.336853	
-0.336792	
-0.33728	
-0.33783	
-0.335388	
-0.336365	
-0.335266	
-0.337097	
-0.336792	
-0.336975	
-0.339111	
-0.338745	
-0.33905	
-0.340515	
-0.341919	
-0.341248	
-0.342407	
-0.343323	
-0.344788	
-0.345947	
-0.346985	
-0.348022	
-0.349426	
-0.349854	
-0.350708	
-0.35083	
-0.351135	
-0.351074	
-0.351074	
-0.352356	
-0.352478	
-0.352417	
-0.353577	
-0.35437	
-0.353821	
-0.354248	
-0.353638	
-0.35437	
-0.352478	
-0.354187	
-0.355469	
-0.354858	
-0.355469	
-0.355896	
-0.356384	
-0.35675	
-0.357788	
-0.357727	
-0.357666	
-0.357361	
-0.358765	
-0.358887	
-0.360046	
-0.361023	
-0.360718	
-0.361145	
-0.362305	
-0.362671	
-0.362427	
-0.362854	
-0.363831	
-0.364746	
-0.365784	
-0.366272	
-0.366821	
-0.368042	
-0.368652	
-0.369446	
-0.369324	
-0.371155	
-0.369812	
-0.372559	
-0.373108	
-0.373718	
-0.374207	
-0.374939	
-0.375977	
-0.376404	
-0.378235	
-0.376465	
-0.377441	
-0.377625	
-0.379639	
-0.378784	
-0.380188	
-0.381836	
-0.380737	
-0.381653	
-0.382629	
-0.382385	
-0.381531	
-0.382629	
-0.382385	
-0.38385	
-0.383972	
-0.384216	
-0.385437	
-0.384888	
-0.38446	
-0.385071	
-0.383728	
-0.384094	
-0.384033	
-0.383423	
-0.384399	
-0.384399	
-0.384583	
-0.384277	
-0.384277	
-0.384277	
-0.384888	
-0.383789	
-0.383423	
-0.383667	
-0.383362	
-0.384277	
-0.383301	
-0.38324	
-0.38446	
-0.384094	
-0.382629	
-0.38324	
-0.383423	
-0.382751	
-0.381226	
-0.381958	
-0.382446	
-0.380981	
-0.380737	
-0.381531	
-0.380615	
-0.379822	
-0.380432	
-0.380371	
-0.377014	
-0.376282	
-0.377014	
-0.377136	
-0.376709	
-0.376099	
-0.37616	
-0.375183	
-0.375183	
-0.374878	
-0.37439	
-0.372742	
-0.372681	
-0.373962	
-0.374451	
-0.374634	
-0.375183	
-0.376526	
-0.376221	
-0.37677	
-0.376038	
-0.37738	
-0.376404	
-0.376038	
-0.377197	
-0.378845	
-0.378967	
-0.379456	
-0.380615	
-0.379822	
-0.380554	
-0.379822	
-0.380005	
-0.379456	
-0.37854	
-0.377563	
-0.378662	
-0.378723	
-0.377563	
-0.378052	
-0.376831	
-0.377075	
-0.375732	
-0.375732	
-0.374512	
-0.374451	
-0.373718	
-0.373535	
-0.374023	
-0.374268	
-0.374512	
-0.373718	
-0.375	
-0.373962	
-0.375244	
-0.374207	
-0.373352	
-0.373901	
-0.373169	
-0.373962	
-0.374512	
-0.375122	
-0.375305	
-0.376404	
-0.375549	
-0.376648	
-0.376343	
-0.375793	
-0.376526	
-0.375916	
-0.376831	
-0.377441	
-0.376831	
-0.375977	
-0.377319	
-0.377747	
-0.377014	
-0.377747	
-0.376526	
-0.376099	
-0.37561	
-0.375732	
-0.37616	
-0.375977	
-0.37616	
-0.376648	
-0.376465	
-0.376038	
-0.375793	
-0.375305	
-0.375793	
-0.375183	
-0.37616	
-0.376282	
-0.376587	
-0.377014	
-0.377136	
-0.378235	
-0.377869	
-0.378357	
-0.378357	
-0.3797	
-0.378723	
-0.379395	
-0.380493	
-0.380676	
-0.38092	
-0.381348	
-0.38147	
-0.381775	
-0.382141	
-0.382141	
-0.382629	
-0.381836	
-0.381531	
-0.382385	
-0.382324	
-0.38208	
-0.381653	
-0.382629	
-0.381836	
-0.381531	
-0.380859	
-0.381165	
-0.379395	
-0.380554	
-0.381104	
-0.380859	
-0.380676	
-0.380859	
-0.381531	
-0.380676	
-0.380554	
-0.38031	
-0.379395	
-0.379272	
-0.379578	
-0.3797	
-0.37854	
-0.378357	
-0.377502	
-0.378357	
-0.37738	
-0.376953	
-0.375854	
-0.375671	
-0.375916	
-0.375427	
-0.376099	
-0.375244	
-0.375549	
-0.374329	
-0.377014	
-0.376465	
-0.375488	
-0.375	
-0.375183	
-0.37677	
-0.376465	
-0.377441	
-0.377197	
-0.376587	
-0.376465	
-0.378662	
-0.377869	
-0.377808	
-0.378052	
-0.379639	
-0.379333	
-0.378967	
-0.379517	
-0.379822	
-0.379211	
-0.379028	
-0.380859	
-0.380737	
-0.379211	
-0.378784	
-0.38031	
-0.379761	
-0.379517	
-0.379822	
-0.379089	
-0.379517	
-0.379822	
-0.380554	
-0.380432	
-0.379639	
-0.379272	
-0.379272	
-0.380005	
-0.379211	
-0.380188	
-0.379639	
-0.380554	
-0.380066	
-0.380371	
-0.380676	
-0.379944	
-0.379578	
-0.377808	
-0.379761	
-0.379822	
-0.38031	
-0.379944	
-0.380005	
-0.379578	
-0.380615	
-0.381775	
-0.378906	
-0.378784	
-0.377625	
-0.37915	
-0.379517	
-0.379883	
-0.378235	
-0.37915	
-0.378662	
-0.378906	
-0.380493	
-0.378296	
-0.37915	
-0.377563	
-0.378784	
-0.378601	
-0.378723	
-0.37738	
-0.378845	
-0.378723	
-0.3797	
-0.380554	
-0.378601	
-0.379211	
-0.378479	
-0.379761	
-0.379028	
-0.380615	
-0.379211	
-0.379272	
-0.379456	
-0.380737	
-0.380676	
-0.379395	
-0.380188	
-0.3797	
-0.380554	
-0.380249	
-0.380798	
-0.379456	
-0.3797	
-0.37915	
-0.379456	
-0.380005	
-0.379944	
-0.379272	
-0.378418	
-0.380005	
-0.379395	
-0.380127	
-0.379028	
-0.379028	
-0.378357	
-0.379517	
-0.379578	
-0.37915	
-0.378357	
-0.378113	
-0.378235	
-0.378906	
-0.379211	
-0.377625	
-0.378601	
-0.378296	
-0.378357	
-0.378418	
-0.377747	
-0.376587	
-0.375793	
-0.376038	
-0.376221	
-0.376465	
-0.376099	
-0.375122	
-0.375671	
-0.376343	
-0.375916	
-0.375793	
-0.37561	
-0.374817	
-0.373291	
-0.374634	
-0.37439	
-0.372375	
-0.37146	
-0.372681	
-0.373108	
-0.373413	
-0.373535	
-0.372681	
-0.371704	
-0.372253	
-0.373535	
-0.374329	
-0.373291	
-0.373169	
-0.373657	
-0.374573	
-0.374695	
-0.375244	
-0.375183	
-0.374268	
-0.374939	
-0.375977	
-0.376099	
-0.37561	
-0.375244	
-0.374878	
-0.375671	
-0.377319	
-0.376953	
-0.376099	
-0.374756	
-0.375854	
-0.377075	
-0.377075	
-0.37616	
-0.376526	
-0.375183	
-0.375244	
-0.376221	
-0.375977	
-0.375793	
-0.374878	
-0.375549	
-0.376404	
-0.37677	
-0.376465	
-0.376526	
-0.375305	
-0.37738	
-0.377991	
-0.377441	
-0.377258	
-0.376526	
-0.37677	
-0.377625	
-0.378174	
-0.377686	
-0.377747	
-0.375549	
-0.377808	
-0.377625	
-0.377136	
-0.377258	
-0.376404	
-0.376221	
-0.376343	
-0.377441	
-0.375977	
-0.375916	
-0.374634	
-0.375549	
-0.375732	
-0.375671	
-0.376404	
-0.375366	
-0.375183	
-0.376038	
-0.377563	
-0.376404	
-0.376465	
-0.375854	
-0.378113	
-0.37915	
-0.379089	
-0.378601	
-0.378357	
-0.376892	
-0.378052	
-0.38031	
-0.37915	
-0.379639	
-0.378113	
-0.378601	
-0.379456	
-0.379517	
-0.378784	
-0.378357	
-0.377319	
-0.37738	
-0.378784	
-0.378479	
-0.377991	
-0.376404	
-0.377625	
-0.378235	
-0.378784	
-0.37915	
-0.37854	
-0.376221	
-0.377869	
-0.378845	
-0.378113	
-0.377747	
-0.376587	
-0.377991	
-0.378418	
-0.378906	
-0.379272	
-0.378357	
-0.376648	
-0.37854	
-0.380432	
-0.379883	
-0.379822	
-0.379211	
-0.3797	
-0.380554	
-0.381348	
-0.380554	
-0.379517	
-0.378601	
-0.379883	
-0.380554	
-0.379944	
-0.379944	
-0.378784	
-0.378113	
-0.379822	
-0.381042	
-0.379272	
-0.378296	
-0.376953	
-0.376953	
-0.377319	
-0.376953	
-0.376465	
-0.375854	
-0.375183	
-0.375977	
-0.377014	
-0.375488	
-0.37439	
-0.373474	
-0.373535	
-0.374939	
-0.375427	
-0.374023	
-0.373901	
-0.37439	
-0.374573	
-0.375122	
-0.374817	
-0.375122	
-0.374023	
-0.375122	
-0.376343	
-0.376648	
-0.375793	
-0.375244	
-0.375305	
-0.375977	
-0.377136	
-0.376221	
-0.376343	
-0.375427	
-0.376221	
-0.375793	
-0.377136	
-0.376709	
-0.377014	
-0.377319	
-0.378235	
-0.379578	
-0.379028	
-0.380615	
-0.379395	
-0.379883	
-0.38092	
-0.381592	
-0.380676	
-0.380737	
-0.381042	
-0.381592	
-0.382263	
-0.38092	
-0.382019	
-0.381165	
-0.381287	
-0.381409	
-0.382507	
-0.381836	
-0.381531	
-0.380371	
-0.381104	
-0.382141	
-0.380798	
-0.380066	
-0.378906	
-0.37793	
-0.379456	
-0.380432	
-0.378723	
-0.378052	
-0.376953	
-0.378296	
-0.379395	
-0.378296	
-0.37854	
-0.37793	
-0.377686	
-0.378418	
-0.379639	
-0.378296	
-0.377747	
-0.377441	
-0.379272	
-0.380005	
-0.379395	
-0.378662	
-0.377319	
-0.37793	
-0.378723	
-0.380493	
-0.379028	
-0.378296	
-0.378357	
-0.379028	
-0.379761	
-0.379883	
-0.3797	
-0.378418	
-0.37915	
-0.379333	
-0.381409	
-0.379761	
-0.379272	
-0.378845	
-0.379333	
-0.380554	
-0.380676	
-0.380493	
-0.380127	
-0.379395	
-0.3797	
-0.380676	
-0.380249	
-0.380554	
-0.380005	
-0.379944	
-0.380981	
-0.381409	
-0.380859	
-0.380127	
-0.380127	
-0.380493	
-0.382324	
-0.38147	
-0.381348	
-0.380371	
-0.381165	
-0.381775	
-0.380188	
-0.380188	
-0.38031	
-0.379761	
-0.379578	
-0.380676	
-0.380127	
-0.379761	
-0.37915	
-0.378479	
-0.379578	
-0.380127	
-0.380005	
-0.379028	
-0.37854	
-0.37915	
-0.379456	
-0.379944	
-0.379211	
-0.37854	
-0.379272	
-0.380493	
-0.380127	
-0.379517	
-0.37915	
-0.378357	
-0.379761	
-0.379456	
-0.380432	
-0.379944	
-0.379211	
-0.379272	
-0.379211	
-0.380188	
-0.38031	
-0.379333	
-0.380066	
-0.379395	
-0.379578	
-0.381104	
-0.380249	
-0.378845	
-0.379639	
-0.380859	
-0.380737	
-0.381775	
-0.381104	
-0.380249	
-0.380676	
-0.381531	
-0.382629	
-0.381897	
-0.381531	
-0.382324	
-0.38324	
-0.383484	
-0.384827	
-0.38385	
-0.382324	
-0.38324	
-0.384155	
-0.384155	
-0.384888	
-0.384827	
-0.385376	
-0.385864	
-0.386719	
-0.386108	
-0.385437	
-0.385071	
-0.384277	
-0.385986	
-0.385559	
-0.384583	
-0.383911	
-0.384033	
-0.382813	
-0.384644	
-0.384155	
-0.383484	
-0.382996	
-0.382446	
-0.38385	
-0.382996	
-0.382996	
-0.382202	
-0.382202	
-0.381042	
-0.382507	
-0.382935	
-0.381775	
-0.380859	
-0.380981	
-0.382507	
-0.382019	
-0.382324	
-0.381104	
-0.381592	
-0.382202	
-0.382874	
-0.383179	
-0.381958	
-0.382263	
-0.381775	
-0.382263	
-0.381226	
-0.382263	
-0.381104	
-0.381104	
-0.380127	
-0.380676	
-0.381348	
-0.381104	
-0.380249	
-0.378357	
-0.379211	
-0.379089	
-0.380432	
-0.379333	
-0.380249	
-0.379822	
-0.380371	
-0.381104	
-0.380188	
-0.380554	
-0.379761	
-0.380554	
-0.379822	
-0.381592	
-0.381287	
-0.380127	
-0.380737	
-0.381836	
-0.383362	
-0.381287	
-0.380981	
-0.380249	
-0.38147	
-0.380798	
-0.381348	
-0.380737	
-0.379333	
-0.378174	
-0.378235	
-0.380066	
-0.377991	
-0.377869	
-0.377197	
-0.377808	
-0.377441	
-0.377502	
-0.376465	
-0.376038	
-0.376892	
-0.377136	
-0.378113	
-0.376831	
-0.377258	
-0.376343	
-0.377686	
-0.378296	
-0.37793	
-0.377563	
-0.376953	
-0.376648	
-0.377625	
-0.378296	
-0.376892	
-0.377258	
-0.37616	
-0.377502	
-0.378967	
-0.377869	
-0.377319	
-0.377258	
-0.377136	
-0.377075	
-0.378479	
-0.376282	
-0.376099	
-0.375977	
-0.375793	
-0.37616	
-0.375732	
-0.375427	
-0.375244	
-0.375183	
-0.374817	
-0.376404	
-0.375366	
-0.375183	
-0.373596	
-0.372559	
-0.375488	
-0.374878	
-0.374268	
-0.374329	
-0.374817	
-0.373596	
-0.375977	
-0.375488	
-0.375244	
-0.375244	
-0.374512	
-0.377319	
-0.377075	
-0.377319	
-0.37738	
-0.377502	
-0.377014	
-0.37915	
-0.378967	
-0.37854	
-0.378967	
-0.377991	
-0.379456	
-0.379456	
-0.379883	
-0.379456	
-0.379272	
-0.378174	
-0.380188	
-0.380737	
-0.378723	
-0.377625	
-0.376831	
-0.378113	
-0.378479	
-0.378845	
-0.377319	
-0.377258	
-0.377197	
-0.377808	
-0.378296	
-0.377502	
-0.376953	
-0.376099	
-0.376953	
-0.376831	
-0.37738	
-0.37616	
-0.37616	
-0.374939	
-0.375122	
-0.374817	
-0.373779	
-0.372437	
-0.371155	
-0.373474	
-0.372009	
-0.372009	
-0.371765	
-0.371399	
-0.371338	
-0.371826	
-0.372314	
-0.370422	
-0.370239	
-0.369324	
-0.371521	
-0.371277	
-0.371521	
-0.371277	
-0.371704	
-0.371521	
-0.372314	
-0.373474	
-0.372314	
-0.372192	
-0.371521	
-0.373413	
-0.373474	
-0.373718	
-0.373596	
-0.374146	
-0.37439	
-0.373962	
-0.375488	
-0.374023	
-0.373901	
-0.373901	
-0.374756	
-0.37384	
-0.373474	
-0.373596	
-0.374146	
-0.373657	
-0.37262	
-0.374207	
-0.373779	
-0.373779	
-0.373413	
-0.374695	
-0.373962	
-0.372986	
-0.372925	
-0.37384	
-0.372986	
-0.372681	
-0.374329	
-0.37384	
-0.37384	
-0.372498	
-0.373352	
-0.373291	
-0.374084	
-0.373657	
-0.372742	
-0.37262	
-0.372681	
-0.373779	
-0.372314	
-0.372192	
-0.372131	
-0.372681	
-0.372253	
-0.372498	
-0.372192	
-0.372192	
-0.372314	
-0.371704	
-0.372559	
-0.372559	
-0.371338	
-0.371216	
-0.371765	
-0.371033	
-0.371216	
-0.371643	
-0.371338	
-0.371216	
-0.371521	
-0.37262	
-0.371582	
-0.370911	
-0.370605	
-0.372986	
-0.372192	
-0.371948	
-0.372314	
-0.371887	
-0.372253	
-0.372009	
-0.372803	
-0.371643	
-0.372559	
-0.371338	
-0.373169	
-0.372253	
-0.372925	
-0.372986	
-0.37207	
-0.372192	
-0.371948	
-0.373352	
-0.372498	
-0.371826	
-0.370789	
-0.372192	
-0.371765	
-0.371704	
-0.371033	
-0.371826	
-0.371704	
-0.371521	
-0.372192	
-0.372009	
-0.371399	
-0.370789	
-0.370972	
-0.370728	
-0.371094	
-0.370422	
-0.371399	
-0.371521	
-0.370178	
-0.370544	
-0.371948	
-0.370178	
-0.369446	
-0.370178	
-0.369568	
-0.369446	
-0.368713	
-0.369141	
-0.368164	
-0.368164	
-0.369263	
-0.368713	
-0.36792	
-0.367615	
-0.367859	
-0.367065	
-0.36731	
-0.366333	
-0.367188	
-0.366333	
-0.365662	
-0.365479	
-0.365662	
-0.365051	
-0.36438	
-0.36615	
-0.365662	
-0.36554	
-0.36499	
-0.366272	
-0.365662	
-0.366028	
-0.367004	
-0.367004	
-0.366516	
-0.366333	
-0.367371	
-0.367615	
-0.367126	
-0.367981	
-0.368835	
-0.368164	
-0.368347	
-0.368469	
-0.368286	
-0.368591	
-0.368225	
-0.368713	
-0.368164	
-0.367737	
-0.368896	
-0.36908	
-0.368408	
-0.368225	
-0.36908	
-0.369019	
-0.368652	
-0.367432	
-0.367798	
-0.368042	
-0.368469	
-0.368042	
-0.368896	
-0.368958	
-0.369934	
-0.369995	
-0.369873	
-0.369629	
-0.369629	
-0.370544	
-0.370056	
-0.370178	
-0.369568	
-0.370605	
-0.370544	
-0.370911	
-0.370056	
-0.370789	
-0.370667	
-0.370422	
-0.369568	
-0.368896	
-0.369812	
-0.370239	
-0.370361	
-0.36908	
-0.36908	
-0.369446	
-0.369812	
-0.369202	
-0.368713	
-0.367676	
-0.367676	
-0.369019	
-0.369202	
-0.370117	
-0.369873	
-0.370239	
-0.370422	
-0.370422	
-0.371399	
-0.371521	
-0.370544	
-0.371277	
-0.372559	
-0.372192	
-0.372864	
-0.371765	
-0.371399	
-0.372498	
-0.373413	
-0.373291	
-0.371887	
-0.371521	
-0.372375	
-0.371826	
-0.37146	
-0.370605	
-0.370789	
-0.371399	
-0.371643	
-0.372375	
-0.372314	
-0.371826	
-0.370667	
-0.370972	
-0.370789	
-0.371338	
-0.371155	
-0.370972	
-0.371582	
-0.371582	
-0.372253	
-0.371338	
-0.371765	
-0.371765	
-0.372009	
-0.371887	
-0.37207	
-0.371277	
-0.372009	
-0.372925	
-0.373413	
-0.374084	
-0.373657	
-0.372864	
-0.373535	
-0.373657	
-0.373718	
-0.373779	
-0.373108	
-0.372742	
-0.373352	
-0.37323	
-0.374329	
-0.373291	
-0.372437	
-0.372375	
-0.371704	
-0.370789	
-0.371582	
-0.370605	
-0.36969	
-0.36969	
-0.370178	
-0.369934	
-0.369446	
-0.369446	
-0.368958	
-0.367615	
-0.367554	
-0.368225	
-0.367004	
-0.367737	
-0.367737	
-0.367432	
-0.367676	
-0.367798	
-0.368347	
-0.367615	
-0.368042	
-0.367554	
-0.368958	
-0.368591	
-0.36969	
-0.36908	
-0.369507	
-0.370056	
-0.369324	
-0.369751	
-0.368652	
-0.369629	
-0.369446	
-0.369751	
-0.368835	
-0.370422	
-0.371033	
-0.370789	
-0.371521	
-0.370911	
-0.372681	
-0.371826	
-0.371887	
-0.371826	
-0.373291	
-0.373169	
-0.374512	
-0.374023	
-0.375061	
-0.37616	
-0.374512	
-0.375671	
-0.374878	
-0.374817	
-0.374817	
-0.37439	
-0.374695	
-0.375061	
-0.375122	
-0.374817	
-0.376282	
-0.374512	
-0.374023	
-0.373291	
-0.374023	
-0.373108	
-0.372864	
-0.371399	
-0.372681	
-0.37207	
-0.371826	
-0.372192	
-0.371094	
-0.371277	
-0.37146	
-0.371094	
-0.370911	
-0.371094	
-0.371399	
-0.371704	
-0.371216	
-0.372009	
-0.373047	
-0.370361	
-0.371521	
-0.371338	
-0.371887	
-0.372559	
-0.3703	
-0.370361	
-0.371887	
-0.371765	
-0.372009	
-0.373047	
-0.370728	
-0.371216	
-0.372253	
-0.372314	
-0.372253	
-0.371338	
-0.37146	
-0.372253	
-0.373413	
-0.37262	
-0.373718	
-0.371521	
-0.371826	
-0.372375	
-0.371948	
-0.372498	
-0.372559	
-0.372375	
-0.372681	
-0.372986	
-0.373352	
-0.373657	
-0.372559	
-0.372681	
-0.374023	
-0.373535	
-0.372681	
-0.37146	
-0.37323	
-0.373474	
-0.373108	
-0.373352	
-0.374207	
-0.373352	
-0.373169	
-0.373596	
-0.372803	
-0.371887	
-0.371521	
-0.37262	
-0.372498	
-0.37262	
-0.37262	
-0.372742	
-0.371826	
-0.372498	
-0.372192	
-0.370911	
-0.371765	
-0.37146	
-0.371521	
-0.371399	
-0.372253	
-0.372375	
-0.372192	
-0.371887	
-0.372131	
-0.372375	
-0.371277	
-0.371826	
-0.371521	
-0.372009	
-0.372681	
-0.371887	
-0.371826	
-0.372375	
-0.372925	
-0.371521	
-0.372009	
-0.371765	
-0.372925	
-0.371521	
-0.37207	
-0.373108	
-0.372742	
-0.373169	
-0.373474	
-0.374268	
-0.371826	
-0.373657	
-0.373535	
-0.373047	
-0.372803	
-0.37384	
-0.374695	
-0.375671	
-0.376404	
-0.375244	
-0.375793	
-0.375977	
-0.37677	
-0.375854	
-0.376465	
-0.376343	
-0.37616	
-0.377197	
-0.377502	
-0.379211	
-0.37915	
-0.37915	
-0.378296	
-0.379211	
-0.379517	
-0.378479	
-0.378174	
-0.377686	
-0.379761	
-0.379028	
-0.379578	
-0.379272	
-0.37793	
-0.378052	
-0.378601	
-0.378113	
-0.376099	
-0.376404	
-0.37561	
-0.376953	
-0.376831	
-0.376648	
-0.376709	
-0.376892	
-0.377441	
-0.37616	
-0.376099	
-0.375183	
-0.374695	
-0.37439	
-0.375977	
-0.37616	
-0.376648	
-0.376465	
-0.375854	
-0.376892	
-0.37561	
-0.376953	
-0.376404	
-0.375671	
-0.375549	
-0.37616	
-0.375916	
-0.376587	
-0.375793	
-0.375671	
-0.376831	
-0.374329	
-0.374695	
-0.37439	
-0.374023	
-0.374634	
-0.374756	
-0.375	
-0.375061	
-0.374939	
-0.373901	
-0.374817	
-0.374878	
-0.375183	
-0.375305	
-0.374634	
-0.375061	
-0.375244	
-0.375671	
-0.375671	
-0.376648	
-0.37616	
-0.375854	
-0.377075	
-0.376831	
-0.376709	
-0.376038	
-0.375977	
-0.376038	
-0.376709	
-0.375916	
-0.37677	
-0.376465	
-0.375122	
-0.375671	
-0.374023	
-0.373718	
-0.37207	
-0.372925	
-0.374207	
-0.374573	
-0.373474	
-0.373657	
-0.372375	
-0.372314	
-0.373291	
-0.37323	
-0.373352	
-0.372498	
-0.373596	
-0.37384	
-0.373901	
-0.374268	
-0.375122	
-0.373352	
-0.373901	
-0.375977	
-0.373779	
-0.373596	
-0.373352	
-0.374451	
-0.373657	
-0.374878	
-0.374512	
-0.375183	
-0.37439	
-0.374451	
-0.376282	
-0.374329	
-0.374268	
-0.373108	
-0.374146	
-0.374268	
-0.374573	
-0.373291	
-0.373108	
-0.371765	
-0.372986	
-0.373779	
-0.372498	
-0.37262	
-0.372009	
-0.37323	
-0.372742	
-0.37323	
-0.372803	
	
