E:\DOCUMENTS AND SETTINGS\JPOTAS\MEUS DOCUMENTOS\UFRJ\RSCI-BM 12 WK SERIES\070719-RSCI-BM-02\RSCI-BM-02-REMG\070719-RSCI-BM-02-REMG-0000.ACQ
0.025000 msec/sample
1 channel
Analog input
Volts
CH1	
2000	
-0.391479	
-0.391541	
-0.390869	
-0.389526	
-0.390564	
-0.391052	
-0.39093	
-0.39093	
-0.391602	
-0.390625	
-0.392151	
-0.390686	
-0.390808	
-0.390015	
-0.390808	
-0.390564	
-0.390259	
-0.389954	
-0.389648	
-0.390015	
-0.39032	
-0.390381	
-0.390625	
-0.390503	
-0.39032	
-0.39093	
-0.390625	
-0.390503	
-0.390442	
-0.391968	
-0.390564	
-0.391907	
-0.390747	
-0.390564	
-0.390076	
-0.390991	
-0.391479	
-0.391052	
-0.390686	
-0.390198	
-0.390991	
-0.391418	
-0.391113	
-0.390869	
-0.390381	
-0.39032	
-0.391968	
-0.391113	
-0.39093	
-0.390747	
-0.392212	
-0.391602	
-0.392578	
-0.39093	
-0.391541	
-0.39032	
-0.390564	
-0.391541	
-0.391296	
-0.391052	
-0.391235	
-0.391418	
-0.392029	
-0.391968	
-0.391785	
-0.391479	
-0.391663	
-0.392334	
-0.392212	
-0.392273	
-0.39209	
-0.393311	
-0.392456	
-0.39447	
-0.39209	
-0.3927	
-0.390686	
-0.392578	
-0.393311	
-0.393433	
-0.393127	
-0.393433	
-0.393127	
-0.39386	
-0.393494	
-0.392944	
-0.392822	
-0.392761	
-0.394165	
-0.393066	
-0.393005	
-0.3927	
-0.393982	
-0.393616	
-0.394592	
-0.392639	
-0.393555	
-0.392517	
-0.3927	
-0.393677	
-0.393738	
-0.393433	
-0.394104	
-0.394348	
-0.395447	
-0.39447	
-0.394714	
-0.394226	
-0.395081	
-0.39563	
-0.39502	
-0.394653	
-0.393433	
-0.39502	
-0.395142	
-0.395447	
-0.395325	
-0.395142	
-0.395203	
-0.39447	
-0.395752	
-0.39624	
-0.395752	
-0.396729	
-0.396362	
-0.397278	
-0.396545	
-0.396423	
-0.39563	
-0.395264	
-0.396912	
-0.395386	
-0.395447	
-0.394775	
-0.395386	
-0.395081	
-0.395386	
-0.395142	
-0.394714	
-0.394409	
-0.394165	
-0.395142	
-0.394836	
-0.394836	
-0.395447	
-0.39502	
-0.396057	
-0.395691	
-0.395203	
-0.394653	
-0.394531	
-0.396423	
-0.395447	
-0.395813	
-0.395447	
-0.396179	
-0.396423	
-0.396912	
-0.396484	
-0.396362	
-0.396667	
-0.395874	
-0.39679	
-0.397095	
-0.39679	
-0.397461	
-0.3974	
-0.398621	
-0.39801	
-0.397644	
-0.396667	
-0.397583	
-0.398621	
-0.398071	
-0.397888	
-0.397583	
-0.398682	
-0.398987	
-0.398682	
-0.397217	
-0.397949	
-0.397766	
-0.397339	
-0.397827	
-0.398315	
-0.398376	
-0.398865	
-0.39917	
-0.399414	
-0.399475	
-0.398865	
-0.398315	
-0.398804	
-0.399292	
-0.39856	
-0.398438	
-0.397949	
-0.398132	
-0.397461	
-0.3974	
-0.39563	
-0.395447	
-0.39502	
-0.397217	
-0.397827	
-0.397339	
-0.3974	
-0.397705	
-0.398071	
-0.398132	
-0.397827	
-0.397339	
-0.397339	
-0.397827	
-0.398438	
-0.397583	
-0.3974	
-0.396851	
-0.398254	
-0.39856	
-0.397949	
-0.396423	
-0.396118	
-0.396912	
-0.396667	
-0.397461	
-0.397278	
-0.397278	
-0.397888	
-0.397766	
-0.398193	
-0.398132	
-0.397705	
-0.397705	
-0.397827	
-0.398621	
-0.398071	
-0.398071	
-0.397156	
-0.398865	
-0.399231	
-0.398132	
-0.39624	
-0.396606	
-0.396484	
-0.396423	
-0.396118	
-0.396423	
-0.39563	
-0.395569	
-0.395447	
-0.395264	
-0.394592	
-0.393616	
-0.393555	
-0.393494	
-0.39325	
-0.392456	
-0.391663	
-0.390991	
-0.391235	
-0.391296	
-0.390625	
-0.388367	
-0.38739	
-0.387024	
-0.387024	
-0.387512	
-0.386597	
-0.385925	
-0.386719	
-0.38623	
-0.385742	
-0.385498	
-0.384583	
-0.384277	
-0.384155	
-0.384094	
-0.383484	
-0.38324	
-0.384033	
-0.384888	
-0.384766	
-0.385376	
-0.384155	
-0.385803	
-0.385559	
-0.387451	
-0.387024	
-0.387329	
-0.386902	
-0.38916	
-0.390686	
-0.391602	
-0.392578	
-0.392395	
-0.394653	
-0.395935	
-0.398132	
-0.399597	
-0.40094	
-0.401672	
-0.403137	
-0.403259	
-0.404175	
-0.402954	
-0.404541	
-0.405823	
-0.406616	
-0.407898	
-0.409302	
-0.410889	
-0.413391	
-0.414185	
-0.416077	
-0.415344	
-0.417114	
-0.416748	
-0.417786	
-0.418335	
-0.418091	
-0.417847	
-0.417725	
-0.41626	
-0.414795	
-0.412415	
-0.410828	
-0.409302	
-0.40918	
-0.408691	
-0.408081	
-0.407776	
-0.408691	
-0.409485	
-0.40979	
-0.411255	
-0.411621	
-0.413513	
-0.414551	
-0.416565	
-0.417725	
-0.417664	
-0.419983	
-0.420959	
-0.421814	
-0.423035	
-0.422302	
-0.423462	
-0.423157	
-0.424316	
-0.423645	
-0.422546	
-0.423035	
-0.42334	
-0.422302	
-0.422791	
-0.420044	
-0.420532	
-0.419556	
-0.420593	
-0.420532	
-0.419922	
-0.420227	
-0.421021	
-0.419128	
-0.419678	
-0.416809	
-0.417847	
-0.417725	
-0.417603	
-0.417419	
-0.416443	
-0.416565	
-0.416687	
-0.415588	
-0.415222	
-0.414246	
-0.413696	
-0.41333	
-0.41272	
-0.412109	
-0.411377	
-0.410522	
-0.410278	
-0.410583	
-0.40918	
-0.408508	
-0.407043	
-0.407837	
-0.407227	
-0.40686	
-0.40625	
-0.405884	
-0.405518	
-0.404968	
-0.403687	
-0.403625	
-0.399902	
-0.39856	
-0.395325	
-0.394043	
-0.391113	
-0.387268	
-0.385376	
-0.38269	
-0.378113	
-0.375244	
-0.370728	
-0.367432	
-0.363831	
-0.360291	
-0.356262	
-0.352356	
-0.349243	
-0.346375	
-0.343384	
-0.339661	
-0.336182	
-0.330811	
-0.328735	
-0.325134	
-0.322815	
-0.319641	
-0.316772	
-0.315979	
-0.315735	
-0.313232	
-0.313782	
-0.311462	
-0.312805	
-0.312988	
-0.314331	
-0.315613	
-0.315857	
-0.318848	
-0.321045	
-0.321716	
-0.324402	
-0.32373	
-0.325684	
-0.326721	
-0.328552	
-0.330017	
-0.331116	
-0.334106	
-0.337158	
-0.338257	
-0.341492	
-0.341553	
-0.343384	
-0.344299	
-0.34668	
-0.347961	
-0.348816	
-0.351624	
-0.353821	
-0.354492	
-0.3573	
-0.356201	
-0.357971	
-0.357971	
-0.359863	
-0.360352	
-0.360291	
-0.362244	
-0.363525	
-0.36322	
-0.365479	
-0.364197	
-0.365173	
-0.364624	
-0.366394	
-0.366455	
-0.366333	
-0.367126	
-0.368469	
-0.367981	
-0.369385	
-0.367859	
-0.368347	
-0.367676	
-0.368408	
-0.367981	
-0.368042	
-0.367676	
-0.368347	
-0.367615	
-0.368042	
-0.366272	
-0.36615	
-0.365662	
-0.36615	
-0.365723	
-0.364929	
-0.365479	
-0.365417	
-0.364807	
-0.364258	
-0.363098	
-0.36322	
-0.362305	
-0.362671	
-0.362549	
-0.362244	
-0.361755	
-0.36145	
-0.36145	
-0.361023	
-0.360474	
-0.35968	
-0.359863	
-0.360413	
-0.360229	
-0.360413	
-0.360596	
-0.361389	
-0.362061	
-0.36145	
-0.361633	
-0.360107	
-0.361328	
-0.362793	
-0.362915	
-0.363159	
-0.362671	
-0.364014	
-0.366089	
-0.364624	
-0.366089	
-0.362976	
-0.365356	
-0.365417	
-0.366211	
-0.367004	
-0.366699	
-0.367615	
-0.368652	
-0.367676	
-0.368958	
-0.367493	
-0.368591	
-0.368347	
-0.36908	
-0.369385	
-0.369263	
-0.36969	
-0.369934	
-0.369751	
-0.370728	
-0.369385	
-0.369812	
-0.369751	
-0.370178	
-0.370239	
-0.370605	
-0.371399	
-0.371399	
-0.372131	
-0.371887	
-0.370911	
-0.370239	
-0.37146	
-0.371582	
-0.371582	
-0.371338	
-0.371765	
-0.372437	
-0.373047	
-0.372498	
-0.372681	
-0.371216	
-0.37207	
-0.37207	
-0.372559	
-0.372864	
-0.372681	
-0.372925	
-0.37384	
-0.374023	
-0.374329	
-0.373535	
-0.373901	
-0.373901	
-0.374084	
-0.374146	
-0.373779	
-0.374512	
-0.374756	
-0.375061	
-0.375305	
-0.374451	
-0.374573	
-0.375671	
-0.375244	
-0.375	
-0.374634	
-0.375671	
-0.37616	
-0.376221	
-0.376343	
-0.375549	
-0.37561	
-0.375732	
-0.37561	
-0.375671	
-0.375977	
-0.375977	
-0.376953	
-0.377197	
-0.377686	
-0.376526	
-0.376099	
-0.37616	
-0.376587	
-0.377258	
-0.376953	
-0.376953	
-0.377258	
-0.377991	
-0.378296	
-0.378479	
-0.377502	
-0.378418	
-0.378235	
-0.378906	
-0.379028	
-0.378296	
-0.378967	
-0.379944	
-0.379639	
-0.379761	
-0.378967	
-0.379517	
-0.380249	
-0.379883	
-0.379822	
-0.378967	
-0.380432	
-0.381409	
-0.380432	
-0.380127	
-0.378784	
-0.380066	
-0.380737	
-0.380737	
-0.380493	
-0.380188	
-0.380615	
-0.381104	
-0.381287	
-0.38147	
-0.380005	
-0.37915	
-0.380188	
-0.380859	
-0.380798	
-0.380493	
-0.381165	
-0.381287	
-0.382202	
-0.382568	
-0.381348	
-0.380859	
-0.38031	
-0.381592	
-0.381592	
-0.381348	
-0.382019	
-0.382141	
-0.382507	
-0.382385	
-0.382202	
-0.381226	
-0.381409	
-0.380615	
-0.38147	
-0.381348	
-0.381592	
-0.381775	
-0.383057	
-0.382263	
-0.382324	
-0.38031	
-0.381348	
-0.379944	
-0.381104	
-0.38092	
-0.381104	
-0.381775	
-0.382813	
-0.382446	
-0.382202	
-0.380371	
-0.381165	
-0.380676	
-0.381409	
-0.381042	
-0.381287	
-0.381165	
-0.381897	
-0.381165	
-0.381287	
-0.380371	
-0.380615	
-0.380798	
-0.380493	
-0.380432	
-0.380371	
-0.380615	
-0.380798	
-0.380859	
-0.380493	
-0.379822	
-0.379333	
-0.380249	
-0.379822	
-0.379517	
-0.378479	
-0.379578	
-0.380066	
-0.381226	
-0.380615	
-0.379028	
-0.377319	
-0.378601	
-0.378784	
-0.378723	
-0.378235	
-0.378784	
-0.378967	
-0.380371	
-0.380005	
-0.379944	
-0.379211	
-0.380066	
-0.380005	
-0.380371	
-0.380554	
-0.381287	
-0.381165	
-0.381897	
-0.382507	
-0.383057	
-0.382019	
-0.383057	
-0.382507	
-0.383118	
-0.383728	
-0.383423	
-0.383179	
-0.383972	
-0.385864	
-0.383972	
-0.38385	
-0.382324	
-0.385071	
-0.38446	
-0.384583	
-0.383972	
-0.385437	
-0.385071	
-0.386536	
-0.386536	
-0.385925	
-0.385437	
-0.385925	
-0.386414	
-0.386414	
-0.386169	
-0.38739	
-0.387268	
-0.388123	
-0.388855	
-0.388916	
-0.38855	
-0.389038	
-0.388489	
-0.388794	
-0.388306	
-0.388367	
-0.387817	
-0.388672	
-0.389282	
-0.388855	
-0.388855	
-0.389099	
-0.389648	
-0.389832	
-0.390015	
-0.390564	
-0.390259	
-0.390564	
-0.391846	
-0.391235	
-0.390991	
-0.389526	
-0.390625	
-0.389893	
-0.389893	
-0.388855	
-0.390015	
-0.390137	
-0.391052	
-0.390808	
-0.390564	
-0.388489	
-0.389648	
-0.389099	
-0.389954	
-0.389893	
-0.390015	
-0.390137	
-0.391357	
-0.391357	
-0.390503	
-0.389465	
-0.389771	
-0.390747	
-0.390808	
-0.390991	
-0.391113	
-0.391479	
-0.392395	
-0.392517	
-0.392395	
-0.391479	
-0.391663	
-0.391785	
-0.392212	
-0.392456	
-0.392578	
-0.392639	
-0.393188	
-0.39325	
-0.392639	
-0.392944	
-0.392578	
-0.393433	
-0.392395	
-0.393311	
-0.392456	
-0.393799	
-0.394287	
-0.39502	
-0.393982	
-0.394226	
-0.392334	
-0.394409	
-0.393372	
-0.394409	
-0.393799	
-0.39502	
-0.394836	
-0.395691	
-0.395142	
-0.395081	
-0.394653	
-0.395447	
-0.395386	
-0.395264	
-0.394653	
-0.394714	
-0.394897	
-0.395813	
-0.395081	
-0.394348	
-0.394531	
-0.393433	
-0.394897	
-0.392761	
-0.394104	
-0.39325	
-0.394287	
-0.394897	
-0.395142	
-0.394043	
-0.393616	
-0.392456	
-0.394775	
-0.394287	
-0.394409	
-0.394165	
-0.39447	
-0.395386	
-0.395508	
-0.394104	
-0.393005	
-0.393433	
-0.393982	
-0.393555	
-0.393677	
-0.393616	
-0.394287	
-0.395508	
-0.394165	
-0.393982	
-0.394165	
-0.394714	
-0.39447	
-0.39447	
-0.393799	
-0.394653	
-0.394348	
-0.39502	
-0.395142	
-0.395386	
-0.394531	
-0.394836	
-0.393494	
-0.394775	
-0.39325	
-0.393616	
-0.392639	
-0.393799	
-0.393372	
-0.394775	
-0.393311	
-0.39325	
-0.391113	
-0.393677	
-0.393311	
-0.393127	
-0.393188	
-0.393555	
-0.394043	
-0.39447	
-0.393555	
-0.392517	
-0.393066	
-0.39386	
-0.39325	
-0.393188	
-0.393005	
-0.39386	
-0.394348	
-0.394348	
-0.394409	
-0.393738	
-0.394775	
-0.394653	
-0.395142	
-0.393433	
-0.394287	
-0.393127	
-0.394531	
-0.394653	
-0.395691	
-0.394226	
-0.39563	
-0.39325	
-0.394958	
-0.393494	
-0.39447	
-0.393677	
-0.393799	
-0.394104	
-0.395081	
-0.393066	
-0.394104	
-0.392456	
-0.393555	
-0.39209	
-0.393066	
-0.392822	
-0.392944	
-0.393433	
-0.392883	
-0.392578	
-0.391968	
-0.392029	
-0.392273	
-0.392273	
-0.391846	
-0.391663	
-0.392212	
-0.392334	
-0.391968	
-0.392395	
-0.391602	
-0.391541	
-0.390503	
-0.392151	
-0.391174	
-0.391296	
-0.390625	
-0.391479	
-0.390869	
-0.392212	
-0.390747	
-0.391235	
-0.389404	
-0.391174	
-0.389343	
-0.390137	
-0.389465	
-0.389832	
-0.39032	
-0.390198	
-0.389343	
-0.388916	
-0.38916	
-0.390259	
-0.389893	
-0.390442	
-0.390076	
-0.390259	
-0.390747	
-0.390503	
-0.391602	
-0.390625	
-0.390686	
-0.389709	
-0.390869	
-0.390808	
-0.390808	
-0.391418	
-0.391052	
-0.391174	
-0.392334	
-0.391113	
-0.391907	
-0.389648	
-0.391846	
-0.389832	
-0.390869	
-0.389526	
-0.390625	
-0.391846	
-0.391418	
-0.391235	
-0.390442	
-0.391174	
-0.392273	
-0.391541	
-0.391296	
-0.391296	
-0.391357	
-0.392029	
-0.392517	
-0.393066	
-0.391968	
-0.391663	
-0.391235	
-0.391846	
-0.391907	
-0.391785	
-0.391541	
-0.391785	
-0.392273	
-0.3927	
-0.392029	
-0.392029	
-0.391052	
-0.392578	
-0.390991	
-0.391235	
-0.390747	
-0.391785	
-0.392578	
-0.392517	
-0.39209	
-0.391418	
-0.39093	
-0.391724	
-0.391174	
-0.39093	
-0.390808	
-0.391113	
-0.391296	
-0.39093	
-0.391296	
-0.390198	
-0.390503	
-0.389099	
-0.389954	
-0.389221	
-0.389832	
-0.389465	
-0.389648	
-0.390442	
-0.390259	
-0.389893	
-0.389954	
-0.390137	
-0.391357	
-0.390015	
-0.390442	
-0.390015	
-0.391052	
-0.391479	
-0.391907	
-0.39093	
-0.391113	
-0.389526	
-0.390808	
-0.391174	
-0.390991	
-0.390686	
-0.390686	
-0.390991	
-0.391174	
-0.391296	
-0.390503	
-0.389893	
-0.389404	
-0.389648	
-0.389099	
-0.388977	
-0.388916	
-0.38916	
-0.390137	
-0.389465	
-0.389648	
-0.388367	
-0.388916	
-0.389526	
-0.387573	
-0.388245	
-0.387634	
-0.388	
-0.388062	
-0.387756	
-0.387207	
-0.387268	
-0.386536	
-0.387634	
-0.386047	
-0.386841	
-0.386047	
-0.387207	
-0.387573	
-0.388672	
-0.388062	
-0.388062	
-0.387085	
-0.387634	
-0.387878	
-0.388306	
-0.387878	
-0.388184	
-0.388123	
-0.389221	
-0.389343	
-0.388245	
-0.387451	
-0.387329	
-0.388184	
-0.388	
-0.387878	
-0.387451	
-0.388123	
-0.388123	
-0.388123	
-0.38739	
-0.387573	
-0.386841	
-0.387878	
-0.386719	
-0.386841	
-0.385803	
-0.38678	
-0.386658	
-0.388489	
-0.387024	
-0.38739	
-0.384644	
-0.38678	
-0.385986	
-0.38678	
-0.386536	
-0.386597	
-0.387207	
-0.387756	
-0.387329	
-0.387085	
-0.386169	
-0.385925	
-0.386719	
-0.386353	
-0.386414	
-0.386536	
-0.386292	
-0.386658	
-0.386353	
-0.386414	
-0.38562	
-0.38562	
-0.385742	
-0.385315	
-0.385193	
-0.385559	
-0.386047	
-0.386353	
-0.387329	
-0.385803	
-0.386108	
-0.383911	
-0.386841	
-0.384766	
-0.38623	
-0.38562	
-0.386536	
-0.386536	
-0.387878	
-0.387817	
-0.387573	
-0.38562	
-0.386353	
-0.385925	
-0.386658	
-0.386292	
-0.386841	
-0.386353	
-0.387268	
-0.387268	
-0.387085	
-0.386414	
-0.386719	
-0.386658	
-0.386658	
-0.38678	
-0.387329	
-0.387329	
-0.387756	
-0.388489	
-0.387207	
-0.387207	
-0.386108	
-0.387634	
-0.38678	
-0.386841	
-0.385986	
-0.386658	
-0.386902	
-0.387695	
-0.387756	
-0.387024	
-0.385376	
-0.386475	
-0.386414	
-0.387146	
-0.386414	
-0.387207	
-0.387634	
-0.388733	
-0.388245	
-0.389099	
-0.387512	
-0.388184	
-0.387695	
-0.388367	
-0.388123	
-0.388062	
-0.388428	
-0.388733	
-0.389221	
-0.388672	
-0.387756	
-0.386841	
-0.388123	
-0.388184	
-0.388123	
-0.388123	
-0.388367	
-0.388428	
-0.389465	
-0.388672	
-0.388733	
-0.385986	
-0.38739	
-0.386475	
-0.387085	
-0.386047	
-0.387573	
-0.387268	
-0.387817	
-0.388733	
-0.388245	
-0.387573	
-0.386597	
-0.386841	
-0.387207	
-0.386658	
-0.387207	
-0.386963	
-0.387573	
-0.38916	
-0.387878	
-0.387512	
-0.38678	
-0.388	
-0.387878	
-0.387878	
-0.388367	
-0.388489	
-0.388306	
-0.389954	
-0.388367	
-0.389343	
-0.387268	
-0.389343	
-0.387817	
-0.388367	
-0.387878	
-0.388855	
-0.388672	
-0.389648	
-0.389282	
-0.389282	
-0.388123	
-0.388184	
-0.388184	
-0.388489	
-0.388428	
-0.388672	
-0.389038	
-0.388794	
-0.389648	
-0.388794	
-0.388489	
-0.387207	
-0.388428	
-0.388062	
-0.388306	
-0.388794	
-0.388794	
-0.38916	
-0.389954	
-0.389221	
-0.389832	
-0.387756	
-0.389465	
-0.387756	
-0.388428	
-0.387817	
-0.389099	
-0.388794	
-0.389771	
-0.389465	
-0.388733	
-0.388062	
-0.387207	
-0.388	
-0.388	
-0.387939	
-0.388428	
-0.388489	
-0.388367	
-0.389221	
-0.388062	
-0.387878	
-0.38678	
-0.387878	
-0.387207	
-0.387146	
-0.386597	
-0.388123	
-0.388245	
-0.389343	
-0.388123	
-0.388977	
-0.386597	
-0.38855	
-0.387329	
-0.388123	
-0.387939	
-0.388672	
-0.388672	
-0.389282	
-0.389465	
-0.388611	
-0.388123	
-0.38678	
-0.38855	
-0.388794	
-0.388672	
-0.388916	
-0.38855	
-0.388855	
-0.389709	
-0.389099	
-0.388489	
-0.387817	
-0.388855	
-0.388306	
-0.388611	
-0.38855	
-0.388672	
-0.388977	
-0.390076	
-0.388672	
-0.389404	
-0.387634	
-0.389099	
-0.387817	
-0.388428	
-0.388123	
-0.388977	
-0.389221	
-0.389587	
-0.390747	
-0.389526	
-0.389404	
-0.387756	
-0.389221	
-0.389648	
-0.389954	
-0.390076	
-0.390076	
-0.390869	
-0.391785	
-0.390625	
-0.391235	
-0.390381	
-0.390564	
-0.389954	
-0.390381	
-0.390503	
-0.390381	
-0.390625	
-0.391602	
-0.390686	
-0.391541	
-0.389465	
-0.391235	
-0.390503	
-0.391113	
-0.390015	
-0.390808	
-0.391357	
-0.391602	
-0.392456	
-0.391602	
-0.391235	
-0.389465	
-0.391052	
-0.391174	
-0.391174	
-0.391602	
-0.392212	
-0.392456	
-0.393494	
-0.392578	
-0.392517	
-0.391479	
-0.392395	
-0.390381	
-0.391418	
-0.390564	
-0.39209	
-0.392334	
-0.393433	
-0.393494	
-0.393433	
-0.39209	
-0.392822	
-0.393494	
-0.393738	
-0.393616	
-0.393921	
-0.393982	
-0.394226	
-0.395325	
-0.393494	
-0.392883	
-0.391724	
-0.392822	
-0.392517	
-0.392517	
-0.392151	
-0.392029	
-0.392334	
-0.393433	
-0.392151	
-0.392822	
-0.390808	
-0.393188	
-0.391785	
-0.392334	
-0.39093	
-0.392212	
-0.39209	
-0.393311	
-0.393616	
-0.392456	
-0.391907	
-0.391785	
-0.3927	
-0.392822	
-0.393066	
-0.393372	
-0.393127	
-0.393982	
-0.394775	
-0.393921	
-0.394226	
-0.392944	
-0.39447	
-0.393066	
-0.394043	
-0.393921	
-0.394653	
-0.39447	
-0.395264	
-0.394775	
-0.394836	
-0.394226	
-0.395264	
-0.394836	
-0.395447	
-0.395203	
-0.395203	
-0.395386	
-0.395996	
-0.396118	
-0.394653	
-0.393982	
-0.394104	
-0.39563	
-0.395813	
-0.39563	
-0.395752	
-0.395935	
-0.395874	
-0.396729	
-0.396057	
-0.396301	
-0.395264	
-0.396606	
-0.394714	
-0.395447	
-0.394836	
-0.395386	
-0.395142	
-0.395081	
-0.394836	
-0.394714	
-0.394592	
-0.394165	
-0.394958	
-0.394836	
-0.394531	
-0.394592	
-0.394653	
-0.395325	
-0.395996	
-0.394775	
-0.393982	
-0.393494	
-0.39563	
-0.394226	
-0.395203	
-0.394104	
-0.394531	
-0.395203	
-0.395264	
-0.394409	
-0.394775	
-0.393555	
-0.39502	
-0.394043	
-0.394409	
-0.394165	
-0.394287	
-0.394775	
-0.394897	
-0.395386	
-0.394348	
-0.394348	
-0.394043	
-0.394409	
-0.394165	
-0.394348	
-0.394165	
-0.393677	
-0.394226	
-0.394653	
-0.393555	
-0.392395	
-0.391785	
-0.393433	
-0.391907	
-0.392578	
-0.391113	
-0.392517	
-0.392944	
-0.393188	
-0.392517	
-0.392517	
-0.391785	
-0.392761	
-0.392456	
-0.39209	
-0.391968	
-0.392334	
-0.392151	
-0.3927	
-0.393127	
-0.391968	
-0.39209	
-0.391357	
-0.392578	
-0.391724	
-0.393005	
-0.393066	
-0.39325	
-0.393677	
-0.394226	
-0.392883	
-0.393433	
-0.39209	
-0.393738	
-0.392395	
-0.393005	
-0.392334	
-0.393066	
-0.393616	
-0.393433	
-0.39325	
-0.392761	
-0.392639	
-0.392761	
-0.39209	
-0.392151	
-0.392151	
-0.39209	
-0.391968	
-0.393005	
-0.393494	
-0.391785	
-0.39093	
-0.390442	
-0.391357	
-0.390869	
-0.391174	
-0.391418	
-0.391479	
-0.391968	
-0.391663	
-0.391479	
-0.391418	
-0.390991	
-0.391663	
-0.39093	
-0.391479	
-0.390137	
-0.391235	
-0.391602	
-0.391907	
-0.392395	
-0.391724	
-0.391541	
-0.391479	
-0.391602	
-0.391663	
-0.391357	
-0.391907	
-0.391785	
-0.392578	
-0.39325	
-0.391724	
-0.391785	
-0.390381	
-0.391785	
-0.390869	
-0.391724	
-0.391663	
-0.391235	
-0.391785	
-0.392334	
-0.391785	
-0.392151	
-0.392029	
-0.3927	
-0.39209	
-0.392334	
-0.391357	
-0.392029	
-0.392456	
-0.3927	
-0.392883	
-0.392517	
-0.392578	
-0.392273	
-0.392517	
-0.391174	
-0.392517	
-0.39209	
-0.392151	
-0.392212	
-0.393372	
-0.391296	
-0.391418	
-0.389954	
-0.391785	
-0.391418	
-0.391113	
-0.391235	
-0.391724	
-0.391541	
-0.391968	
-0.391479	
-0.391541	
-0.391479	
-0.39209	
-0.390747	
-0.390381	
-0.389954	
-0.390991	
-0.391174	
-0.392029	
-0.391968	
-0.391052	
-0.390808	
-0.390503	
-0.390808	
-0.39032	
-0.390137	
-0.390625	
-0.390442	
-0.391296	
-0.392151	
-0.39032	
-0.389954	
-0.389465	
-0.390564	
-0.390442	
-0.390686	
-0.391174	
-0.39032	
-0.390808	
-0.391174	
-0.39032	
-0.390076	
-0.390686	
-0.391479	
-0.39032	
-0.389648	
-0.389038	
-0.390198	
-0.390198	
-0.390625	
-0.390564	
-0.389465	
-0.388611	
-0.388123	
-0.389771	
-0.38916	
-0.388916	
-0.389404	
-0.389465	
-0.390015	
-0.390381	
-0.389648	
-0.388916	
-0.388916	
-0.389954	
-0.389099	
-0.388062	
-0.388062	
-0.38916	
-0.389221	
-0.389587	
-0.389771	
-0.388977	
-0.388977	
-0.388794	
-0.388916	
-0.388489	
-0.388672	
-0.38855	
-0.388306	
-0.389099	
-0.389526	
-0.387817	
-0.387695	
-0.387146	
-0.388367	
-0.388	
-0.388123	
-0.388611	
-0.388306	
-0.388245	
-0.388672	
-0.38739	
-0.386902	
-0.38739	
-0.387512	
-0.386475	
-0.385315	
-0.385925	
-0.385986	
-0.386169	
-0.387085	
-0.387268	
-0.385864	
-0.38623	
-0.385803	
-0.387146	
-0.387207	
-0.387024	
-0.387756	
-0.387634	
-0.388428	
-0.388855	
-0.387817	
-0.387451	
-0.387512	
-0.387756	
-0.387512	
-0.387573	
-0.387817	
-0.387939	
-0.388062	
-0.38916	
-0.388367	
-0.387573	
-0.387268	
-0.387939	
-0.387146	
-0.386536	
-0.38562	
-0.386963	
-0.387207	
-0.387268	
-0.388306	
-0.38623	
-0.386963	
-0.38562	
-0.386108	
-0.385864	
-0.385986	
-0.386536	
-0.386597	
-0.386597	
-0.387451	
-0.386536	
-0.386719	
-0.386658	
-0.386414	
-0.386353	
-0.385559	
-0.385986	
-0.386353	
-0.385986	
-0.387451	
-0.387634	
-0.386536	
-0.386047	
-0.385193	
-0.38562	
-0.384583	
-0.384644	
-0.38562	
-0.385742	
-0.385803	
-0.386536	
-0.385559	
-0.385315	
-0.385132	
-0.385681	
-0.385742	
-0.385498	
-0.385437	
-0.385681	
-0.38623	
-0.387573	
-0.386597	
-0.38623	
-0.384888	
-0.386169	
-0.385864	
-0.386047	
-0.386536	
-0.386841	
-0.386841	
-0.387085	
-0.388611	
-0.386841	
-0.387268	
-0.385437	
-0.386169	
-0.385132	
-0.386047	
-0.386841	
-0.386292	
-0.387146	
-0.388	
-0.387268	
-0.387512	
-0.387573	
-0.387085	
-0.386536	
-0.386719	
-0.38739	
-0.387329	
-0.386719	
-0.387878	
-0.388123	
-0.387268	
-0.386047	
-0.384766	
-0.386841	
-0.38623	
-0.386658	
-0.386658	
-0.386902	
-0.387695	
-0.388123	
-0.387146	
-0.388428	
-0.387939	
-0.387817	
-0.387085	
-0.387634	
-0.388489	
-0.388184	
-0.38855	
-0.389221	
-0.388672	
-0.388855	
-0.387573	
-0.388	
-0.387756	
-0.388306	
-0.38855	
-0.388428	
-0.38855	
-0.389221	
-0.389648	
-0.388794	
-0.388733	
-0.387756	
-0.388184	
-0.387939	
-0.387146	
-0.387939	
-0.387695	
-0.387756	
-0.388733	
-0.387634	
-0.388184	
-0.388123	
-0.387939	
-0.387695	
-0.387451	
-0.387695	
-0.387878	
-0.387756	
-0.388794	
-0.388428	
-0.387756	
-0.387146	
-0.385864	
-0.387817	
-0.388367	
-0.388367	
-0.388672	
-0.388672	
-0.389038	
-0.389771	
-0.388672	
-0.389526	
-0.388428	
-0.388733	
-0.387695	
-0.388855	
-0.388855	
-0.389099	
-0.389709	
-0.390747	
-0.390137	
-0.389832	
-0.388855	
-0.387878	
-0.388916	
-0.388367	
-0.389221	
-0.389404	
-0.389038	
-0.389648	
-0.390259	
-0.38916	
-0.389709	
-0.388794	
-0.38916	
-0.388794	
-0.389587	
-0.38916	
-0.38916	
-0.389404	
-0.390076	
-0.389709	
-0.389893	
-0.389282	
-0.389221	
-0.389648	
-0.388672	
-0.389587	
-0.389771	
	
