E:\DOCUMENTS AND SETTINGS\JPOTAS\MEUS DOCUMENTOS\UFRJ\RSCI-BM 12 WK SERIES\070719-RSCI-BM-02\RSCI-BM-02-REMG\070719-RSCI-BM-02-REMG-0011.ACQ
0.025000 msec/sample
1 channel
Analog input
Volts
CH1	
2000	
-0.399841	
-0.399475	
-0.399048	
-0.399658	
-0.399109	
-0.39856	
-0.398804	
-0.398987	
-0.398621	
-0.3974	
-0.397034	
-0.397583	
-0.397583	
-0.398193	
-0.397644	
-0.398315	
-0.397827	
-0.398438	
-0.397034	
-0.397583	
-0.397156	
-0.39856	
-0.397827	
-0.397644	
-0.396851	
-0.397827	
-0.397034	
-0.397034	
-0.396606	
-0.396362	
-0.396057	
-0.397034	
-0.39679	
-0.396851	
-0.39679	
-0.396301	
-0.395935	
-0.396973	
-0.39624	
-0.396057	
-0.395874	
-0.39624	
-0.39624	
-0.395996	
-0.396545	
-0.395447	
-0.39679	
-0.396423	
-0.396912	
-0.395142	
-0.396423	
-0.396118	
-0.398071	
-0.397827	
-0.397827	
-0.398193	
-0.398132	
-0.397766	
-0.397766	
-0.397644	
-0.397827	
-0.396729	
-0.397949	
-0.397949	
-0.397705	
-0.397949	
-0.397522	
-0.397339	
-0.397217	
-0.396667	
-0.395508	
-0.395142	
-0.394836	
-0.395203	
-0.39386	
-0.393921	
-0.39325	
-0.394165	
-0.393005	
-0.393921	
-0.392578	
-0.392334	
-0.391235	
-0.392517	
-0.392395	
-0.392273	
-0.39325	
-0.392151	
-0.392456	
-0.393494	
-0.392334	
-0.392395	
-0.391541	
-0.39325	
-0.393677	
-0.39325	
-0.393921	
-0.393616	
-0.394592	
-0.394348	
-0.394165	
-0.393372	
-0.394348	
-0.394287	
-0.395203	
-0.394531	
-0.394714	
-0.394775	
-0.394958	
-0.395264	
-0.394226	
-0.394836	
-0.394897	
-0.395081	
-0.395569	
-0.395386	
-0.395996	
-0.396667	
-0.396667	
-0.398376	
-0.399231	
-0.39801	
-0.397949	
-0.3974	
-0.398987	
-0.399963	
-0.400146	
-0.400085	
-0.399292	
-0.400452	
-0.401184	
-0.400635	
-0.400452	
-0.401062	
-0.40155	
-0.40155	
-0.400818	
-0.400452	
-0.401062	
-0.40094	
-0.40094	
-0.400818	
-0.40033	
-0.399414	
-0.398193	
-0.400269	
-0.399963	
-0.39978	
-0.400208	
-0.39978	
-0.400452	
-0.400696	
-0.399536	
-0.399048	
-0.398621	
-0.399048	
-0.400269	
-0.399231	
-0.399109	
-0.398865	
-0.39978	
-0.39917	
-0.399231	
-0.398621	
-0.398621	
-0.399048	
-0.398682	
-0.398132	
-0.398621	
-0.398743	
-0.398071	
-0.398621	
-0.397705	
-0.397644	
-0.396362	
-0.396484	
-0.397888	
-0.398193	
-0.397339	
-0.397278	
-0.395142	
-0.39679	
-0.397278	
-0.395325	
-0.395081	
-0.393494	
-0.394653	
-0.395264	
-0.394897	
-0.395264	
-0.395447	
-0.395325	
-0.396667	
-0.39502	
-0.395081	
-0.394287	
-0.395447	
-0.393921	
-0.392822	
-0.392212	
-0.393188	
-0.393188	
-0.393616	
-0.395386	
-0.396179	
-0.395813	
-0.395569	
-0.396057	
-0.396973	
-0.396423	
-0.395752	
-0.394226	
-0.395752	
-0.396484	
-0.394958	
-0.394958	
-0.393616	
-0.394775	
-0.39502	
-0.394531	
-0.394592	
-0.394897	
-0.394043	
-0.395325	
-0.393188	
-0.393372	
-0.392395	
-0.394043	
-0.394714	
-0.394836	
-0.394775	
-0.395447	
-0.395264	
-0.395874	
-0.396362	
-0.395813	
-0.395203	
-0.394592	
-0.396484	
-0.397461	
-0.396362	
-0.396545	
-0.396118	
-0.396545	
-0.397766	
-0.395874	
-0.395935	
-0.394592	
-0.395508	
-0.39502	
-0.394287	
-0.393982	
-0.394043	
-0.393616	
-0.393982	
-0.391968	
-0.391724	
-0.389771	
-0.390991	
-0.391235	
-0.390808	
-0.390747	
-0.390381	
-0.390137	
-0.390259	
-0.390198	
-0.388428	
-0.387817	
-0.385803	
-0.387451	
-0.387634	
-0.386963	
-0.386414	
-0.385681	
-0.386108	
-0.386902	
-0.384827	
-0.384399	
-0.383118	
-0.384705	
-0.385376	
-0.384521	
-0.385559	
-0.386169	
-0.386719	
-0.388123	
-0.386963	
-0.387756	
-0.38678	
-0.389221	
-0.390198	
-0.390625	
-0.391418	
-0.392639	
-0.393372	
-0.395386	
-0.3974	
-0.397522	
-0.398376	
-0.398987	
-0.401611	
-0.402344	
-0.40387	
-0.405151	
-0.407104	
-0.408325	
-0.411255	
-0.412476	
-0.414795	
-0.416443	
-0.421326	
-0.425049	
-0.429443	
-0.43396	
-0.437866	
-0.442261	
-0.44696	
-0.449524	
-0.45282	
-0.455688	
-0.459412	
-0.461914	
-0.464417	
-0.466797	
-0.46875	
-0.471191	
-0.473633	
-0.474792	
-0.476868	
-0.478088	
-0.480713	
-0.482727	
-0.484253	
-0.486328	
-0.487427	
-0.489075	
-0.491272	
-0.491516	
-0.492188	
-0.492126	
-0.493958	
-0.495728	
-0.495605	
-0.495605	
-0.494873	
-0.4953	
-0.49585	
-0.494141	
-0.493408	
-0.491455	
-0.491882	
-0.492126	
-0.490662	
-0.48938	
-0.489136	
-0.487549	
-0.487732	
-0.485474	
-0.483765	
-0.481018	
-0.479248	
-0.478699	
-0.476135	
-0.473572	
-0.471375	
-0.468628	
-0.466614	
-0.46405	
-0.461243	
-0.457947	
-0.455811	
-0.453735	
-0.451111	
-0.448242	
-0.446228	
-0.44458	
-0.442993	
-0.442017	
-0.439514	
-0.438049	
-0.435547	
-0.435608	
-0.435425	
-0.433655	
-0.432678	
-0.430664	
-0.430298	
-0.429382	
-0.426208	
-0.424377	
-0.422546	
-0.421692	
-0.420959	
-0.418274	
-0.416199	
-0.414795	
-0.411804	
-0.409729	
-0.406494	
-0.403381	
-0.399475	
-0.396606	
-0.394714	
-0.391602	
-0.388062	
-0.385193	
-0.382385	
-0.379517	
-0.377441	
-0.373901	
-0.370789	
-0.366882	
-0.365723	
-0.363647	
-0.359985	
-0.357605	
-0.355103	
-0.353149	
-0.35144	
-0.3479	
-0.346924	
-0.345093	
-0.344543	
-0.344055	
-0.342896	
-0.342651	
-0.342712	
-0.342468	
-0.343201	
-0.34259	
-0.344543	
-0.344971	
-0.346619	
-0.348022	
-0.348511	
-0.350037	
-0.35144	
-0.351929	
-0.353882	
-0.352661	
-0.354736	
-0.354919	
-0.356323	
-0.358276	
-0.358826	
-0.359802	
-0.361511	
-0.362122	
-0.364136	
-0.363281	
-0.365356	
-0.366211	
-0.367676	
-0.368347	
-0.368469	
-0.368896	
-0.370361	
-0.370422	
-0.371277	
-0.370239	
-0.371582	
-0.371643	
-0.372559	
-0.374023	
-0.373047	
-0.373291	
-0.372925	
-0.37323	
-0.373535	
-0.371948	
-0.372742	
-0.372986	
-0.373352	
-0.374329	
-0.373962	
-0.374023	
-0.373657	
-0.373657	
-0.374207	
-0.372742	
-0.373779	
-0.37323	
-0.373413	
-0.37439	
-0.373474	
-0.373657	
-0.374207	
-0.373474	
-0.373718	
-0.372559	
-0.373413	
-0.373108	
-0.373596	
-0.37439	
-0.37384	
-0.373901	
-0.373901	
-0.373413	
-0.374023	
-0.372498	
-0.373291	
-0.372864	
-0.373535	
-0.37439	
-0.374023	
-0.373779	
-0.374451	
-0.373901	
-0.37439	
-0.373901	
-0.374573	
-0.375061	
-0.376099	
-0.377441	
-0.377563	
-0.378296	
-0.379211	
-0.37915	
-0.380859	
-0.379517	
-0.380432	
-0.379639	
-0.380676	
-0.381775	
-0.381104	
-0.381531	
-0.38208	
-0.381958	
-0.38269	
-0.38324	
-0.382141	
-0.380981	
-0.380493	
-0.382385	
-0.382568	
-0.382507	
-0.382874	
-0.382935	
-0.383606	
-0.384644	
-0.383728	
-0.38385	
-0.383362	
-0.384949	
-0.384705	
-0.385193	
-0.385132	
-0.385498	
-0.385803	
-0.386108	
-0.385803	
-0.38562	
-0.385803	
-0.386475	
-0.386475	
-0.386414	
-0.386963	
-0.387695	
-0.386963	
-0.387085	
-0.386047	
-0.386292	
-0.385864	
-0.386292	
-0.385986	
-0.386353	
-0.385559	
-0.38678	
-0.385742	
-0.386475	
-0.384521	
-0.385681	
-0.384399	
-0.385803	
-0.385986	
-0.385559	
-0.385742	
-0.386292	
-0.385742	
-0.386597	
-0.387268	
-0.385925	
-0.385376	
-0.384521	
-0.387695	
-0.386902	
-0.386597	
-0.386108	
-0.387451	
-0.387695	
-0.388184	
-0.38739	
-0.387024	
-0.386292	
-0.387329	
-0.386414	
-0.386414	
-0.385986	
-0.386597	
-0.385498	
-0.386108	
-0.384033	
-0.384705	
-0.384399	
-0.385132	
-0.384521	
-0.384155	
-0.384399	
-0.384949	
-0.38446	
-0.385376	
-0.384949	
-0.384705	
-0.383301	
-0.38385	
-0.385498	
-0.385437	
-0.385559	
-0.385193	
-0.385925	
-0.386353	
-0.386719	
-0.385864	
-0.385986	
-0.385071	
-0.387451	
-0.386963	
-0.386719	
-0.386597	
-0.388123	
-0.387817	
-0.388123	
-0.387024	
-0.387939	
-0.387695	
-0.388489	
-0.388245	
-0.388489	
-0.388123	
-0.389221	
-0.388428	
-0.389099	
-0.388245	
-0.388428	
-0.388428	
-0.389343	
-0.389832	
-0.388672	
-0.390015	
-0.389954	
-0.39093	
-0.392151	
-0.391785	
-0.392151	
-0.391174	
-0.392029	
-0.393311	
-0.393066	
-0.393127	
-0.393188	
-0.393616	
-0.394287	
-0.395081	
-0.393799	
-0.392334	
-0.392578	
-0.394348	
-0.394409	
-0.394226	
-0.393555	
-0.394653	
-0.39502	
-0.395569	
-0.393005	
-0.392883	
-0.392334	
-0.393494	
-0.393677	
-0.393188	
-0.393188	
-0.394226	
-0.393921	
-0.394348	
-0.392273	
-0.393005	
-0.392151	
-0.393494	
-0.394043	
-0.393616	
-0.393372	
-0.392639	
-0.393738	
-0.394592	
-0.393311	
-0.393066	
-0.3927	
-0.393372	
-0.393555	
-0.392883	
-0.392822	
-0.393188	
-0.393127	
-0.393555	
-0.392944	
-0.392395	
-0.392395	
-0.392639	
-0.392822	
-0.392761	
-0.393127	
-0.393005	
-0.393433	
-0.39386	
-0.393921	
-0.3927	
-0.393311	
-0.392883	
-0.394043	
-0.39447	
-0.394592	
-0.395081	
-0.395447	
-0.395996	
-0.395569	
-0.39447	
-0.394043	
-0.395081	
-0.395386	
-0.396057	
-0.395691	
-0.395142	
-0.395142	
-0.396118	
-0.395325	
-0.393738	
-0.393738	
-0.393555	
-0.393188	
-0.393127	
-0.392334	
-0.391907	
-0.392334	
-0.391907	
-0.391846	
-0.390747	
-0.390259	
-0.389893	
-0.389709	
-0.390198	
-0.389893	
-0.390015	
-0.389709	
-0.389954	
-0.391235	
-0.390564	
-0.389771	
-0.388794	
-0.389465	
-0.390442	
-0.391907	
-0.390686	
-0.391418	
-0.390442	
-0.393005	
-0.391846	
-0.391602	
-0.390686	
-0.391479	
-0.39209	
-0.392639	
-0.392639	
-0.392334	
-0.393188	
-0.393372	
-0.393066	
-0.391968	
-0.392639	
-0.393005	
-0.393127	
-0.39386	
-0.393616	
-0.393982	
-0.394226	
-0.394409	
-0.394958	
-0.394897	
-0.395325	
-0.395935	
-0.396606	
-0.397095	
-0.397766	
-0.397644	
-0.398621	
-0.39801	
-0.399658	
-0.399353	
-0.398438	
-0.397644	
-0.398438	
-0.399475	
-0.399841	
-0.399475	
-0.399963	
-0.398926	
-0.400879	
-0.400208	
-0.399292	
-0.398193	
-0.39801	
-0.398865	
-0.398743	
-0.398621	
-0.39856	
-0.399048	
-0.399719	
-0.399414	
-0.398315	
-0.397278	
-0.39801	
-0.39801	
-0.398376	
-0.398315	
-0.39856	
-0.399109	
-0.39917	
-0.399597	
-0.397217	
-0.397461	
-0.396729	
-0.398254	
-0.397827	
-0.398682	
-0.398193	
-0.398071	
-0.396667	
-0.398132	
-0.397156	
-0.397095	
-0.396729	
-0.397217	
-0.397034	
-0.397156	
-0.39679	
-0.396729	
-0.396606	
-0.396912	
-0.396362	
-0.395508	
-0.394836	
-0.394165	
-0.394836	
-0.394287	
-0.394348	
-0.394165	
-0.394653	
-0.394775	
-0.395935	
-0.393799	
-0.39447	
-0.393494	
-0.394836	
-0.394592	
-0.395691	
-0.394836	
-0.395569	
-0.394714	
-0.39624	
-0.394409	
-0.394348	
-0.394348	
-0.395386	
-0.395325	
-0.395752	
-0.395325	
-0.395264	
-0.395874	
-0.395386	
-0.394775	
-0.39447	
-0.394775	
-0.395264	
-0.39502	
-0.39502	
-0.395142	
-0.394653	
-0.395203	
-0.394348	
-0.394348	
-0.393188	
-0.39325	
-0.393311	
-0.393433	
-0.393372	
-0.394592	
-0.394043	
-0.395081	
-0.394165	
-0.395996	
-0.394043	
-0.394653	
-0.393982	
-0.395447	
-0.395264	
-0.395752	
-0.395691	
-0.39563	
-0.396484	
-0.396729	
-0.395142	
-0.39386	
-0.394531	
-0.395325	
-0.395142	
-0.394836	
-0.394653	
-0.39447	
-0.395813	
-0.395508	
-0.394165	
-0.392517	
-0.392944	
-0.394653	
-0.394348	
-0.394287	
-0.395264	
-0.39502	
-0.396606	
-0.395752	
-0.396179	
-0.395935	
-0.395813	
-0.396973	
-0.397156	
-0.397949	
-0.398621	
-0.398499	
-0.398743	
-0.398865	
-0.399475	
-0.39856	
-0.398254	
-0.398438	
-0.399048	
-0.399292	
-0.399231	
-0.398804	
-0.39856	
-0.399475	
-0.399048	
-0.398315	
-0.397461	
-0.398254	
-0.398499	
-0.398254	
-0.39801	
-0.398193	
-0.398132	
-0.399597	
-0.397705	
-0.397156	
-0.395447	
-0.396118	
-0.397034	
-0.39679	
-0.396484	
-0.397278	
-0.396667	
-0.397339	
-0.396423	
-0.396912	
-0.395935	
-0.395569	
-0.39563	
-0.39624	
-0.396362	
-0.396606	
-0.395813	
-0.396118	
-0.396301	
-0.396301	
-0.394897	
-0.394043	
-0.394592	
-0.394897	
-0.394592	
-0.394226	
-0.393677	
-0.393738	
-0.394043	
-0.393066	
-0.392456	
-0.391235	
-0.392212	
-0.392212	
-0.392273	
-0.392517	
-0.392883	
-0.392212	
-0.393005	
-0.391663	
-0.39209	
-0.390625	
-0.391296	
-0.390564	
-0.392151	
-0.392273	
-0.393188	
-0.392456	
-0.393005	
-0.393127	
-0.393127	
-0.392029	
-0.391907	
-0.392761	
-0.393188	
-0.393127	
-0.393799	
-0.393433	
-0.393555	
-0.394897	
-0.393494	
-0.393127	
-0.390442	
-0.393127	
-0.393372	
-0.393494	
-0.393494	
-0.394104	
-0.39386	
-0.39502	
-0.393494	
-0.394287	
-0.393066	
-0.393982	
-0.392883	
-0.393982	
-0.394775	
-0.395203	
-0.394104	
-0.395203	
-0.393372	
-0.395569	
-0.394165	
-0.394653	
-0.394531	
-0.394653	
-0.394531	
-0.394592	
-0.394409	
-0.394592	
-0.395813	
-0.394226	
-0.393311	
-0.391052	
-0.392578	
-0.392578	
-0.392883	
-0.393066	
-0.392761	
-0.392517	
-0.394287	
-0.393005	
-0.392639	
-0.390747	
-0.392578	
-0.393127	
-0.393127	
-0.393494	
-0.394409	
-0.394409	
-0.395447	
-0.394592	
-0.396057	
-0.395203	
-0.395935	
-0.395752	
-0.396912	
-0.397461	
-0.397827	
-0.397644	
-0.397949	
-0.398865	
-0.398682	
-0.397949	
-0.396606	
-0.397339	
-0.39801	
-0.397949	
-0.39856	
-0.398193	
-0.397888	
-0.398926	
-0.397766	
-0.396484	
-0.396057	
-0.396851	
-0.396606	
-0.396545	
-0.396484	
-0.397156	
-0.396484	
-0.397217	
-0.395569	
-0.396057	
-0.394104	
-0.395447	
-0.395081	
-0.395874	
-0.395508	
-0.395752	
-0.395081	
-0.39624	
-0.395752	
-0.39563	
-0.394226	
-0.393433	
-0.393738	
-0.394409	
-0.394104	
-0.393494	
-0.392883	
-0.392822	
-0.393311	
-0.391846	
-0.39093	
-0.389648	
-0.390808	
-0.390808	
-0.390625	
-0.390564	
-0.391113	
-0.389893	
-0.391174	
-0.389038	
-0.389771	
-0.387756	
-0.389221	
-0.389465	
-0.389648	
-0.390015	
-0.390198	
-0.389893	
-0.390686	
-0.389954	
-0.390442	
-0.389343	
-0.390198	
-0.389343	
-0.390076	
-0.390564	
-0.390625	
-0.390259	
-0.391052	
-0.391724	
-0.39093	
-0.390137	
-0.388306	
-0.389893	
-0.391052	
-0.390686	
-0.390564	
-0.391357	
-0.390869	
-0.392151	
-0.390076	
-0.390991	
-0.390625	
-0.391235	
-0.391602	
-0.391785	
-0.391785	
-0.392883	
-0.392273	
-0.39325	
-0.391968	
-0.392151	
-0.391296	
-0.392639	
-0.393005	
-0.393494	
-0.39447	
-0.394775	
-0.394836	
-0.39563	
-0.396423	
-0.395569	
-0.394958	
-0.39325	
-0.394836	
-0.395142	
-0.395081	
-0.395081	
-0.395203	
-0.395264	
-0.395325	
-0.394775	
-0.394226	
-0.394165	
-0.393799	
-0.394165	
-0.394531	
-0.394409	
-0.395142	
-0.394287	
-0.394958	
-0.393433	
-0.393494	
-0.393433	
-0.394104	
-0.39447	
-0.394104	
-0.394592	
-0.395203	
-0.394714	
-0.395813	
-0.396667	
-0.394958	
-0.393738	
-0.394165	
-0.395935	
-0.395264	
-0.395691	
-0.396057	
-0.39624	
-0.396973	
-0.397583	
-0.396912	
-0.395386	
-0.394226	
-0.394165	
-0.395081	
-0.394897	
-0.39502	
-0.395569	
-0.394714	
-0.394958	
-0.393494	
-0.394043	
-0.394531	
-0.394348	
-0.394836	
-0.394653	
-0.394714	
-0.395508	
-0.39502	
-0.395569	
-0.395325	
-0.395142	
-0.394043	
-0.393921	
-0.395386	
-0.395752	
-0.395752	
-0.395996	
-0.395935	
-0.396484	
-0.396301	
-0.395752	
-0.394531	
-0.394592	
-0.392944	
-0.393799	
-0.393616	
-0.392944	
-0.393494	
-0.392639	
-0.393188	
-0.391479	
-0.390991	
-0.390076	
-0.391541	
-0.391357	
-0.390991	
-0.390869	
-0.390991	
-0.390747	
-0.391785	
-0.391235	
-0.390686	
-0.389526	
-0.389832	
-0.390686	
-0.391602	
-0.391235	
-0.391357	
-0.391846	
-0.392029	
-0.391846	
-0.390991	
-0.391113	
-0.391113	
-0.390625	
-0.392334	
-0.392212	
-0.392334	
-0.393005	
-0.392761	
-0.393677	
-0.393066	
-0.392517	
-0.391663	
-0.392761	
-0.393066	
-0.392883	
-0.393127	
-0.393188	
-0.393066	
-0.394165	
-0.393188	
-0.393188	
-0.392761	
-0.393066	
-0.393738	
-0.394165	
-0.394409	
-0.394897	
-0.396057	
-0.396729	
-0.396423	
-0.395447	
-0.395386	
-0.396057	
-0.39679	
-0.39679	
-0.397095	
-0.397522	
-0.397827	
-0.398132	
-0.399414	
-0.398193	
-0.39679	
-0.395386	
-0.396667	
-0.397644	
-0.397827	
-0.397705	
-0.398193	
-0.39856	
-0.398315	
-0.397827	
-0.396179	
-0.396667	
-0.396606	
-0.396545	
-0.396484	
-0.396729	
-0.396729	
-0.397461	
-0.397461	
-0.396606	
-0.396057	
-0.394958	
-0.39624	
-0.396057	
-0.396545	
-0.396606	
-0.395874	
-0.396423	
-0.396851	
-0.397888	
-0.396301	
-0.39502	
-0.393799	
-0.394043	
-0.395264	
-0.395142	
-0.395264	
-0.395142	
-0.396301	
-0.396545	
-0.395508	
-0.394165	
-0.393433	
-0.394714	
-0.395142	
-0.394836	
-0.394836	
-0.394836	
-0.395813	
-0.395691	
-0.394958	
-0.393982	
-0.394226	
-0.395142	
-0.395264	
-0.395935	
-0.396118	
-0.396179	
-0.396484	
-0.397522	
-0.397217	
-0.39679	
-0.395691	
-0.395142	
-0.395142	
-0.39624	
-0.396362	
-0.39624	
-0.39624	
-0.396973	
-0.396973	
-0.395874	
-0.394714	
-0.393555	
-0.393311	
-0.393555	
-0.393188	
-0.393005	
-0.3927	
-0.393494	
-0.393433	
-0.391785	
-0.390808	
-0.389648	
-0.39093	
-0.391052	
-0.390869	
-0.390686	
-0.390808	
-0.391052	
-0.392029	
-0.391663	
-0.390808	
-0.390198	
-0.390076	
-0.391541	
-0.391357	
-0.391907	
-0.392029	
-0.392578	
-0.393005	
-0.393005	
-0.393311	
-0.391968	
-0.391479	
-0.391724	
-0.392578	
-0.393005	
-0.392883	
-0.393127	
-0.394165	
-0.395081	
-0.393799	
-0.3927	
-0.392334	
-0.393433	
-0.39386	
-0.394226	
-0.394348	
-0.394165	
-0.394348	
-0.396545	
-0.396423	
-0.39563	
-0.395081	
-0.39679	
-0.397278	
-0.397949	
-0.398193	
-0.398315	
-0.398865	
-0.399536	
-0.399658	
-0.399475	
-0.398254	
-0.397949	
-0.39801	
-0.399475	
-0.399658	
-0.399414	
-0.399597	
-0.400391	
-0.400024	
-0.399719	
-0.398315	
-0.39801	
-0.398132	
-0.398499	
-0.398376	
-0.398682	
-0.398865	
-0.398865	
-0.399841	
-0.398499	
-0.398071	
-0.39624	
-0.398438	
-0.398132	
-0.397888	
-0.398438	
-0.398438	
-0.398132	
-0.399963	
-0.398804	
-0.398376	
-0.39502	
-0.396851	
-0.396851	
-0.397156	
-0.396973	
-0.397095	
-0.396912	
-0.397766	
-0.396973	
-0.396606	
-0.395691	
-0.39563	
-0.395752	
-0.395813	
-0.396179	
-0.396057	
-0.396057	
-0.396179	
-0.396484	
-0.39502	
-0.394043	
-0.392822	
-0.393188	
-0.392944	
-0.393188	
-0.392822	
-0.393494	
-0.39386	
-0.395142	
-0.394165	
-0.394165	
-0.392151	
-0.393433	
-0.393005	
-0.393799	
-0.393799	
-0.393616	
-0.393982	
-0.395386	
-0.394653	
-0.394592	
-0.393188	
-0.394104	
-0.393738	
-0.394104	
-0.393738	
-0.39447	
-0.393799	
-0.394226	
-0.39563	
-0.394287	
-0.393494	
-0.391357	
-0.39209	
-0.393127	
-0.392822	
-0.392944	
-0.392883	
-0.392761	
-0.393433	
-0.3927	
-0.392944	
-0.391235	
-0.391357	
-0.391357	
-0.392212	
-0.392151	
-0.392822	
-0.393005	
-0.394226	
-0.39325	
-0.393677	
-0.392944	
-0.393372	
-0.393616	
-0.394043	
-0.393799	
-0.393982	
-0.394287	
-0.395142	
-0.394775	
-0.394897	
-0.392395	
-0.392212	
-0.392883	
-0.393372	
-0.393433	
-0.393311	
-0.39325	
-0.393799	
-0.393738	
-0.393127	
-0.392822	
-0.392395	
-0.392883	
-0.392334	
-0.393127	
-0.39386	
-0.394348	
-0.39502	
-0.395691	
-0.395386	
-0.395691	
-0.395081	
-0.395935	
-0.396851	
-0.397034	
-0.397217	
-0.397217	
-0.3974	
-0.397583	
-0.398621	
-0.39856	
-0.397888	
-0.396362	
-0.396362	
-0.397644	
-0.397278	
-0.397217	
-0.397339	
-0.398376	
-0.397827	
-0.397461	
-0.396729	
-0.396912	
-0.396545	
-0.396484	
-0.397583	
-0.397522	
-0.397034	
-0.3974	
-0.39801	
-0.396606	
-0.396606	
-0.394836	
-0.396179	
-0.39624	
-0.396545	
-0.396301	
-0.396301	
-0.396362	
-0.396301	
-0.396729	
-0.396423	
-0.396057	
-0.394287	
-0.39447	
-0.39447	
-0.395203	
-0.395325	
-0.395203	
-0.395386	
-0.395569	
-0.39502	
-0.394043	
-0.393372	
-0.393372	
-0.392578	
-0.393005	
-0.39325	
-0.3927	
-0.392761	
-0.393066	
-0.392151	
-0.391785	
-0.390808	
-0.391907	
-0.391907	
-0.391663	
-0.391479	
-0.391235	
-0.391541	
-0.391418	
-0.391602	
-0.391968	
-0.390991	
-0.390808	
-0.390381	
-0.391479	
-0.391785	
-0.391968	
-0.392029	
-0.393188	
-0.393921	
-0.393127	
-0.392212	
-0.391479	
-0.392639	
-0.391907	
-0.392883	
-0.392334	
-0.393127	
-0.393921	
-0.394226	
-0.393005	
-0.392273	
-0.392822	
-0.393066	
-0.392944	
-0.393433	
-0.393616	
-0.393555	
-0.394104	
-0.394531	
-0.393616	
-0.394653	
-0.393738	
-0.394165	
-0.393433	
-0.394226	
-0.394775	
-0.394836	
-0.394958	
-0.395508	
-0.396362	
-0.395264	
-0.395935	
-0.393494	
-0.394714	
-0.393982	
-0.394531	
-0.394775	
-0.394226	
-0.394653	
-0.395264	
-0.393738	
-0.392578	
-0.392029	
-0.393188	
-0.392822	
-0.392883	
-0.392822	
-0.392883	
-0.393799	
-0.393311	
-0.393372	
-0.393921	
-0.393555	
-0.393616	
-0.392761	
-0.394104	
-0.39447	
-0.395264	
-0.396179	
-0.396301	
-0.397827	
-0.397217	
-0.398071	
-0.395569	
-0.397156	
-0.396729	
-0.398254	
-0.39801	
-0.398743	
-0.398987	
-0.399597	
-0.398682	
-0.399292	
-0.398315	
-0.398865	
-0.398438	
-0.398315	
-0.398376	
-0.398438	
-0.399048	
-0.39801	
-0.397827	
-0.397156	
-0.396667	
-0.396851	
-0.396362	
-0.396606	
-0.396545	
-0.396423	
-0.39679	
-0.396667	
-0.398071	
-0.396057	
-0.396729	
-0.39386	
-0.396057	
-0.394836	
-0.395691	
-0.396118	
-0.395691	
-0.395691	
-0.396484	
-0.395508	
-0.395996	
-0.394409	
-0.394409	
-0.392273	
-0.393555	
-0.393188	
-0.392822	
-0.393188	
-0.391968	
-0.392273	
-0.391907	
-0.39093	
-0.390808	
-0.390991	
-0.391357	
-0.391235	
-0.390564	
-0.390686	
-0.390747	
-0.391968	
-0.390503	
-0.390259	
-0.388611	
-0.390259	
-0.390015	
-0.390625	
-0.390808	
-0.39093	
-0.391235	
-0.392151	
-0.391418	
-0.392273	
-0.390747	
-0.39093	
-0.388977	
-0.391479	
-0.391418	
-0.391541	
-0.39209	
-0.391907	
-0.391724	
-0.391785	
-0.391052	
-0.391174	
-0.390808	
-0.391663	
-0.391724	
-0.392029	
-0.392029	
-0.392273	
-0.393738	
-0.392395	
-0.391907	
-0.39093	
-0.392334	
-0.392761	
-0.392944	
-0.393066	
-0.393372	
-0.393494	
-0.394836	
-0.393677	
-0.394592	
-0.394043	
-0.394531	
-0.394775	
-0.395264	
-0.395813	
-0.39624	
-0.397278	
-0.396667	
-0.396179	
-0.396729	
-0.395447	
-0.395508	
-0.394043	
-0.395508	
-0.395935	
-0.395508	
-0.395386	
-0.395569	
-0.396912	
-0.395691	
-0.394409	
-0.392456	
-0.394714	
-0.394531	
-0.395081	
-0.394714	
-0.394775	
-0.395508	
-0.395508	
-0.394897	
-0.39502	
-0.394775	
-0.394897	
-0.394775	
-0.395325	
-0.395508	
-0.395813	
-0.39624	
-0.396057	
-0.396301	
-0.396729	
-0.395691	
-0.395508	
-0.395081	
-0.396484	
-0.396973	
-0.396851	
-0.396851	
-0.396484	
-0.397522	
-0.396851	
-0.395691	
-0.392822	
-0.394348	
-0.395203	
-0.394897	
-0.394836	
-0.394714	
-0.395264	
-0.395996	
-0.394714	
-0.394531	
-0.394531	
-0.394897	
-0.394348	
-0.394653	
-0.395325	
-0.394958	
-0.395813	
-0.39563	
-0.39624	
-0.395813	
-0.395508	
-0.394714	
-0.395264	
-0.395874	
-0.395874	
-0.395752	
-0.395569	
-0.395203	
-0.396057	
-0.395142	
-0.393555	
-0.392029	
-0.391602	
-0.392578	
-0.392578	
-0.392151	
-0.391907	
-0.392029	
-0.391846	
-0.391846	
-0.390198	
-0.390259	
-0.389893	
-0.39032	
-0.39032	
-0.390747	
-0.390747	
-0.391418	
-0.390869	
-0.392517	
-0.391663	
-0.390686	
-0.388611	
-0.389954	
-0.391418	
-0.390808	
-0.391174	
-0.391541	
-0.391663	
-0.392822	
-0.392273	
-0.392029	
-0.391235	
-0.391479	
-0.392334	
-0.392395	
-0.392761	
-0.3927	
-0.393311	
-0.392395	
-0.39386	
-0.391541	
-0.392578	
-0.391479	
-0.392639	
-0.392822	
-0.393372	
-0.393555	
-0.393921	
-0.393433	
-0.39447	
-0.394043	
-0.393982	
-0.393616	
-0.393738	
-0.394653	
-0.394836	
-0.395935	
-0.396179	
-0.396423	
-0.397705	
-0.396912	
-0.396606	
-0.395691	
-0.39679	
-0.397461	
-0.397278	
-0.397034	
-0.3974	
-0.398071	
-0.397949	
-0.39917	
	
