E:\DOCUMENTS AND SETTINGS\JPOTAS\MEUS DOCUMENTOS\UFRJ\RSCI-BM 12 WK SERIES\070720-RSCI-BM-04\RSCI-BM-04-REMG\070720-RSCI-BM-REMG-0011.ACQ
0.025000 msec/sample
1 channel
Analog input
Volts
CH1	
2000	
-0.391907	
-0.390869	
-0.392029	
-0.392029	
-0.39325	
-0.39209	
-0.392395	
-0.392151	
-0.392883	
-0.392944	
-0.391907	
-0.393494	
-0.393127	
-0.393677	
-0.393127	
-0.394653	
-0.393433	
-0.393738	
-0.39209	
-0.394104	
-0.392883	
-0.393494	
-0.393799	
-0.39325	
-0.393188	
-0.3927	
-0.393372	
-0.392944	
-0.393372	
-0.392761	
-0.392761	
-0.391663	
-0.392029	
-0.391235	
-0.391541	
-0.391174	
-0.392822	
-0.39032	
-0.391113	
-0.39093	
-0.391479	
-0.390991	
-0.389282	
-0.391296	
-0.390686	
-0.390381	
-0.390564	
-0.390686	
-0.390625	
-0.39032	
-0.389832	
-0.390991	
-0.390137	
-0.39093	
-0.390259	
-0.390503	
-0.391113	
-0.390808	
-0.390869	
-0.391174	
-0.391296	
-0.391357	
-0.391479	
-0.391724	
-0.392395	
-0.392578	
-0.393066	
-0.393188	
-0.394592	
-0.394409	
-0.394714	
-0.394958	
-0.395752	
-0.395447	
-0.394043	
-0.395813	
-0.395386	
-0.395264	
-0.395691	
-0.395813	
-0.394958	
-0.395142	
-0.394714	
-0.396179	
-0.395264	
-0.395569	
-0.395142	
-0.395569	
-0.395447	
-0.395386	
-0.394897	
-0.395325	
-0.39502	
-0.394836	
-0.39502	
-0.394165	
-0.394287	
-0.394348	
-0.394226	
-0.393494	
-0.393799	
-0.392944	
-0.391968	
-0.391541	
-0.392029	
-0.390564	
-0.388977	
-0.389404	
-0.389465	
-0.388733	
-0.388489	
-0.388184	
-0.387756	
-0.387512	
-0.385925	
-0.386841	
-0.386108	
-0.386353	
-0.385681	
-0.386108	
-0.385803	
-0.386047	
-0.385681	
-0.386108	
-0.385498	
-0.386536	
-0.386292	
-0.386169	
-0.386841	
-0.386353	
-0.386902	
-0.387024	
-0.387939	
-0.387146	
-0.387085	
-0.387878	
-0.389038	
-0.388	
-0.387329	
-0.387939	
-0.388367	
-0.388428	
-0.389404	
-0.38916	
-0.38916	
-0.388916	
-0.388855	
-0.389648	
-0.389343	
-0.389648	
-0.390259	
-0.390503	
-0.391235	
-0.391296	
-0.391541	
-0.392029	
-0.392151	
-0.393799	
-0.393127	
-0.392761	
-0.393066	
-0.393066	
-0.39325	
-0.39386	
-0.394287	
-0.393372	
-0.393311	
-0.392517	
-0.39325	
-0.392334	
-0.391602	
-0.392456	
-0.391907	
-0.391846	
-0.392029	
-0.391418	
-0.391479	
-0.391052	
-0.391296	
-0.391052	
-0.391052	
-0.391663	
-0.391602	
-0.390564	
-0.390869	
-0.391479	
-0.390503	
-0.39032	
-0.390442	
-0.390991	
-0.39032	
-0.389587	
-0.389832	
-0.389954	
-0.389832	
-0.389832	
-0.389648	
-0.388306	
-0.387695	
-0.387695	
-0.388184	
-0.387695	
-0.387756	
-0.388916	
-0.389221	
-0.388672	
-0.389587	
-0.38916	
-0.388733	
-0.388855	
-0.389587	
-0.389404	
-0.389343	
-0.39032	
-0.390442	
-0.390259	
-0.390869	
-0.391724	
-0.390808	
-0.391479	
-0.390747	
-0.392822	
-0.392639	
-0.392395	
-0.392273	
-0.392761	
-0.392883	
-0.392456	
-0.393311	
-0.393127	
-0.392578	
-0.393738	
-0.393738	
-0.392822	
-0.3927	
-0.392944	
-0.393066	
-0.39325	
-0.39447	
-0.392883	
-0.392639	
-0.392273	
-0.393188	
-0.392273	
-0.392761	
-0.392639	
-0.392029	
-0.391663	
-0.391296	
-0.391235	
-0.389893	
-0.389893	
-0.388855	
-0.389404	
-0.388123	
-0.388184	
-0.386963	
-0.38739	
-0.387268	
-0.388306	
-0.387512	
-0.387512	
-0.38739	
-0.388611	
-0.388	
-0.388062	
-0.387634	
-0.387817	
-0.388184	
-0.387878	
-0.389954	
-0.388184	
-0.388367	
-0.38739	
-0.389404	
-0.388428	
-0.389526	
-0.388794	
-0.389465	
-0.389709	
-0.39093	
-0.391052	
-0.391418	
-0.391907	
-0.393005	
-0.39502	
-0.395569	
-0.395874	
-0.397156	
-0.399475	
-0.400452	
-0.403931	
-0.404785	
-0.40741	
-0.408752	
-0.413391	
-0.415405	
-0.41864	
-0.420593	
-0.423706	
-0.425842	
-0.430786	
-0.43219	
-0.435303	
-0.437622	
-0.440918	
-0.443237	
-0.446411	
-0.448547	
-0.450134	
-0.452332	
-0.455933	
-0.457581	
-0.459045	
-0.461487	
-0.463806	
-0.466187	
-0.468262	
-0.470459	
-0.472778	
-0.476868	
-0.480103	
-0.484253	
-0.485718	
-0.488708	
-0.491089	
-0.495972	
-0.499084	
-0.502686	
-0.505371	
-0.508728	
-0.511353	
-0.515564	
-0.518311	
-0.521301	
-0.523132	
-0.525818	
-0.52771	
-0.529541	
-0.530273	
-0.531311	
-0.532288	
-0.533325	
-0.53479	
-0.534363	
-0.535034	
-0.535034	
-0.536316	
-0.535706	
-0.534668	
-0.534119	
-0.533569	
-0.533081	
-0.532959	
-0.530396	
-0.529358	
-0.527344	
-0.526978	
-0.525391	
-0.524048	
-0.521606	
-0.519958	
-0.517151	
-0.51593	
-0.514221	
-0.511536	
-0.508179	
-0.506836	
-0.504211	
-0.500488	
-0.497437	
-0.494324	
-0.491394	
-0.488098	
-0.485291	
-0.480652	
-0.477112	
-0.471985	
-0.46991	
-0.466736	
-0.463379	
-0.459229	
-0.455261	
-0.452026	
-0.449463	
-0.445435	
-0.441406	
-0.437561	
-0.433594	
-0.429138	
-0.424255	
-0.419556	
-0.41394	
-0.408813	
-0.403076	
-0.400391	
-0.394104	
-0.389099	
-0.384399	
-0.38092	
-0.376221	
-0.371155	
-0.365845	
-0.362	
-0.35907	
-0.356689	
-0.354675	
-0.351196	
-0.34906	
-0.34613	
-0.345947	
-0.34436	
-0.344299	
-0.343079	
-0.343262	
-0.342468	
-0.344238	
-0.343506	
-0.343628	
-0.343994	
-0.345398	
-0.346252	
-0.346802	
-0.346863	
-0.347534	
-0.348938	
-0.350342	
-0.351379	
-0.351746	
-0.353027	
-0.35376	
-0.355042	
-0.354675	
-0.355103	
-0.356384	
-0.357605	
-0.358521	
-0.361023	
-0.360291	
-0.361328	
-0.36084	
-0.363159	
-0.363831	
-0.365051	
-0.365295	
-0.366333	
-0.366699	
-0.36969	
-0.369019	
-0.369629	
-0.369019	
-0.370789	
-0.370605	
-0.371582	
-0.371399	
-0.371094	
-0.371643	
-0.373169	
-0.372437	
-0.372986	
-0.373108	
-0.374146	
-0.373596	
-0.373535	
-0.373413	
-0.373596	
-0.373474	
-0.374695	
-0.374573	
-0.373901	
-0.373962	
-0.374023	
-0.374939	
-0.374207	
-0.373291	
-0.372986	
-0.374207	
-0.374268	
-0.375183	
-0.374084	
-0.374084	
-0.374023	
-0.374756	
-0.374634	
-0.374329	
-0.373291	
-0.373291	
-0.372131	
-0.373901	
-0.372192	
-0.371704	
-0.371155	
-0.371643	
-0.371643	
-0.372559	
-0.371826	
-0.371765	
-0.371765	
-0.372864	
-0.371826	
-0.371765	
-0.371704	
-0.372742	
-0.372742	
-0.37262	
-0.372253	
-0.372009	
-0.37262	
-0.373047	
-0.373962	
-0.37323	
-0.372925	
-0.372742	
-0.374023	
-0.37384	
-0.373962	
-0.374146	
-0.375183	
-0.375244	
-0.377258	
-0.376465	
-0.376892	
-0.377502	
-0.378967	
-0.378784	
-0.3797	
-0.379944	
-0.38092	
-0.381165	
-0.383118	
-0.383301	
-0.382996	
-0.382935	
-0.383362	
-0.385437	
-0.385193	
-0.385864	
-0.385864	
-0.386719	
-0.386108	
-0.38739	
-0.387207	
-0.387512	
-0.388245	
-0.388245	
-0.387512	
-0.387512	
-0.385986	
-0.386841	
-0.386414	
-0.387207	
-0.385803	
-0.385193	
-0.383911	
-0.38385	
-0.38324	
-0.382935	
-0.38324	
-0.382568	
-0.382141	
-0.381836	
-0.382751	
-0.381531	
-0.381653	
-0.381531	
-0.381226	
-0.380737	
-0.379639	
-0.380798	
-0.381104	
-0.380859	
-0.381836	
-0.381714	
-0.381409	
-0.380676	
-0.381287	
-0.381714	
-0.381287	
-0.382263	
-0.382263	
-0.383118	
-0.383301	
-0.384277	
-0.384583	
-0.384583	
-0.385376	
-0.385315	
-0.385864	
-0.385803	
-0.386658	
-0.387024	
-0.386963	
-0.387573	
-0.388611	
-0.387817	
-0.387573	
-0.387573	
-0.387878	
-0.387756	
-0.387817	
-0.387878	
-0.388	
-0.388306	
-0.388306	
-0.387878	
-0.388	
-0.388367	
-0.387573	
-0.387634	
-0.387329	
-0.388672	
-0.387512	
-0.387268	
-0.387695	
-0.38739	
-0.387268	
-0.38739	
-0.386902	
-0.385864	
-0.385803	
-0.385925	
-0.385742	
-0.385315	
-0.385071	
-0.384766	
-0.385193	
-0.384338	
-0.383423	
-0.381897	
-0.382141	
-0.380676	
-0.381592	
-0.380859	
-0.380737	
-0.380249	
-0.380371	
-0.379944	
-0.379639	
-0.380005	
-0.379517	
-0.379761	
-0.3797	
-0.380859	
-0.38031	
-0.380493	
-0.379211	
-0.38092	
-0.381226	
-0.382202	
-0.381592	
-0.381958	
-0.381409	
-0.38269	
-0.382568	
-0.383118	
-0.383179	
-0.382874	
-0.38324	
-0.382874	
-0.384216	
-0.382996	
-0.38324	
-0.383606	
-0.384949	
-0.384155	
-0.384766	
-0.384033	
-0.386047	
-0.385315	
-0.385681	
-0.385742	
-0.385803	
-0.385132	
-0.385803	
-0.385925	
-0.38623	
-0.387329	
-0.38678	
-0.386475	
-0.386719	
-0.388062	
-0.387268	
-0.387268	
-0.386902	
-0.387878	
-0.387512	
-0.387817	
-0.386597	
-0.388184	
-0.387573	
-0.388123	
-0.386719	
-0.38739	
-0.386414	
-0.387268	
-0.387207	
-0.38739	
-0.387207	
-0.386414	
-0.386108	
-0.384705	
-0.386475	
-0.386047	
-0.386047	
-0.385681	
-0.386536	
-0.385437	
-0.385864	
-0.384766	
-0.385315	
-0.384949	
-0.385986	
-0.384583	
-0.385437	
-0.385193	
-0.385559	
-0.385315	
-0.385742	
-0.385559	
-0.386108	
-0.385498	
-0.385559	
-0.386719	
-0.386047	
-0.386292	
-0.385132	
-0.387695	
-0.386658	
-0.387634	
-0.387146	
-0.387756	
-0.387573	
-0.388855	
-0.388733	
-0.389587	
-0.389587	
-0.390808	
-0.391296	
-0.391235	
-0.391113	
-0.390747	
-0.391174	
-0.391235	
-0.3927	
-0.391296	
-0.391541	
-0.389587	
-0.391785	
-0.392029	
-0.391907	
-0.39093	
-0.391907	
-0.391479	
-0.391846	
-0.390564	
-0.391357	
-0.391174	
-0.391418	
-0.39209	
-0.391663	
-0.391357	
-0.390503	
-0.391113	
-0.39093	
-0.392212	
-0.390747	
-0.390259	
-0.388916	
-0.389771	
-0.38916	
-0.388794	
-0.388184	
-0.387329	
-0.386292	
-0.386841	
-0.385925	
-0.385437	
-0.384521	
-0.385132	
-0.385437	
-0.383667	
-0.383423	
-0.383179	
-0.382935	
-0.383179	
-0.383911	
-0.38269	
-0.382324	
-0.380981	
-0.382446	
-0.382507	
-0.383423	
-0.382141	
-0.382385	
-0.381775	
-0.383057	
-0.382751	
-0.382507	
-0.382202	
-0.38269	
-0.383789	
-0.383545	
-0.383118	
-0.384216	
-0.38324	
-0.383545	
-0.384338	
-0.383728	
-0.38385	
-0.381714	
-0.38446	
-0.384216	
-0.38501	
-0.384277	
-0.383728	
-0.383545	
-0.384583	
-0.384521	
-0.385132	
-0.384644	
-0.386047	
-0.387024	
-0.386658	
-0.386597	
-0.38678	
-0.387207	
-0.387573	
-0.388794	
-0.387146	
-0.387146	
-0.386169	
-0.387573	
-0.387146	
-0.387329	
-0.386597	
-0.387024	
-0.385864	
-0.386475	
-0.385193	
-0.385986	
-0.385193	
-0.384277	
-0.385315	
-0.384888	
-0.384827	
-0.38501	
-0.384277	
-0.384827	
-0.385742	
-0.384399	
-0.384155	
-0.383606	
-0.383972	
-0.384888	
-0.384766	
-0.384216	
-0.383362	
-0.383179	
-0.384338	
-0.383484	
-0.383606	
-0.383179	
-0.381104	
-0.383057	
-0.38324	
-0.38324	
-0.382996	
-0.382751	
-0.382507	
-0.383179	
-0.382996	
-0.382385	
-0.382568	
-0.382935	
-0.383667	
-0.383545	
-0.382996	
-0.383911	
-0.383484	
-0.383728	
-0.384949	
-0.38446	
-0.384766	
-0.383362	
-0.385498	
-0.385681	
-0.385559	
-0.386719	
-0.386414	
-0.387146	
-0.386841	
-0.387268	
-0.387329	
-0.38678	
-0.386902	
-0.388733	
-0.388184	
-0.387695	
-0.387634	
-0.38739	
-0.387695	
-0.388672	
-0.388062	
-0.387817	
-0.386963	
-0.387817	
-0.387268	
-0.387695	
-0.387695	
-0.387695	
-0.386353	
-0.387268	
-0.386047	
-0.386108	
-0.385498	
-0.384399	
-0.385559	
-0.384949	
-0.383606	
-0.383057	
-0.382263	
-0.382263	
-0.382263	
-0.38147	
-0.381287	
-0.380981	
-0.381226	
-0.381714	
-0.381409	
-0.381042	
-0.381531	
-0.380371	
-0.381409	
-0.381714	
-0.381348	
-0.381226	
-0.379761	
-0.382385	
-0.381714	
-0.381592	
-0.381714	
-0.381226	
-0.38208	
-0.382019	
-0.382446	
-0.381897	
-0.381775	
-0.380554	
-0.382446	
-0.382568	
-0.381958	
-0.382019	
-0.381226	
-0.382324	
-0.383362	
-0.382568	
-0.382813	
-0.382263	
-0.383545	
-0.384277	
-0.383911	
-0.385132	
-0.385071	
-0.385742	
-0.38623	
-0.38739	
-0.38739	
-0.386719	
-0.386658	
-0.388245	
-0.38855	
-0.387817	
-0.388245	
-0.386902	
-0.388062	
-0.388672	
-0.387939	
-0.387939	
-0.387268	
-0.387329	
-0.388489	
-0.387085	
-0.385864	
-0.384399	
-0.385742	
-0.385803	
-0.386108	
-0.384827	
-0.384949	
-0.384216	
-0.384949	
-0.385437	
-0.384338	
-0.384644	
-0.383789	
-0.384338	
-0.384888	
-0.384094	
-0.383545	
-0.382996	
-0.383179	
-0.38385	
-0.383423	
-0.383057	
-0.383362	
-0.381897	
-0.38269	
-0.381409	
-0.381958	
-0.381714	
-0.381348	
-0.381531	
-0.382751	
-0.381836	
-0.381958	
-0.380371	
-0.381836	
-0.382446	
-0.382324	
-0.382019	
-0.38092	
-0.381714	
-0.38208	
-0.382751	
-0.381775	
-0.382324	
-0.380798	
-0.382629	
-0.382019	
-0.382446	
-0.382568	
-0.382935	
-0.383179	
-0.383911	
-0.382996	
-0.383545	
-0.383362	
-0.383972	
-0.384888	
-0.384583	
-0.383667	
-0.383301	
-0.383057	
-0.384644	
-0.38562	
-0.384644	
-0.385864	
-0.383606	
-0.384888	
-0.383911	
-0.38446	
-0.38446	
-0.384155	
-0.384033	
-0.38446	
-0.384399	
-0.384216	
-0.383972	
-0.383667	
-0.384338	
-0.383545	
-0.383301	
-0.382629	
-0.381897	
-0.382629	
-0.383972	
-0.381958	
-0.381165	
-0.379333	
-0.380737	
-0.380005	
-0.379883	
-0.379639	
-0.379333	
-0.379517	
-0.379639	
-0.38031	
-0.37915	
-0.379883	
-0.378662	
-0.379639	
-0.379272	
-0.379089	
-0.379028	
-0.37854	
-0.379211	
-0.380737	
-0.379028	
-0.379028	
-0.378357	
-0.379456	
-0.380066	
-0.379395	
-0.379456	
-0.37854	
-0.379272	
-0.380188	
-0.380615	
-0.380554	
-0.381104	
-0.380127	
-0.382141	
-0.382751	
-0.382813	
-0.383057	
-0.384216	
-0.384399	
-0.385742	
-0.385315	
-0.385681	
-0.385681	
-0.386353	
-0.387329	
-0.386719	
-0.38739	
-0.387268	
-0.387024	
-0.388611	
-0.388794	
-0.388367	
-0.388367	
-0.387817	
-0.388611	
-0.388855	
-0.388245	
-0.388428	
-0.387695	
-0.388611	
-0.389709	
-0.388245	
-0.388	
-0.387756	
-0.387695	
-0.387634	
-0.387451	
-0.386963	
-0.38623	
-0.385315	
-0.386169	
-0.387268	
-0.386353	
-0.385376	
-0.383423	
-0.385925	
-0.386841	
-0.385254	
-0.384766	
-0.384521	
-0.384949	
-0.385193	
-0.384827	
-0.38446	
-0.384094	
-0.383423	
-0.383423	
-0.382996	
-0.382263	
-0.382141	
-0.380554	
-0.381714	
-0.383545	
-0.381958	
-0.381714	
-0.380859	
-0.381958	
-0.382507	
-0.380859	
-0.38208	
-0.382263	
-0.382568	
-0.383118	
-0.382629	
-0.38324	
-0.382874	
-0.38269	
-0.383118	
-0.384705	
-0.38385	
-0.382874	
-0.381287	
-0.383728	
-0.384644	
-0.383972	
-0.383423	
-0.383118	
-0.383972	
-0.38446	
-0.383484	
-0.38385	
-0.384033	
-0.384399	
-0.384705	
-0.385193	
-0.384827	
-0.385376	
-0.383972	
-0.385437	
-0.386963	
-0.385437	
-0.385254	
-0.384399	
-0.385742	
-0.38678	
-0.385681	
-0.386169	
-0.385681	
-0.386414	
-0.385986	
-0.386169	
-0.386353	
-0.385315	
-0.385071	
-0.385864	
-0.386353	
-0.385376	
-0.385742	
-0.384216	
-0.384338	
-0.384399	
-0.384216	
-0.383667	
-0.382202	
-0.382202	
-0.382568	
-0.382385	
-0.381653	
-0.382202	
-0.381348	
-0.381958	
-0.383667	
-0.381592	
-0.381287	
-0.380554	
-0.381897	
-0.382813	
-0.381531	
-0.382446	
-0.380859	
-0.382141	
-0.382202	
-0.38208	
-0.38269	
-0.382019	
-0.38269	
-0.382996	
-0.384033	
-0.384155	
-0.383728	
-0.383972	
-0.385498	
-0.386597	
-0.385986	
-0.385925	
-0.385681	
-0.387085	
-0.388123	
-0.388062	
-0.388977	
-0.38739	
-0.388062	
-0.388367	
-0.388611	
-0.387817	
-0.387756	
-0.387817	
-0.387939	
-0.388611	
-0.388	
-0.388123	
-0.387573	
-0.387573	
-0.388306	
-0.387634	
-0.38739	
-0.386475	
-0.386963	
-0.388123	
-0.387512	
-0.387085	
-0.386536	
-0.386292	
-0.387207	
-0.387085	
-0.387085	
-0.386292	
-0.385498	
-0.386597	
-0.38678	
-0.386047	
-0.386597	
-0.385376	
-0.385742	
-0.385254	
-0.384827	
-0.384338	
-0.383423	
-0.383301	
-0.383179	
-0.382813	
-0.381958	
-0.38092	
-0.380798	
-0.381409	
-0.38147	
-0.381104	
-0.380554	
-0.379517	
-0.381104	
-0.382446	
-0.381409	
-0.381897	
-0.379761	
-0.380676	
-0.381165	
-0.382019	
-0.382629	
-0.381958	
-0.382629	
-0.383911	
-0.383484	
-0.383606	
-0.382751	
-0.382874	
-0.383789	
-0.384216	
-0.383301	
-0.384033	
-0.382996	
-0.384033	
-0.384949	
-0.385254	
-0.38562	
-0.384766	
-0.383972	
-0.385315	
-0.38562	
-0.385559	
-0.385071	
-0.385254	
-0.385803	
-0.385986	
-0.386536	
-0.386475	
-0.385437	
-0.386292	
-0.387329	
-0.387085	
-0.386902	
-0.386536	
-0.386963	
-0.387451	
-0.388123	
-0.388062	
-0.386169	
-0.386658	
-0.386597	
-0.387146	
-0.386597	
-0.38623	
-0.385986	
-0.387085	
-0.387634	
-0.386658	
-0.386108	
-0.384888	
-0.385132	
-0.385925	
-0.385315	
-0.385132	
-0.385254	
-0.384949	
-0.384949	
-0.385193	
-0.385315	
-0.384521	
-0.384338	
-0.384338	
-0.385193	
-0.38446	
-0.383179	
-0.383789	
-0.384094	
-0.385071	
-0.385681	
-0.384644	
-0.383789	
-0.383667	
-0.38501	
-0.384949	
-0.384766	
-0.385132	
-0.384888	
-0.385864	
-0.385986	
-0.385986	
-0.385559	
-0.385925	
-0.387024	
-0.387207	
-0.387085	
-0.387512	
-0.388184	
-0.38916	
-0.389893	
-0.391052	
-0.389404	
-0.388489	
-0.389771	
-0.390381	
-0.390686	
-0.389465	
-0.389771	
-0.388977	
-0.389771	
-0.390259	
-0.391602	
-0.390198	
-0.390381	
-0.389038	
-0.39093	
-0.390198	
-0.389404	
-0.390015	
-0.389832	
-0.390991	
-0.39032	
-0.389771	
-0.388855	
-0.389038	
-0.389465	
-0.390076	
-0.389099	
-0.388611	
-0.38855	
-0.388367	
-0.388306	
-0.38855	
-0.386169	
-0.385742	
-0.384888	
-0.385498	
-0.384766	
-0.383728	
-0.383545	
-0.382996	
-0.384033	
-0.382996	
-0.382263	
-0.380859	
-0.38208	
-0.381531	
-0.382019	
-0.381165	
-0.381531	
-0.381592	
-0.381775	
-0.381653	
-0.383301	
-0.381165	
-0.382019	
-0.381714	
-0.381958	
-0.382446	
-0.38147	
-0.382324	
-0.382202	
-0.383423	
-0.383545	
-0.382996	
-0.38269	
-0.383789	
-0.383789	
-0.384766	
-0.38385	
-0.384338	
-0.38385	
-0.384766	
-0.385193	
-0.386658	
-0.385071	
-0.385071	
-0.384949	
-0.38562	
-0.385742	
-0.385132	
-0.386719	
-0.386902	
-0.387756	
-0.388428	
-0.388611	
-0.387451	
-0.38916	
-0.388794	
-0.389587	
-0.388611	
-0.388916	
-0.38916	
-0.390198	
-0.389099	
-0.389954	
-0.38916	
-0.389099	
-0.388672	
-0.388367	
-0.388672	
-0.38739	
-0.387451	
-0.386658	
-0.387817	
-0.388	
-0.388306	
-0.387268	
-0.387634	
-0.386047	
-0.387878	
-0.386841	
-0.387024	
-0.386169	
-0.387024	
-0.387146	
-0.387817	
-0.386902	
-0.386169	
-0.386047	
-0.386902	
-0.386719	
-0.385864	
-0.385742	
-0.384888	
-0.386536	
-0.38562	
-0.386353	
-0.385376	
-0.386353	
-0.384155	
-0.385315	
-0.385071	
-0.385071	
-0.38501	
-0.385803	
-0.385437	
-0.386108	
-0.384705	
-0.385925	
-0.385803	
-0.386169	
-0.387085	
-0.386047	
-0.387146	
-0.386902	
-0.387268	
-0.387939	
-0.388489	
-0.388611	
-0.389343	
-0.388855	
-0.389771	
-0.38916	
-0.389893	
-0.389893	
-0.390259	
-0.389893	
-0.390808	
-0.388672	
-0.389526	
-0.389832	
-0.389954	
-0.390442	
-0.389648	
-0.390259	
-0.389709	
-0.390259	
-0.389893	
-0.390198	
-0.389587	
-0.389771	
-0.38916	
-0.389404	
-0.389221	
-0.38855	
-0.388489	
-0.387573	
-0.387634	
-0.387512	
-0.386475	
-0.386108	
-0.38501	
-0.384094	
-0.385132	
-0.384216	
-0.384399	
-0.384644	
-0.383911	
-0.384277	
-0.384155	
-0.384399	
-0.384827	
-0.384033	
-0.384766	
-0.38501	
-0.384583	
-0.384277	
-0.383789	
-0.38501	
-0.385681	
-0.384888	
-0.385254	
-0.383972	
-0.384216	
-0.385254	
-0.385071	
-0.38446	
-0.385742	
-0.385681	
-0.386169	
-0.385315	
-0.385864	
-0.386536	
-0.385986	
-0.385864	
-0.387207	
-0.386841	
-0.387146	
-0.385803	
-0.387024	
-0.388123	
-0.388672	
-0.388367	
-0.388367	
-0.38855	
-0.390564	
-0.390137	
-0.391296	
-0.392029	
-0.391785	
-0.391846	
-0.391296	
-0.3927	
-0.3927	
-0.391785	
-0.392883	
-0.393372	
-0.392761	
-0.392517	
-0.392151	
-0.3927	
-0.393555	
-0.392883	
-0.391174	
-0.391357	
-0.389526	
-0.390442	
-0.38916	
-0.390259	
-0.390198	
-0.389832	
-0.390076	
-0.389832	
-0.389465	
-0.389404	
-0.38916	
-0.389404	
-0.389771	
-0.389221	
-0.389648	
-0.388367	
-0.388245	
-0.388611	
-0.389587	
-0.388489	
-0.388672	
-0.387024	
-0.388306	
-0.38739	
-0.387817	
-0.387207	
-0.387024	
-0.38678	
-0.387756	
-0.387268	
-0.387085	
-0.385986	
-0.387512	
-0.387451	
-0.386658	
-0.388306	
-0.386108	
-0.387756	
-0.386719	
-0.388184	
-0.387329	
-0.388	
-0.387634	
-0.387878	
-0.388	
-0.388306	
-0.388	
-0.388184	
-0.388489	
-0.390137	
-0.388855	
-0.389282	
-0.389038	
-0.389771	
-0.390137	
-0.388916	
-0.390442	
-0.388977	
-0.389709	
-0.389221	
-0.390869	
-0.390381	
-0.39032	
-0.39032	
-0.390991	
-0.390564	
-0.390808	
-0.390442	
-0.390503	
-0.390015	
-0.391235	
-0.390564	
-0.389954	
-0.389221	
-0.388977	
-0.389954	
-0.38916	
-0.389771	
-0.388062	
-0.389099	
-0.388306	
-0.388733	
-0.388611	
-0.387573	
-0.387207	
-0.387512	
-0.386353	
-0.385864	
-0.386108	
-0.38623	
-0.385803	
-0.385925	
-0.386658	
-0.38562	
-0.38623	
-0.38501	
-0.38678	
-0.385315	
-0.386292	
-0.384766	
-0.385254	
-0.38562	
-0.386047	
-0.385742	
-0.385681	
-0.385925	
-0.385925	
-0.386047	
-0.385498	
-0.386292	
-0.38623	
-0.38678	
-0.386841	
-0.387634	
-0.386597	
-0.387329	
-0.386841	
-0.38916	
-0.388733	
-0.390076	
-0.389221	
-0.390625	
-0.390808	
-0.391357	
-0.391785	
-0.39209	
-0.393921	
-0.393127	
-0.393372	
-0.392944	
-0.394104	
-0.394531	
-0.394409	
-0.395447	
-0.396362	
-0.395569	
-0.394836	
-0.394714	
-0.39624	
-0.395142	
-0.396118	
-0.394531	
-0.39502	
-0.395386	
-0.395264	
-0.395142	
-0.395203	
-0.396179	
-0.394653	
-0.394653	
-0.393921	
-0.394409	
-0.394104	
-0.393555	
-0.394104	
-0.394409	
-0.393616	
-0.392517	
-0.392334	
-0.393494	
-0.392395	
-0.392944	
-0.391296	
-0.392395	
-0.392151	
-0.392395	
-0.392334	
-0.391602	
-0.392212	
-0.391663	
-0.390686	
-0.389771	
-0.389709	
-0.389648	
-0.389404	
-0.389526	
-0.389648	
-0.389404	
-0.388916	
-0.389221	
-0.389832	
-0.389282	
-0.389526	
-0.38855	
-0.389221	
-0.389648	
-0.390137	
-0.389893	
-0.389832	
-0.390503	
-0.390686	
-0.390686	
-0.390808	
-0.390869	
-0.390625	
-0.390686	
-0.390808	
-0.391846	
-0.390991	
-0.390137	
-0.391357	
-0.392639	
-0.391541	
-0.391296	
-0.390503	
-0.391785	
-0.391785	
-0.391968	
-0.391968	
-0.391907	
-0.3927	
-0.392883	
-0.392761	
-0.392334	
-0.39325	
-0.392578	
-0.39325	
-0.392639	
-0.394287	
-0.393311	
-0.393372	
-0.393311	
-0.39447	
-0.39386	
-0.392517	
-0.392517	
-0.393372	
-0.393127	
-0.39386	
-0.393188	
-0.393127	
-0.391968	
-0.39325	
-0.39209	
-0.391907	
-0.392578	
-0.391663	
-0.39093	
-0.390442	
-0.391174	
-0.390137	
-0.389709	
-0.389832	
-0.390869	
-0.389587	
-0.388916	
-0.388672	
-0.389465	
-0.389343	
-0.389954	
-0.389404	
-0.389404	
-0.388794	
-0.389526	
-0.389832	
-0.389709	
-0.389954	
-0.389954	
-0.389954	
-0.390198	
-0.391541	
-0.390747	
-0.391174	
-0.391541	
-0.393188	
-0.392212	
-0.3927	
-0.393433	
-0.393433	
-0.393921	
-0.394592	
-0.394592	
-0.395447	
-0.395325	
-0.395874	
-0.396118	
-0.395386	
-0.396301	
-0.395691	
-0.395752	
-0.395813	
-0.396851	
-0.395752	
-0.395508	
-0.394958	
-0.396362	
-0.395508	
-0.39502	
-0.394897	
-0.395081	
-0.395203	
-0.394653	
-0.394958	
-0.39502	
-0.394653	
-0.395386	
-0.394836	
-0.394531	
-0.394104	
-0.394714	
-0.394226	
-0.393921	
-0.395752	
-0.393921	
-0.393555	
-0.392822	
-0.394531	
-0.393311	
-0.393005	
-0.393005	
-0.392517	
-0.391479	
-0.390564	
-0.390381	
-0.389954	
-0.389282	
-0.389343	
-0.389099	
-0.388611	
-0.388733	
-0.388672	
-0.388306	
-0.388245	
-0.389954	
-0.389038	
-0.388794	
-0.387695	
-0.389465	
-0.388794	
-0.387878	
-0.389221	
-0.389526	
-0.390198	
-0.389771	
-0.390564	
-0.390442	
-0.391052	
-0.39093	
-0.390869	
-0.39032	
-0.391357	
-0.390564	
-0.391541	
-0.391357	
-0.393433	
-0.391968	
-0.39209	
-0.390442	
-0.392273	
-0.39209	
	
