E:\DOCUMENTS AND SETTINGS\JPOTAS\MEUS DOCUMENTOS\UFRJ\RSCI-BM 12 WK SERIES\070803-RSCI-BM-11\RSCI-BM-11-REMG\070803-RSCI-BM-11-REMG-0015.ACQ
0.025000 msec/sample
1 channel
Analog input
Volts
CH1	
2000	
-0.387817	
-0.387878	
-0.388611	
-0.38916	
-0.388916	
-0.390381	
-0.388733	
-0.389404	
-0.39032	
-0.391296	
-0.391357	
-0.392212	
-0.392334	
-0.393311	
-0.394226	
-0.394531	
-0.395203	
-0.395874	
-0.395508	
-0.394897	
-0.396606	
-0.396912	
-0.397522	
-0.397827	
-0.39801	
-0.398376	
-0.398621	
-0.399048	
-0.39978	
-0.398926	
-0.39856	
-0.398682	
-0.399292	
-0.399353	
-0.399231	
-0.398865	
-0.39917	
-0.399048	
-0.399597	
-0.397705	
-0.398376	
-0.397461	
-0.397156	
-0.396912	
-0.396545	
-0.396179	
-0.395752	
-0.395752	
-0.395264	
-0.39502	
-0.395203	
-0.394653	
-0.394348	
-0.392517	
-0.391785	
-0.392517	
-0.392029	
-0.391541	
-0.391052	
-0.391602	
-0.390259	
-0.390198	
-0.390137	
-0.389526	
-0.388611	
-0.387329	
-0.388367	
-0.386475	
-0.386719	
-0.385376	
-0.384521	
-0.385559	
-0.386292	
-0.387634	
-0.385986	
-0.386902	
-0.386353	
-0.38678	
-0.387573	
-0.387207	
-0.388367	
-0.388184	
-0.388611	
-0.388916	
-0.389893	
-0.390564	
-0.39032	
-0.390808	
-0.390076	
-0.390259	
-0.39093	
-0.391724	
-0.391174	
-0.391541	
-0.392944	
-0.39209	
-0.392456	
-0.393433	
-0.39325	
-0.392639	
-0.391968	
-0.393066	
-0.392334	
-0.393799	
-0.393616	
-0.393616	
-0.393738	
-0.394165	
-0.394287	
-0.394836	
-0.394531	
-0.39386	
-0.394165	
-0.396301	
-0.395691	
-0.39502	
-0.394897	
-0.39502	
-0.393982	
-0.394165	
-0.394287	
-0.393555	
-0.392761	
-0.392212	
-0.391479	
-0.39209	
-0.391052	
-0.391113	
-0.390808	
-0.391174	
-0.390686	
-0.390442	
-0.390991	
-0.390076	
-0.389587	
-0.389099	
-0.389587	
-0.388977	
-0.38916	
-0.389709	
-0.389099	
-0.38916	
-0.388977	
-0.389221	
-0.390686	
-0.388855	
-0.388977	
-0.388367	
-0.389587	
-0.389404	
-0.389587	
-0.389587	
-0.390015	
-0.389771	
-0.389893	
-0.390686	
-0.391296	
-0.391479	
-0.391846	
-0.391296	
-0.393616	
-0.392822	
-0.393616	
-0.394104	
-0.394958	
-0.394104	
-0.394775	
-0.395386	
-0.394958	
-0.395569	
-0.394653	
-0.395142	
-0.395874	
-0.395386	
-0.396484	
-0.396484	
-0.395935	
-0.395691	
-0.396057	
-0.395935	
-0.395935	
-0.395508	
-0.394104	
-0.39563	
-0.394714	
-0.395203	
-0.395081	
-0.395264	
-0.394531	
-0.393738	
-0.394409	
-0.393005	
-0.393494	
-0.3927	
-0.392273	
-0.392944	
-0.391968	
-0.389038	
-0.383423	
-0.383667	
-0.382202	
-0.381897	
-0.382141	
-0.384583	
-0.389038	
-0.387695	
-0.387024	
-0.387207	
-0.386963	
-0.386719	
-0.385803	
-0.386169	
-0.385742	
-0.386536	
-0.385132	
-0.385864	
-0.384827	
-0.384216	
-0.384644	
-0.38324	
-0.38324	
-0.383545	
-0.384277	
-0.384766	
-0.385681	
-0.386902	
-0.385925	
-0.387451	
-0.386169	
-0.386963	
-0.388428	
-0.388245	
-0.38855	
-0.38855	
-0.389526	
-0.389404	
-0.389771	
-0.389587	
-0.390564	
-0.390991	
-0.389465	
-0.390503	
-0.390869	
-0.390869	
-0.390869	
-0.391113	
-0.391968	
-0.391724	
-0.392334	
-0.391968	
-0.3927	
-0.392517	
-0.392029	
-0.392517	
-0.3927	
-0.392517	
-0.392944	
-0.393616	
-0.394714	
-0.395508	
-0.395264	
-0.394836	
-0.394104	
-0.393188	
-0.39386	
-0.394043	
-0.393433	
-0.39325	
-0.393066	
-0.393494	
-0.392761	
-0.3927	
-0.391724	
-0.392578	
-0.391785	
-0.390564	
-0.390564	
-0.389954	
-0.390808	
-0.390625	
-0.389343	
-0.391113	
-0.390076	
-0.390747	
-0.390259	
-0.391418	
-0.390869	
-0.391174	
-0.392517	
-0.392395	
-0.39325	
-0.393799	
-0.395081	
-0.395935	
-0.396423	
-0.396912	
-0.398193	
-0.398682	
-0.398743	
-0.398682	
-0.39917	
-0.400208	
-0.401184	
-0.402344	
-0.403381	
-0.404175	
-0.405151	
-0.404907	
-0.407532	
-0.407166	
-0.409058	
-0.409912	
-0.411316	
-0.412781	
-0.41333	
-0.415833	
-0.416687	
-0.418274	
-0.419067	
-0.421021	
-0.421204	
-0.422302	
-0.422852	
-0.424011	
-0.424927	
-0.425415	
-0.42688	
-0.427429	
-0.428162	
-0.428162	
-0.427734	
-0.428284	
-0.428467	
-0.428284	
-0.42865	
-0.429504	
-0.429077	
-0.429138	
-0.429749	
-0.429688	
-0.429871	
-0.429626	
-0.429382	
-0.429138	
-0.428345	
-0.427673	
-0.427185	
-0.426392	
-0.425842	
-0.425903	
-0.425415	
-0.423401	
-0.423279	
-0.422852	
-0.42157	
-0.420898	
-0.419739	
-0.4198	
-0.419128	
-0.417969	
-0.418335	
-0.417908	
-0.416687	
-0.416382	
-0.41571	
-0.414063	
-0.414673	
-0.413879	
-0.412537	
-0.412598	
-0.411682	
-0.409302	
-0.410156	
-0.408875	
-0.406921	
-0.406799	
-0.405273	
-0.404419	
-0.403015	
-0.402161	
-0.401733	
-0.400879	
-0.399048	
-0.399109	
-0.397217	
-0.395874	
-0.394226	
-0.394043	
-0.391296	
-0.390991	
-0.389771	
-0.388367	
-0.387512	
-0.385681	
-0.384094	
-0.384155	
-0.383057	
-0.381653	
-0.380615	
-0.380737	
-0.379333	
-0.378174	
-0.377686	
-0.379028	
-0.379456	
-0.378357	
-0.377869	
-0.37738	
-0.377625	
-0.37616	
-0.375488	
-0.374207	
-0.372925	
-0.37207	
-0.370728	
-0.369995	
-0.36731	
-0.365234	
-0.365356	
-0.36322	
-0.361389	
-0.359985	
-0.358337	
-0.356628	
-0.355591	
-0.354309	
-0.352844	
-0.352295	
-0.351624	
-0.351563	
-0.350281	
-0.349304	
-0.348938	
-0.349731	
-0.346985	
-0.347778	
-0.346985	
-0.346985	
-0.346863	
-0.346924	
-0.346619	
-0.347351	
-0.347046	
-0.347534	
-0.34729	
-0.345276	
-0.34668	
-0.347229	
-0.348145	
-0.348877	
-0.348999	
-0.349121	
-0.351074	
-0.350708	
-0.350037	
-0.351746	
-0.350891	
-0.352234	
-0.352295	
-0.35199	
-0.352966	
-0.353577	
-0.352966	
-0.354736	
-0.355225	
-0.355652	
-0.356445	
-0.356506	
-0.355225	
-0.35675	
-0.35675	
-0.357971	
-0.358459	
-0.35791	
-0.359741	
-0.359741	
-0.360107	
-0.361572	
-0.360901	
-0.360413	
-0.361694	
-0.362671	
-0.363037	
-0.363403	
-0.363831	
-0.365906	
-0.365906	
-0.366577	
-0.367676	
-0.366394	
-0.365784	
-0.366699	
-0.367493	
-0.366699	
-0.366699	
-0.366882	
-0.367981	
-0.367065	
-0.366821	
-0.367432	
-0.367188	
-0.366089	
-0.366638	
-0.364502	
-0.366455	
-0.366394	
-0.366028	
-0.366211	
-0.366821	
-0.366455	
-0.366516	
-0.36792	
-0.366577	
-0.366882	
-0.366699	
-0.367371	
-0.367371	
-0.367432	
-0.368164	
-0.369141	
-0.368958	
-0.369568	
-0.370239	
-0.369568	
-0.370911	
-0.371277	
-0.372803	
-0.37207	
-0.372986	
-0.372803	
-0.375183	
-0.375305	
-0.375244	
-0.376648	
-0.376465	
-0.377197	
-0.377808	
-0.378601	
-0.37915	
-0.379944	
-0.380066	
-0.381104	
-0.381348	
-0.382202	
-0.382507	
-0.383362	
-0.382446	
-0.383301	
-0.382996	
-0.384888	
-0.384338	
-0.38385	
-0.384094	
-0.386169	
-0.386292	
-0.385071	
-0.38446	
-0.383423	
-0.382935	
-0.382385	
-0.381958	
-0.381226	
-0.380859	
-0.379822	
-0.379333	
-0.380005	
-0.378113	
-0.378662	
-0.377197	
-0.378357	
-0.377441	
-0.376587	
-0.377075	
-0.376892	
-0.376831	
-0.376038	
-0.377075	
-0.376953	
-0.376465	
-0.376526	
-0.375427	
-0.375793	
-0.374878	
-0.375183	
-0.374939	
-0.374878	
-0.375122	
-0.37616	
-0.374939	
-0.375244	
-0.374451	
-0.372986	
-0.372864	
-0.373291	
-0.374695	
-0.374268	
-0.374695	
-0.375366	
-0.374817	
-0.376465	
-0.375793	
-0.376709	
-0.37738	
-0.377258	
-0.377686	
-0.377747	
-0.379211	
-0.378845	
-0.379578	
-0.378967	
-0.379639	
-0.380249	
-0.380188	
-0.381104	
-0.380005	
-0.381165	
-0.380859	
-0.381836	
-0.380554	
-0.38147	
-0.381287	
-0.382019	
-0.383118	
-0.382813	
-0.38324	
-0.382446	
-0.383118	
-0.382751	
-0.383728	
-0.384277	
-0.384399	
-0.384583	
-0.384766	
-0.38562	
-0.387207	
-0.387634	
-0.388123	
-0.38623	
-0.386902	
-0.386108	
-0.386963	
-0.384949	
-0.385864	
-0.385498	
-0.384521	
-0.386719	
-0.385376	
-0.385925	
-0.384888	
-0.384644	
-0.384705	
-0.384705	
-0.383667	
-0.383423	
-0.383545	
-0.382996	
-0.384644	
-0.382996	
-0.38324	
-0.382385	
-0.382813	
-0.382568	
-0.382507	
-0.382568	
-0.382874	
-0.382996	
-0.383362	
-0.383362	
-0.383789	
-0.38385	
-0.38324	
-0.38385	
-0.38324	
-0.38324	
-0.383606	
-0.383972	
-0.384094	
-0.384216	
-0.385559	
-0.386108	
-0.385803	
-0.385498	
-0.386047	
-0.387512	
-0.386414	
-0.387512	
-0.387878	
-0.38855	
-0.388489	
-0.388733	
-0.38916	
-0.388794	
-0.389648	
-0.388733	
-0.390747	
-0.389282	
-0.390198	
-0.390625	
-0.39093	
-0.390686	
-0.39032	
-0.391602	
-0.390808	
-0.390625	
-0.389648	
-0.388916	
-0.390015	
-0.388123	
-0.388916	
-0.388916	
-0.388367	
-0.388062	
-0.387695	
-0.387451	
-0.386841	
-0.387268	
-0.385925	
-0.385986	
-0.384583	
-0.384827	
-0.383911	
-0.38446	
-0.383179	
-0.383179	
-0.382935	
-0.382751	
-0.382263	
-0.380676	
-0.380676	
-0.380859	
-0.380371	
-0.380676	
-0.379883	
-0.380249	
-0.379883	
-0.379761	
-0.37915	
-0.378662	
-0.378845	
-0.378967	
-0.379517	
-0.379456	
-0.379822	
-0.380066	
-0.381775	
-0.381104	
-0.381531	
-0.382263	
-0.382568	
-0.382813	
-0.382385	
-0.383301	
-0.38324	
-0.383057	
-0.38385	
-0.384277	
-0.384949	
-0.385864	
-0.386902	
-0.385803	
-0.386047	
-0.386902	
-0.386475	
-0.387817	
-0.386719	
-0.387207	
-0.387451	
-0.388733	
-0.388	
-0.388306	
-0.388672	
-0.388916	
-0.388916	
-0.387573	
-0.388245	
-0.388977	
-0.388672	
-0.389099	
-0.390137	
-0.391418	
-0.391541	
-0.391724	
-0.390442	
-0.390137	
-0.39032	
-0.389282	
-0.389465	
-0.388672	
-0.388611	
-0.388611	
-0.388733	
-0.387634	
-0.387817	
-0.387268	
-0.388	
-0.387878	
-0.385315	
-0.386353	
-0.385803	
-0.386047	
-0.386414	
-0.384705	
-0.386353	
-0.385498	
-0.385864	
-0.38562	
-0.38562	
-0.384827	
-0.385071	
-0.386597	
-0.384766	
-0.384766	
-0.385254	
-0.385193	
-0.385315	
-0.385437	
-0.385254	
-0.385559	
-0.386658	
-0.384705	
-0.386047	
-0.386414	
-0.386963	
-0.38739	
-0.388489	
-0.388367	
-0.38855	
-0.389832	
-0.389404	
-0.389832	
-0.390015	
-0.390991	
-0.389954	
-0.389648	
-0.391052	
-0.390259	
-0.392456	
-0.391907	
-0.392273	
-0.391907	
-0.393005	
-0.3927	
-0.392639	
-0.392151	
-0.391663	
-0.392578	
-0.392151	
-0.3927	
-0.392334	
-0.392273	
-0.392273	
-0.3927	
-0.391846	
-0.391357	
-0.391235	
-0.391418	
-0.390808	
-0.390076	
-0.38855	
-0.390747	
-0.389221	
-0.389648	
-0.389221	
-0.389526	
-0.389038	
-0.387024	
-0.387634	
-0.38623	
-0.385437	
-0.385376	
-0.385437	
-0.384888	
-0.383911	
-0.38501	
-0.382874	
-0.383911	
-0.382629	
-0.383118	
-0.382324	
-0.382202	
-0.38208	
-0.380981	
-0.382446	
-0.381714	
-0.382507	
-0.381348	
-0.380554	
-0.380432	
-0.380615	
-0.381226	
-0.380981	
-0.382141	
-0.381897	
-0.383728	
-0.383728	
-0.383972	
-0.385559	
-0.385193	
-0.385254	
-0.384644	
-0.385132	
-0.385559	
-0.38501	
-0.386597	
-0.386963	
-0.387817	
-0.38739	
-0.387695	
-0.387268	
-0.387634	
-0.388977	
-0.388123	
-0.387512	
-0.387756	
-0.388672	
-0.388306	
-0.389771	
-0.389587	
-0.389343	
-0.389954	
-0.389771	
-0.39032	
-0.389526	
-0.389771	
-0.390137	
-0.391541	
-0.392029	
-0.391479	
-0.392944	
-0.391235	
-0.391724	
-0.391602	
-0.391174	
-0.390564	
-0.389587	
-0.390076	
-0.389587	
-0.388672	
-0.388245	
-0.389099	
-0.389465	
-0.388245	
-0.389282	
-0.388123	
-0.388184	
-0.387451	
-0.388245	
-0.386902	
-0.386169	
-0.386841	
-0.386536	
-0.387085	
-0.386902	
-0.386536	
-0.386108	
-0.386169	
-0.386414	
-0.386169	
-0.385193	
-0.385498	
-0.386047	
-0.385498	
-0.386658	
-0.386414	
-0.386963	
-0.386475	
-0.384277	
-0.384644	
-0.384888	
-0.385193	
-0.38623	
-0.385803	
-0.386658	
-0.388	
-0.388489	
-0.388977	
-0.389526	
-0.390137	
-0.388489	
-0.389954	
-0.389404	
-0.390259	
-0.390076	
-0.390381	
-0.390564	
-0.391846	
-0.392334	
-0.392578	
-0.393188	
-0.39209	
-0.392395	
-0.392334	
-0.393188	
-0.392151	
-0.390991	
-0.3927	
-0.39209	
-0.392029	
-0.391907	
-0.391907	
-0.391785	
-0.390503	
-0.391235	
-0.390076	
-0.390442	
-0.389587	
-0.389343	
-0.389038	
-0.389465	
-0.389282	
-0.388794	
-0.388428	
-0.386841	
-0.38678	
-0.386658	
-0.38446	
-0.384338	
-0.383362	
-0.383118	
-0.383118	
-0.383179	
-0.382813	
-0.382263	
-0.383423	
-0.380798	
-0.382568	
-0.379883	
-0.381226	
-0.38031	
-0.379944	
-0.379272	
-0.38031	
-0.381042	
-0.380554	
-0.381531	
-0.380859	
-0.380859	
-0.38092	
-0.380249	
-0.38092	
-0.381714	
-0.381897	
-0.38208	
-0.383667	
-0.383484	
-0.383545	
-0.384949	
-0.383606	
-0.38446	
-0.384399	
-0.38501	
-0.38501	
-0.385925	
-0.385681	
-0.387024	
-0.38855	
-0.387939	
-0.38916	
-0.38855	
-0.389221	
-0.389587	
-0.389893	
-0.390076	
-0.389526	
-0.390198	
-0.391235	
-0.391968	
-0.391846	
-0.391846	
-0.393616	
-0.394531	
-0.395081	
-0.393616	
-0.394104	
-0.392517	
-0.393127	
-0.392334	
-0.392578	
-0.392456	
-0.391785	
-0.39209	
-0.39032	
-0.391479	
-0.390564	
-0.389099	
-0.389648	
-0.389771	
-0.388794	
-0.388794	
-0.388367	
-0.388611	
-0.388	
-0.388611	
-0.386597	
-0.388062	
-0.385803	
-0.387756	
-0.386475	
-0.386536	
-0.38501	
-0.386414	
-0.386719	
-0.38623	
-0.386169	
-0.385498	
-0.385925	
-0.385193	
-0.384521	
-0.385071	
-0.385071	
-0.384338	
-0.382507	
-0.383423	
-0.383118	
-0.384277	
-0.385498	
-0.384521	
-0.384949	
-0.38501	
-0.385254	
-0.384644	
-0.385986	
-0.386108	
-0.386658	
-0.387878	
-0.386658	
-0.388306	
-0.388123	
-0.388184	
-0.387451	
-0.388123	
-0.388	
-0.388489	
-0.388916	
-0.388367	
-0.389709	
-0.388855	
-0.390381	
-0.389648	
-0.387939	
-0.389771	
-0.388062	
-0.389099	
-0.388916	
-0.389587	
-0.390076	
-0.389404	
-0.390625	
-0.389282	
-0.39032	
-0.389221	
-0.389771	
-0.388855	
-0.388245	
-0.388672	
-0.388428	
-0.387573	
-0.387207	
-0.386658	
-0.386963	
-0.386414	
-0.386414	
-0.385559	
-0.385437	
-0.38385	
-0.384583	
-0.384155	
-0.384705	
-0.384155	
-0.382874	
-0.384155	
-0.383728	
-0.384033	
-0.383118	
-0.383057	
-0.382507	
-0.382751	
-0.383301	
-0.382141	
-0.383362	
-0.382996	
-0.382507	
-0.383484	
-0.383667	
-0.383484	
-0.383301	
-0.38385	
-0.383423	
-0.384033	
-0.383728	
-0.385193	
-0.385498	
-0.385071	
-0.385559	
-0.385986	
-0.387451	
-0.387329	
-0.38739	
-0.388123	
-0.388672	
-0.388672	
-0.389709	
-0.39032	
-0.390259	
-0.391052	
-0.391785	
-0.392883	
-0.391602	
-0.393311	
-0.392395	
-0.393066	
-0.393188	
-0.394165	
-0.393738	
-0.394348	
-0.394287	
-0.394714	
-0.394592	
-0.394836	
-0.394348	
-0.39563	
-0.394897	
-0.395752	
-0.394531	
-0.394775	
-0.394104	
-0.393555	
-0.391907	
-0.392822	
-0.391846	
-0.391541	
-0.391846	
-0.389954	
-0.389099	
-0.389893	
-0.389343	
-0.389832	
-0.389526	
-0.388916	
-0.389099	
-0.390259	
-0.389832	
-0.388855	
-0.389526	
-0.387878	
-0.387878	
-0.387024	
-0.387878	
-0.387634	
-0.387024	
-0.386719	
-0.387634	
-0.387695	
-0.386536	
-0.38678	
-0.386536	
-0.386353	
-0.385315	
-0.383057	
-0.38446	
-0.384399	
-0.385193	
-0.384705	
-0.386536	
-0.385986	
-0.385925	
-0.386414	
-0.385437	
-0.386169	
-0.386292	
-0.387573	
-0.387085	
-0.387146	
-0.387146	
-0.387451	
-0.388733	
-0.387573	
-0.388489	
-0.388184	
-0.388855	
-0.388245	
-0.387756	
-0.389526	
-0.389221	
-0.389221	
-0.388794	
-0.390747	
-0.390442	
-0.389832	
-0.390625	
-0.389893	
-0.390686	
-0.390015	
-0.389893	
-0.390137	
-0.389709	
-0.389771	
-0.39032	
-0.391724	
-0.389893	
-0.390503	
-0.391663	
-0.391541	
-0.391113	
-0.389709	
-0.389771	
-0.389832	
-0.389282	
-0.386963	
-0.388733	
-0.388428	
-0.38739	
-0.387817	
-0.385681	
-0.386047	
-0.386047	
-0.386902	
-0.38562	
-0.385864	
-0.384583	
-0.384216	
-0.385559	
-0.384033	
-0.384583	
-0.384399	
-0.383667	
-0.383606	
-0.382874	
-0.384888	
-0.384521	
-0.384155	
-0.384033	
-0.385742	
-0.385986	
-0.385437	
-0.385925	
-0.385315	
-0.386108	
-0.386047	
-0.386108	
-0.38678	
-0.387024	
-0.387512	
-0.388855	
-0.389893	
-0.389648	
-0.390625	
-0.391602	
-0.389587	
-0.391418	
-0.392029	
-0.393799	
-0.393311	
-0.393494	
-0.393616	
-0.394409	
-0.396301	
-0.395447	
-0.396423	
-0.396667	
-0.395813	
-0.395813	
-0.396301	
-0.397095	
-0.396484	
-0.396545	
-0.396057	
-0.397156	
-0.398499	
-0.396423	
-0.396912	
-0.394409	
-0.395813	
-0.394287	
-0.39563	
-0.394836	
-0.394653	
-0.394043	
-0.393372	
-0.39386	
-0.393677	
-0.393677	
-0.3927	
-0.391541	
-0.391663	
-0.391357	
-0.391785	
-0.390442	
-0.390198	
-0.389343	
-0.389404	
-0.389465	
-0.388489	
-0.388611	
-0.386169	
-0.387268	
-0.386902	
-0.385925	
-0.386292	
-0.385803	
-0.385254	
-0.384766	
-0.384644	
-0.382935	
-0.383728	
-0.384155	
-0.382507	
-0.384094	
-0.384521	
-0.385376	
-0.384766	
-0.384949	
-0.38501	
-0.385559	
-0.387329	
-0.386841	
-0.387329	
-0.38623	
-0.38678	
-0.386414	
-0.388184	
-0.388123	
-0.388367	
-0.388611	
-0.38855	
-0.389648	
-0.389771	
-0.390564	
-0.390442	
-0.388062	
-0.389832	
-0.390808	
-0.391846	
-0.391418	
-0.39093	
-0.391541	
-0.391602	
-0.393188	
-0.391724	
-0.391785	
-0.391296	
-0.391602	
-0.390991	
-0.391418	
-0.392273	
-0.393555	
-0.394287	
-0.39386	
-0.394165	
-0.394897	
-0.393127	
-0.393555	
-0.391418	
-0.391907	
-0.391785	
-0.391846	
-0.390747	
-0.390259	
-0.390625	
-0.389099	
-0.390442	
-0.390381	
-0.389832	
-0.389404	
-0.387573	
-0.388123	
-0.387573	
-0.388916	
-0.388123	
-0.388245	
-0.387756	
-0.388306	
-0.388672	
-0.388794	
-0.387634	
-0.38623	
-0.387085	
-0.387573	
-0.387451	
-0.387146	
-0.387817	
-0.388	
-0.386414	
-0.388672	
-0.388428	
-0.388794	
-0.388611	
-0.386169	
-0.388123	
-0.388733	
-0.390686	
-0.390076	
-0.391052	
-0.391113	
-0.391663	
-0.39325	
-0.393188	
-0.393005	
-0.392395	
-0.3927	
-0.393311	
-0.393127	
-0.393921	
-0.394104	
-0.393921	
-0.39325	
-0.395142	
-0.395386	
-0.394714	
-0.395508	
-0.393738	
-0.393555	
-0.39502	
-0.394897	
-0.394409	
-0.394653	
-0.39386	
-0.394043	
-0.39447	
-0.393616	
-0.393433	
-0.393311	
-0.391663	
-0.391479	
-0.391418	
-0.391968	
-0.391724	
-0.391418	
-0.390503	
-0.390991	
-0.392151	
-0.390564	
-0.390198	
-0.388062	
-0.387451	
-0.387756	
-0.387024	
-0.386597	
-0.386536	
-0.385376	
-0.385803	
-0.386353	
-0.386597	
-0.384399	
-0.38501	
-0.383545	
-0.384033	
-0.383728	
-0.384033	
-0.383545	
-0.383606	
-0.382813	
-0.382507	
-0.383057	
-0.382568	
-0.382568	
-0.382019	
-0.383179	
-0.383789	
-0.385132	
-0.385254	
-0.385559	
-0.385681	
-0.386047	
-0.386963	
-0.387756	
-0.386902	
-0.387329	
-0.386353	
-0.387939	
-0.386902	
-0.388916	
-0.387939	
-0.388611	
-0.388794	
-0.389404	
-0.390686	
-0.390808	
-0.390442	
-0.389038	
-0.389282	
-0.390259	
-0.390076	
-0.390564	
-0.390869	
-0.391174	
-0.390503	
-0.391785	
-0.3927	
-0.392029	
-0.392273	
-0.392029	
-0.393311	
-0.393982	
-0.393677	
-0.393188	
-0.392029	
-0.39209	
-0.39325	
-0.39386	
-0.393494	
-0.392578	
-0.391296	
-0.390686	
-0.390503	
-0.391357	
-0.390442	
-0.390503	
-0.390381	
-0.388916	
-0.389893	
-0.389648	
-0.390076	
-0.389709	
-0.388245	
-0.387512	
-0.388245	
-0.389282	
-0.388611	
-0.387939	
-0.387634	
-0.388	
-0.388855	
-0.389038	
-0.388611	
-0.387634	
-0.387695	
-0.386902	
-0.387085	
-0.387817	
-0.387756	
-0.387756	
-0.386108	
-0.386475	
-0.387512	
-0.387878	
-0.388428	
-0.388245	
-0.388489	
-0.38855	
-0.390198	
-0.389771	
-0.390381	
-0.390442	
-0.39093	
-0.391418	
-0.391602	
-0.391479	
-0.392029	
-0.391602	
-0.390442	
-0.392639	
-0.393433	
-0.393188	
-0.394348	
-0.39325	
-0.393921	
-0.394531	
-0.394775	
-0.393921	
-0.393494	
-0.393005	
-0.392273	
-0.393738	
-0.393555	
-0.392639	
-0.393127	
-0.392883	
-0.393127	
-0.392273	
-0.393311	
-0.392273	
-0.390747	
-0.390198	
-0.390686	
-0.390808	
-0.389832	
-0.38916	
-0.388184	
-0.388062	
-0.388184	
-0.387939	
-0.386536	
-0.386414	
-0.385254	
-0.383667	
-0.384949	
-0.38446	
-0.384033	
-0.383301	
-0.382507	
-0.38324	
-0.382568	
-0.383118	
-0.38324	
-0.380554	
-0.380615	
-0.381287	
-0.382568	
-0.38147	
-0.381653	
-0.381592	
-0.382202	
-0.382629	
-0.383789	
-0.383118	
-0.382446	
-0.382507	
-0.38208	
-0.382568	
-0.38501	
-0.384644	
-0.384583	
-0.384277	
-0.385071	
-0.386475	
-0.386658	
-0.386536	
-0.385681	
-0.386108	
-0.387878	
-0.386841	
-0.388306	
-0.388794	
-0.389404	
-0.389465	
-0.390991	
-0.391296	
-0.391479	
-0.391846	
-0.391235	
-0.391663	
-0.392334	
-0.393555	
-0.392944	
-0.393555	
-0.394592	
-0.395813	
-0.396484	
-0.395569	
-0.39447	
-0.393982	
-0.393982	
-0.393677	
-0.393188	
-0.393677	
-0.392761	
-0.392273	
-0.391479	
-0.391968	
-0.391846	
-0.391724	
-0.390808	
-0.389893	
-0.388916	
-0.389404	
-0.388855	
-0.389832	
-0.388794	
-0.388794	
-0.388367	
-0.388794	
-0.389282	
-0.388123	
-0.388062	
-0.386902	
-0.386902	
-0.387634	
-0.38739	
-0.386902	
-0.386536	
-0.385864	
-0.386658	
-0.386597	
-0.386719	
-0.386169	
-0.385376	
-0.383972	
-0.384338	
-0.383972	
-0.384521	
-0.385315	
-0.385925	
-0.384705	
-0.38739	
-0.386475	
-0.387024	
-0.386414	
-0.386963	
-0.386963	
-0.387512	
-0.387451	
-0.388184	
-0.388184	
-0.388489	
-0.388916	
-0.389648	
-0.389832	
-0.389648	
-0.390259	
-0.389099	
-0.388977	
-0.390076	
-0.390503	
-0.390442	
-0.390137	
-0.389893	
-0.391724	
-0.391479	
-0.390808	
-0.390503	
-0.39093	
-0.389038	
-0.390564	
-0.390381	
-0.390808	
-0.390564	
-0.389893	
-0.389954	
-0.390198	
-0.391052	
-0.389832	
-0.388855	
-0.388672	
-0.387634	
-0.387878	
-0.387512	
-0.387085	
-0.386658	
-0.386475	
-0.387329	
-0.386047	
-0.386902	
-0.385437	
-0.385864	
-0.383667	
-0.384888	
-0.384521	
-0.383728	
-0.384216	
-0.383789	
-0.382874	
-0.383789	
-0.384705	
-0.383911	
-0.38324	
-0.384216	
-0.382568	
-0.384155	
-0.384583	
-0.384277	
-0.384399	
-0.384888	
-0.385803	
-0.385315	
-0.38739	
-0.385925	
-0.386536	
-0.386169	
-0.387085	
-0.387024	
-0.387817	
-0.387817	
-0.388245	
-0.388977	
-0.389465	
-0.39093	
-0.39093	
-0.389771	
-0.391602	
-0.391357	
-0.39209	
-0.391541	
-0.393494	
-0.39325	
-0.393799	
-0.394531	
-0.394592	
-0.394836	
-0.395386	
-0.394775	
-0.393677	
-0.395691	
-0.395569	
-0.394348	
-0.395264	
-0.396301	
-0.397217	
-0.397278	
-0.397278	
-0.395752	
-0.395264	
-0.395142	
-0.392212	
-0.39386	
-0.392944	
-0.393799	
-0.392639	
-0.392395	
-0.391907	
-0.391663	
-0.392273	
-0.390808	
-0.39032	
-0.390015	
-0.389465	
-0.389954	
-0.388672	
-0.390076	
-0.389282	
-0.389465	
-0.389465	
-0.390137	
-0.389832	
-0.388489	
-0.388428	
-0.388245	
-0.388	
-0.387329	
-0.386963	
-0.387695	
-0.388	
-0.387451	
-0.387085	
-0.387146	
-0.385498	
-0.385376	
-0.38678	
-0.386292	
-0.386658	
-0.38623	
-0.387146	
-0.386841	
-0.387146	
-0.38739	
-0.387756	
-0.388855	
-0.387512	
-0.388489	
-0.386902	
-0.388855	
-0.388489	
-0.388245	
-0.39032	
-0.389526	
-0.389954	
-0.390442	
-0.390686	
-0.390991	
-0.390198	
-0.390381	
-0.389893	
-0.391113	
-0.390808	
-0.390259	
-0.39093	
-0.390808	
-0.391113	
-0.390991	
-0.392883	
-0.391663	
-0.390259	
-0.391663	
-0.391418	
-0.391541	
-0.391052	
-0.391785	
-0.391785	
-0.392517	
-0.393555	
-0.392334	
-0.392151	
-0.390381	
-0.39032	
-0.388	
-0.389404	
-0.389038	
-0.388062	
-0.389221	
-0.388	
-0.387817	
-0.387329	
-0.389221	
-0.387024	
-0.386353	
-0.386597	
-0.385559	
-0.385742	
-0.385559	
-0.384888	
-0.384888	
-0.385193	
-0.386108	
-0.385315	
-0.385986	
-0.38501	
-0.385498	
-0.38501	
-0.385559	
-0.38623	
	
