E:\DOCUMENTS AND SETTINGS\JPOTAS\MEUS DOCUMENTOS\UFRJ\RSCI-BM 12 WK SERIES\070803-RSCI-BM-11\RSCI-BM-11-REMG\070803-RSCI-BM-11-REMG-0000.ACQ
0.025000 msec/sample
1 channel
Analog input
Volts
CH1	
2000	
-0.391724	
-0.393616	
-0.391602	
-0.392212	
-0.392029	
-0.391541	
-0.39209	
-0.391907	
-0.392273	
-0.392639	
-0.391663	
-0.391968	
-0.392334	
-0.393433	
-0.392273	
-0.392761	
-0.394287	
-0.392456	
-0.393066	
-0.392883	
-0.391907	
-0.392456	
-0.391235	
-0.391968	
-0.391479	
-0.390442	
-0.391052	
-0.39093	
-0.391174	
-0.388245	
-0.390381	
-0.389954	
-0.389404	
-0.390381	
-0.389282	
-0.389771	
-0.389771	
-0.389526	
-0.390686	
-0.390625	
-0.391052	
-0.389282	
-0.390686	
-0.390686	
-0.389404	
-0.390991	
-0.391541	
-0.390625	
-0.391296	
-0.391479	
-0.392761	
-0.391418	
-0.391846	
-0.391663	
-0.391846	
-0.392395	
-0.390747	
-0.391785	
-0.392883	
-0.391357	
-0.391907	
-0.391602	
-0.393921	
-0.392029	
-0.392273	
-0.392944	
-0.392334	
-0.392578	
-0.392273	
-0.393066	
-0.392883	
-0.392151	
-0.392944	
-0.392883	
-0.394165	
-0.39386	
-0.394775	
-0.395935	
-0.393677	
-0.395813	
-0.39624	
-0.396179	
-0.396057	
-0.395874	
-0.396851	
-0.397034	
-0.395935	
-0.397278	
-0.397461	
-0.397339	
-0.396057	
-0.397034	
-0.397766	
-0.395569	
-0.39679	
-0.395996	
-0.396423	
-0.395935	
-0.394775	
-0.397461	
-0.395508	
-0.395447	
-0.394165	
-0.394165	
-0.39386	
-0.392578	
-0.393677	
-0.392517	
-0.391785	
-0.391357	
-0.391418	
-0.392334	
-0.39093	
-0.390564	
-0.390381	
-0.388855	
-0.389648	
-0.388672	
-0.388855	
-0.389709	
-0.389404	
-0.388794	
-0.388672	
-0.389954	
-0.388794	
-0.388611	
-0.389221	
-0.387756	
-0.389282	
-0.387695	
-0.388611	
-0.390198	
-0.390076	
-0.391907	
-0.391663	
-0.391663	
-0.391418	
-0.391541	
-0.392151	
-0.390808	
-0.392029	
-0.391663	
-0.391724	
-0.392822	
-0.391724	
-0.392822	
-0.392883	
-0.392395	
-0.393616	
-0.393616	
-0.394348	
-0.393005	
-0.394714	
-0.394836	
-0.393799	
-0.393677	
-0.394165	
-0.394104	
-0.394348	
-0.393738	
-0.395081	
-0.393921	
-0.394226	
-0.394043	
-0.393738	
-0.394287	
-0.392883	
-0.392273	
-0.391418	
-0.390991	
-0.391479	
-0.391785	
-0.393311	
-0.391663	
-0.391357	
-0.391296	
-0.391907	
-0.391724	
-0.391541	
-0.391418	
-0.391602	
-0.392029	
-0.391724	
-0.391602	
-0.39325	
-0.392273	
-0.392334	
-0.392517	
-0.392578	
-0.39325	
-0.392029	
-0.393066	
-0.393616	
-0.392212	
-0.3927	
-0.393005	
-0.394348	
-0.389648	
-0.38562	
-0.385681	
-0.385376	
-0.385864	
-0.385803	
-0.39032	
-0.39447	
-0.393494	
-0.393982	
-0.394226	
-0.394348	
-0.394226	
-0.393616	
-0.394531	
-0.392761	
-0.394104	
-0.393616	
-0.39386	
-0.393372	
-0.3927	
-0.392761	
-0.392334	
-0.392334	
-0.392822	
-0.392334	
-0.392334	
-0.391846	
-0.392151	
-0.391968	
-0.391418	
-0.390747	
-0.390991	
-0.390747	
-0.390137	
-0.390076	
-0.391357	
-0.389404	
-0.38916	
-0.389038	
-0.389526	
-0.389832	
-0.388855	
-0.388428	
-0.389709	
-0.388855	
-0.388611	
-0.388794	
-0.390503	
-0.389099	
-0.388916	
-0.389526	
-0.388428	
-0.39032	
-0.388794	
-0.389648	
-0.390381	
-0.389832	
-0.390808	
-0.390747	
-0.391846	
-0.391541	
-0.39209	
-0.391907	
-0.391113	
-0.391846	
-0.390564	
-0.392029	
-0.392273	
-0.392151	
-0.393311	
-0.394104	
-0.393494	
-0.395203	
-0.394531	
-0.395264	
-0.395081	
-0.394714	
-0.395081	
-0.395081	
-0.393982	
-0.394897	
-0.395447	
-0.395935	
-0.394714	
-0.396301	
-0.394897	
-0.396057	
-0.395447	
-0.395081	
-0.395691	
-0.394714	
-0.394897	
-0.395142	
-0.395874	
-0.395935	
-0.396118	
-0.398804	
-0.397217	
-0.398132	
-0.398132	
-0.399109	
-0.399353	
-0.399048	
-0.398621	
-0.400391	
-0.400879	
-0.400085	
-0.400024	
-0.400696	
-0.399109	
-0.398254	
-0.39801	
-0.397888	
-0.397522	
-0.396362	
-0.395203	
-0.395386	
-0.395874	
-0.396545	
-0.395935	
-0.398499	
-0.396973	
-0.397461	
-0.398743	
-0.400146	
-0.401245	
-0.399658	
-0.399231	
-0.398682	
-0.398865	
-0.398743	
-0.397644	
-0.397095	
-0.39563	
-0.395081	
-0.394226	
-0.393555	
-0.393921	
-0.392212	
-0.391235	
-0.39093	
-0.390991	
-0.389587	
-0.389282	
-0.390869	
-0.388367	
-0.388	
-0.387451	
-0.386475	
-0.385925	
-0.38324	
-0.381775	
-0.382141	
-0.381226	
-0.380554	
-0.379211	
-0.379456	
-0.377197	
-0.375854	
-0.374634	
-0.373047	
-0.373901	
-0.372803	
-0.372009	
-0.37323	
-0.371338	
-0.372803	
-0.371887	
-0.372498	
-0.371643	
-0.370422	
-0.3703	
-0.368347	
-0.369812	
-0.368103	
-0.367371	
-0.368164	
-0.364685	
-0.365356	
-0.364441	
-0.364868	
-0.362122	
-0.361023	
-0.360291	
-0.358826	
-0.358765	
-0.358093	
-0.356445	
-0.356689	
-0.354065	
-0.354187	
-0.352722	
-0.352356	
-0.350037	
-0.348206	
-0.347412	
-0.345093	
-0.345215	
-0.343872	
-0.34198	
-0.341858	
-0.339172	
-0.3396	
-0.33905	
-0.340149	
-0.338684	
-0.33844	
-0.337585	
-0.338928	
-0.33844	
-0.33844	
-0.336731	
-0.337219	
-0.336914	
-0.337036	
-0.336121	
-0.33844	
-0.336426	
-0.336487	
-0.335815	
-0.334656	
-0.334229	
-0.333008	
-0.333313	
-0.330627	
-0.330078	
-0.329407	
-0.328552	
-0.327393	
-0.325867	
-0.326355	
-0.324646	
-0.325317	
-0.324829	
-0.324707	
-0.325745	
-0.324829	
-0.326111	
-0.326965	
-0.328735	
-0.328308	
-0.329651	
-0.331055	
-0.330261	
-0.333862	
-0.334778	
-0.335754	
-0.33667	
-0.337952	
-0.338623	
-0.338684	
-0.341797	
-0.341003	
-0.342102	
-0.341736	
-0.342224	
-0.342773	
-0.343811	
-0.344421	
-0.344116	
-0.345032	
-0.34491	
-0.346191	
-0.346191	
-0.345886	
-0.34552	
-0.342773	
-0.344788	
-0.344543	
-0.345947	
-0.346436	
-0.345215	
-0.34668	
-0.346985	
-0.34845	
-0.347595	
-0.346802	
-0.347717	
-0.346558	
-0.348816	
-0.347351	
-0.348389	
-0.348145	
-0.349426	
-0.349121	
-0.349365	
-0.351746	
-0.350403	
-0.351685	
-0.352356	
-0.353027	
-0.354553	
-0.354431	
-0.355408	
-0.355713	
-0.356873	
-0.357178	
-0.358093	
-0.357727	
-0.358948	
-0.359131	
-0.358215	
-0.360535	
-0.362	
-0.362976	
-0.36377	
-0.363586	
-0.362915	
-0.363159	
-0.364563	
-0.36377	
-0.363892	
-0.364502	
-0.363281	
-0.364807	
-0.365112	
-0.365417	
-0.364868	
-0.365051	
-0.364563	
-0.365112	
-0.365784	
-0.365051	
-0.365234	
-0.365356	
-0.364319	
-0.365601	
-0.36554	
-0.366028	
-0.364929	
-0.36554	
-0.36554	
-0.365906	
-0.367615	
-0.36615	
-0.366455	
-0.367432	
-0.36499	
-0.368835	
-0.367188	
-0.36792	
-0.367188	
-0.368225	
-0.367432	
-0.368286	
-0.369873	
-0.368774	
-0.369324	
-0.369507	
-0.368958	
-0.370239	
-0.370178	
-0.370911	
-0.369202	
-0.370544	
-0.371399	
-0.371643	
-0.371094	
-0.37085	
-0.371155	
-0.370789	
-0.37207	
-0.371704	
-0.370789	
-0.371033	
-0.371704	
-0.371704	
-0.372314	
-0.373413	
-0.372437	
-0.373047	
-0.373169	
-0.372375	
-0.373169	
-0.372864	
-0.372803	
-0.372253	
-0.372742	
-0.372009	
-0.373474	
-0.373535	
-0.373108	
-0.373108	
-0.372864	
-0.372559	
-0.373108	
-0.373169	
-0.372559	
-0.371521	
-0.371643	
-0.371765	
-0.373047	
-0.371399	
-0.370544	
-0.369995	
-0.370911	
-0.370544	
-0.370728	
-0.370667	
-0.372009	
-0.371033	
-0.370789	
-0.371277	
-0.371399	
-0.37085	
-0.370483	
-0.370605	
-0.370239	
-0.37085	
-0.370972	
-0.369568	
-0.370911	
-0.371155	
-0.371704	
-0.372253	
-0.372253	
-0.372131	
-0.372375	
-0.372375	
-0.371521	
-0.373474	
-0.373718	
-0.372742	
-0.374084	
-0.373657	
-0.374023	
-0.374451	
-0.375	
-0.374695	
-0.374268	
-0.374451	
-0.373901	
-0.375916	
-0.374634	
-0.375427	
-0.375427	
-0.374817	
-0.375366	
-0.375244	
-0.37616	
-0.375916	
-0.377075	
-0.376831	
-0.377319	
-0.378357	
-0.377808	
-0.378723	
-0.378723	
-0.379578	
-0.379822	
-0.381226	
-0.38031	
-0.380676	
-0.381531	
-0.381042	
-0.380554	
-0.380798	
-0.378723	
-0.3797	
-0.380066	
-0.38208	
-0.381104	
-0.382568	
-0.38208	
-0.382202	
-0.383118	
-0.382446	
-0.383057	
-0.383057	
-0.382751	
-0.382996	
-0.382385	
-0.383423	
-0.383423	
-0.383362	
-0.38324	
-0.383118	
-0.382874	
-0.383362	
-0.38446	
-0.383057	
-0.383484	
-0.383728	
-0.382446	
-0.384827	
-0.386353	
-0.385986	
-0.384827	
-0.384583	
-0.383911	
-0.383911	
-0.384949	
-0.383179	
-0.383423	
-0.382813	
-0.383362	
-0.383667	
-0.384277	
-0.383667	
-0.382507	
-0.382935	
-0.38208	
-0.382996	
-0.382996	
-0.382629	
-0.38269	
-0.381714	
-0.382874	
-0.383057	
-0.383118	
-0.383179	
-0.383179	
-0.382263	
-0.382568	
-0.384766	
-0.384216	
-0.383545	
-0.383606	
-0.383484	
-0.384277	
-0.384827	
-0.385315	
-0.384644	
-0.384583	
-0.383606	
-0.383911	
-0.38562	
-0.384888	
-0.385254	
-0.384949	
-0.384705	
-0.385315	
-0.385925	
-0.386169	
-0.385559	
-0.385925	
-0.385315	
-0.386475	
-0.386108	
-0.385376	
-0.385925	
-0.385803	
-0.385498	
-0.387451	
-0.388733	
-0.388	
-0.388855	
-0.389648	
-0.387451	
-0.390076	
-0.389648	
-0.389221	
-0.389648	
-0.390381	
-0.389221	
-0.390564	
-0.391663	
-0.390076	
-0.390259	
-0.391174	
-0.389343	
-0.391602	
-0.390808	
-0.389954	
-0.389709	
-0.389526	
-0.388733	
-0.389709	
-0.390747	
-0.389954	
-0.390015	
-0.389954	
-0.389099	
-0.388794	
-0.389465	
-0.38855	
-0.38739	
-0.386902	
-0.387207	
-0.38739	
-0.388611	
-0.386597	
-0.386841	
-0.386108	
-0.386169	
-0.385742	
-0.385254	
-0.385132	
-0.384521	
-0.385376	
-0.385437	
-0.38562	
-0.385986	
-0.384521	
-0.385437	
-0.384094	
-0.385681	
-0.385254	
-0.385559	
-0.386108	
-0.386597	
-0.387939	
-0.388489	
-0.388245	
-0.387817	
-0.387207	
-0.388123	
-0.386414	
-0.389221	
-0.388245	
-0.387512	
-0.388672	
-0.388489	
-0.388733	
-0.390137	
-0.39032	
-0.389709	
-0.390076	
-0.390503	
-0.389648	
-0.391052	
-0.390503	
-0.390198	
-0.390625	
-0.390991	
-0.389221	
-0.390869	
-0.392395	
-0.39093	
-0.390381	
-0.390503	
-0.391357	
-0.390808	
-0.391235	
-0.389465	
-0.388123	
-0.387817	
-0.387512	
-0.388123	
-0.389221	
-0.388611	
-0.388428	
-0.388	
-0.389099	
-0.388672	
-0.388977	
-0.387146	
-0.38739	
-0.388245	
-0.388611	
-0.389099	
-0.388855	
-0.388977	
-0.389099	
-0.388489	
-0.390015	
-0.389526	
-0.390198	
-0.389709	
-0.389038	
-0.389893	
-0.390625	
-0.391296	
-0.390625	
-0.390076	
-0.390564	
-0.390442	
-0.391602	
-0.39093	
-0.391296	
-0.390625	
-0.390442	
-0.390747	
-0.39093	
-0.39209	
-0.391296	
-0.39032	
-0.39093	
-0.391602	
-0.391602	
-0.391052	
-0.39093	
-0.390625	
-0.390808	
-0.39032	
-0.391052	
-0.39209	
-0.390198	
-0.389832	
-0.389343	
-0.390564	
-0.390503	
-0.389709	
-0.389709	
-0.389038	
-0.388855	
-0.38855	
-0.389526	
-0.38916	
-0.38739	
-0.387939	
-0.386963	
-0.387634	
-0.387573	
-0.387573	
-0.386292	
-0.386414	
-0.38623	
-0.385681	
-0.387024	
-0.38739	
-0.38678	
-0.386108	
-0.385742	
-0.387573	
-0.387024	
-0.38739	
-0.386475	
-0.386902	
-0.386658	
-0.385986	
-0.387451	
-0.388428	
-0.388367	
-0.388123	
-0.387268	
-0.390808	
-0.390442	
-0.390137	
-0.389832	
-0.389099	
-0.388611	
-0.388489	
-0.390076	
-0.390137	
-0.391052	
-0.39209	
-0.389893	
-0.3927	
-0.393066	
-0.393127	
-0.392029	
-0.39209	
-0.393066	
-0.392761	
-0.392883	
-0.392334	
-0.391846	
-0.392578	
-0.391663	
-0.392517	
-0.391968	
-0.392334	
-0.392029	
-0.39093	
-0.390564	
-0.390076	
-0.391113	
-0.390076	
-0.389282	
-0.389343	
-0.387939	
-0.389404	
-0.38916	
-0.38916	
-0.387329	
-0.388245	
-0.387451	
-0.38739	
-0.388794	
-0.387634	
-0.387451	
-0.386719	
-0.386169	
-0.38678	
-0.387329	
-0.387024	
-0.385925	
-0.386414	
-0.385803	
-0.385864	
-0.387451	
-0.385864	
-0.385681	
-0.385498	
-0.386047	
-0.385315	
-0.386536	
-0.38623	
-0.384583	
-0.387146	
-0.388062	
-0.387451	
-0.388489	
-0.386841	
-0.386414	
-0.386047	
-0.386963	
-0.387024	
-0.386841	
-0.386658	
-0.385559	
-0.385803	
-0.38562	
-0.386658	
-0.387817	
-0.385864	
-0.38623	
-0.385437	
-0.386292	
-0.386414	
-0.386963	
-0.385925	
-0.385071	
-0.386169	
-0.385071	
-0.385437	
-0.384705	
-0.385132	
-0.385559	
-0.384277	
-0.387146	
-0.387024	
-0.387939	
-0.387146	
-0.38678	
-0.387573	
-0.387329	
-0.388245	
-0.387817	
-0.388245	
-0.388245	
-0.387146	
-0.388733	
-0.388733	
-0.389771	
-0.38855	
-0.387024	
-0.387939	
-0.387817	
-0.388611	
-0.387878	
-0.387939	
-0.387695	
-0.386475	
-0.387634	
-0.388	
-0.387939	
-0.387451	
-0.386414	
-0.387024	
-0.386169	
-0.387573	
-0.387146	
-0.386169	
-0.38623	
-0.384888	
-0.387329	
-0.387085	
-0.387024	
-0.386108	
-0.385132	
-0.386169	
-0.385132	
-0.387146	
-0.38623	
-0.386719	
-0.386108	
-0.384583	
-0.385742	
-0.385986	
-0.386292	
-0.385681	
-0.384583	
-0.384766	
-0.384216	
-0.385681	
-0.384399	
-0.384155	
-0.383362	
-0.381836	
-0.382751	
-0.382751	
-0.383789	
-0.381836	
-0.381042	
-0.381531	
-0.38092	
-0.382324	
-0.381165	
-0.381348	
-0.381042	
-0.380249	
-0.382324	
-0.382141	
-0.38092	
-0.381287	
-0.381775	
-0.381287	
-0.38147	
-0.383972	
-0.382568	
-0.382996	
-0.383423	
-0.382813	
-0.384949	
-0.385437	
-0.385559	
-0.385864	
-0.385254	
-0.385742	
-0.386414	
-0.388428	
-0.387634	
-0.388184	
-0.387939	
-0.388184	
-0.388977	
-0.389099	
-0.389526	
-0.388855	
-0.387756	
-0.389099	
-0.388977	
-0.389587	
-0.389465	
-0.389465	
-0.389465	
-0.389587	
-0.389893	
-0.390198	
-0.389221	
-0.388062	
-0.386047	
-0.385681	
-0.387207	
-0.388428	
-0.38855	
-0.387512	
-0.387878	
-0.387085	
-0.387756	
-0.387939	
-0.387024	
-0.386658	
-0.385681	
-0.386108	
-0.385559	
-0.385315	
-0.386475	
-0.384888	
-0.384094	
-0.384888	
-0.384766	
-0.385071	
-0.384644	
-0.385071	
-0.383301	
-0.383484	
-0.384338	
-0.384949	
-0.38562	
-0.384521	
-0.384399	
-0.384583	
-0.385193	
-0.384949	
-0.385559	
-0.385559	
-0.385071	
-0.387207	
-0.388	
-0.387756	
-0.388306	
-0.387634	
-0.386292	
-0.387024	
-0.387451	
-0.388245	
-0.386719	
-0.387634	
-0.385803	
-0.385559	
-0.38678	
-0.386963	
-0.387207	
-0.386597	
-0.385376	
-0.38562	
-0.38623	
-0.38678	
-0.385681	
-0.386108	
-0.385071	
-0.385376	
-0.385132	
-0.385315	
-0.385986	
-0.38501	
-0.384094	
-0.384949	
-0.384583	
-0.38678	
-0.384399	
-0.385559	
-0.384094	
-0.384338	
-0.385071	
-0.385254	
-0.385681	
-0.384888	
-0.384338	
-0.384583	
-0.385193	
-0.385498	
-0.384766	
-0.385803	
-0.384705	
-0.385803	
-0.38623	
-0.386353	
-0.387207	
-0.387207	
-0.385864	
-0.387146	
-0.386169	
-0.388428	
-0.387024	
-0.387878	
-0.387756	
-0.387207	
-0.388306	
-0.389099	
-0.389099	
-0.388916	
-0.388672	
-0.389404	
-0.38855	
-0.390198	
-0.389648	
-0.389648	
-0.389099	
-0.389099	
-0.389404	
-0.389343	
-0.389709	
-0.388916	
-0.388977	
-0.389404	
-0.388367	
-0.390869	
-0.389465	
-0.389832	
-0.388672	
-0.38855	
-0.38916	
-0.388855	
-0.388672	
-0.387573	
-0.386353	
-0.386414	
-0.385681	
-0.38678	
-0.386047	
-0.386719	
-0.38678	
-0.387268	
-0.386841	
-0.386353	
-0.385498	
-0.38501	
-0.384094	
-0.383972	
-0.383667	
-0.385681	
-0.384216	
-0.38446	
-0.383118	
-0.383484	
-0.384827	
-0.384277	
-0.38446	
-0.384155	
-0.38385	
-0.384827	
-0.383728	
-0.386047	
-0.385193	
-0.386292	
-0.385986	
-0.386414	
-0.386719	
-0.386719	
-0.387512	
-0.387146	
-0.387207	
-0.387329	
-0.387207	
-0.389587	
-0.388489	
-0.389648	
-0.38855	
-0.389954	
-0.389587	
-0.389282	
-0.389648	
-0.389465	
-0.388855	
-0.389893	
-0.389709	
-0.392151	
-0.390442	
-0.391357	
-0.391052	
-0.391602	
-0.391418	
-0.391602	
-0.391663	
-0.390991	
-0.39032	
-0.391968	
-0.390808	
-0.391357	
-0.389709	
-0.389954	
-0.389587	
-0.390503	
-0.391479	
-0.389709	
-0.390991	
-0.391235	
-0.389587	
-0.39093	
-0.39032	
-0.3927	
-0.391235	
-0.391418	
-0.390503	
-0.390747	
-0.39093	
-0.389832	
-0.390991	
-0.391052	
-0.390198	
-0.391113	
-0.390808	
-0.392334	
-0.391052	
-0.391479	
-0.390808	
-0.391418	
-0.392212	
-0.391663	
-0.392395	
-0.391724	
-0.390625	
-0.390747	
-0.389954	
-0.392395	
-0.390381	
-0.39032	
-0.389221	
-0.38916	
-0.39032	
-0.38916	
-0.388855	
-0.388489	
-0.388	
-0.388733	
-0.387878	
-0.389832	
-0.388794	
-0.388916	
-0.388794	
-0.388611	
-0.389282	
-0.388977	
-0.389343	
-0.389526	
-0.389465	
-0.389099	
-0.389221	
-0.391785	
-0.390198	
-0.390381	
-0.390015	
-0.389526	
-0.390686	
-0.390564	
-0.390808	
-0.389954	
-0.39032	
-0.390808	
-0.390198	
-0.391968	
-0.390503	
-0.390869	
-0.391174	
-0.39032	
-0.391418	
-0.391052	
-0.391907	
-0.391479	
-0.391541	
-0.391541	
-0.391235	
-0.392761	
-0.39209	
-0.392517	
-0.392578	
-0.393127	
-0.394043	
-0.394104	
-0.39502	
-0.39502	
-0.394653	
-0.394958	
-0.394592	
-0.396301	
-0.396423	
-0.396118	
-0.397278	
-0.395813	
-0.396729	
-0.396484	
-0.396606	
-0.396057	
-0.395813	
-0.395752	
-0.394958	
-0.396484	
-0.39563	
-0.39502	
-0.395386	
-0.394592	
-0.394226	
-0.394592	
-0.393372	
-0.393127	
-0.392334	
-0.392273	
-0.390686	
-0.392639	
-0.391602	
-0.390442	
-0.390747	
-0.39032	
-0.389648	
-0.389954	
-0.389221	
-0.389282	
-0.387756	
-0.388306	
-0.388	
-0.38916	
-0.388916	
-0.388245	
-0.388855	
-0.388123	
-0.386902	
-0.388489	
-0.38678	
-0.387695	
-0.387756	
-0.387756	
-0.38739	
-0.39093	
-0.391418	
-0.390808	
-0.391174	
-0.390198	
-0.389771	
-0.391113	
-0.390198	
-0.391296	
-0.390381	
-0.390198	
-0.389832	
-0.391968	
-0.391541	
-0.392334	
-0.392456	
-0.391846	
-0.392395	
-0.393127	
-0.392517	
-0.392639	
-0.392944	
-0.392944	
-0.392212	
-0.394348	
-0.393372	
-0.394104	
-0.393494	
-0.392273	
-0.392639	
-0.394165	
-0.392273	
-0.39325	
-0.392761	
-0.391541	
-0.390991	
-0.391235	
-0.390564	
-0.391174	
-0.390686	
-0.39032	
-0.391052	
-0.391113	
-0.390442	
-0.391052	
-0.39093	
-0.39032	
-0.389893	
-0.39093	
-0.391418	
-0.39093	
-0.391052	
-0.390808	
-0.391174	
-0.392517	
-0.391235	
-0.391785	
-0.391724	
-0.390808	
-0.391357	
-0.392456	
-0.392456	
-0.392822	
-0.392456	
-0.392639	
-0.393005	
-0.393188	
-0.392761	
-0.392761	
-0.393311	
-0.392578	
-0.391846	
-0.39325	
-0.393066	
-0.393921	
-0.392944	
-0.392029	
-0.392761	
-0.393799	
-0.392822	
-0.393372	
-0.392517	
-0.392151	
-0.392517	
-0.393127	
-0.392456	
-0.392273	
-0.392151	
-0.391968	
-0.390747	
-0.391235	
-0.391174	
-0.390991	
-0.390625	
-0.390503	
-0.390198	
-0.390747	
-0.391174	
-0.390442	
-0.389038	
-0.389099	
-0.389465	
-0.388489	
-0.388367	
-0.389771	
-0.388123	
-0.387268	
-0.387817	
-0.388611	
-0.388977	
-0.388489	
-0.388489	
-0.388489	
-0.388245	
-0.388062	
-0.388245	
-0.389099	
-0.388245	
-0.38739	
-0.388245	
-0.388794	
-0.389221	
-0.389832	
-0.389221	
-0.390137	
-0.390259	
-0.390198	
-0.391357	
-0.392578	
-0.391785	
-0.390442	
-0.390076	
-0.39032	
-0.391724	
-0.391968	
-0.392212	
-0.393433	
-0.392761	
-0.392029	
-0.393372	
-0.394104	
-0.394104	
-0.393005	
-0.394043	
-0.394592	
-0.395081	
-0.394409	
-0.393311	
-0.394775	
-0.393921	
-0.393494	
-0.392822	
-0.393738	
-0.393188	
-0.392029	
-0.392273	
-0.392395	
-0.392822	
-0.391968	
-0.391846	
-0.390747	
-0.390442	
-0.390442	
-0.390137	
-0.389771	
-0.389832	
-0.388916	
-0.388672	
-0.38916	
-0.389343	
-0.389099	
-0.389038	
-0.389587	
-0.388428	
-0.388672	
-0.388	
-0.388367	
-0.388	
-0.387146	
-0.38739	
-0.386963	
-0.387451	
-0.387695	
-0.387573	
-0.387634	
-0.38623	
-0.387451	
-0.386658	
-0.387329	
-0.387268	
-0.386902	
-0.389526	
-0.389221	
-0.389343	
-0.388428	
-0.388245	
-0.388489	
-0.387634	
-0.387756	
-0.387756	
-0.388062	
-0.387512	
-0.387329	
-0.38739	
-0.386719	
-0.387939	
-0.38739	
-0.388428	
-0.387817	
-0.386963	
-0.387451	
-0.387634	
-0.386108	
-0.386902	
-0.387268	
-0.387512	
-0.385498	
-0.386536	
-0.386169	
-0.387573	
-0.387512	
-0.386902	
-0.388123	
-0.388855	
-0.387146	
-0.388306	
-0.388367	
-0.388489	
-0.388	
-0.38916	
-0.389465	
-0.390137	
-0.389587	
-0.388977	
-0.389648	
-0.389893	
-0.389343	
-0.389587	
-0.388855	
-0.389221	
-0.388	
-0.389465	
-0.389099	
-0.389587	
-0.389221	
-0.388123	
-0.38855	
-0.387207	
-0.387573	
-0.388489	
-0.388	
-0.388611	
-0.387817	
-0.388367	
-0.388062	
-0.388306	
-0.387329	
-0.387207	
-0.388245	
-0.386536	
-0.386963	
-0.387146	
-0.38678	
-0.387024	
-0.38623	
-0.38739	
-0.387085	
-0.38739	
-0.38739	
-0.385864	
-0.387146	
-0.386169	
-0.386292	
-0.386963	
-0.386414	
-0.386658	
-0.386047	
-0.386292	
-0.385681	
-0.385437	
-0.385193	
-0.384827	
-0.384033	
-0.382568	
-0.383728	
-0.383118	
-0.382019	
-0.383362	
-0.38269	
-0.382629	
-0.383057	
-0.382629	
-0.382507	
-0.382996	
-0.383423	
-0.382324	
-0.382813	
-0.383362	
-0.38208	
-0.383728	
-0.383301	
-0.384338	
-0.384949	
-0.384888	
-0.385193	
-0.386414	
-0.386902	
-0.385254	
-0.387085	
-0.387085	
-0.387024	
-0.388123	
-0.387878	
-0.389099	
-0.389587	
-0.390137	
-0.390564	
-0.39093	
-0.390503	
-0.390259	
-0.390076	
-0.390564	
-0.389404	
-0.390503	
-0.390503	
-0.39093	
-0.391479	
-0.391602	
-0.391113	
-0.391052	
-0.391296	
-0.390564	
-0.388916	
-0.388428	
-0.387512	
-0.388428	
-0.38855	
-0.389099	
-0.389526	
-0.389099	
-0.389771	
-0.389404	
-0.387878	
-0.387573	
-0.387573	
-0.38739	
-0.386169	
-0.387085	
-0.386536	
-0.386414	
-0.386902	
-0.386047	
-0.387268	
-0.386475	
-0.385986	
-0.385803	
-0.385559	
-0.38501	
-0.385193	
-0.385132	
-0.38562	
-0.384888	
-0.387268	
-0.386047	
-0.386902	
-0.386597	
-0.386475	
-0.386108	
-0.386353	
-0.386353	
-0.387573	
-0.389221	
-0.389587	
-0.388062	
-0.389343	
-0.388733	
-0.389648	
-0.388367	
-0.388489	
-0.388977	
-0.388916	
-0.388	
-0.388428	
-0.387878	
-0.387756	
-0.38678	
-0.387634	
-0.388062	
-0.387512	
-0.38739	
-0.387695	
-0.386902	
-0.386658	
-0.386963	
-0.386353	
-0.386658	
-0.38678	
-0.386536	
-0.386597	
-0.386841	
-0.387451	
-0.386963	
-0.386414	
-0.386536	
-0.385803	
-0.385681	
-0.386597	
-0.385803	
-0.385803	
-0.385986	
-0.386414	
-0.386292	
-0.386719	
-0.386414	
-0.386658	
-0.387085	
-0.385498	
-0.386536	
-0.387695	
-0.387268	
-0.387451	
-0.387695	
-0.388306	
-0.389038	
-0.388733	
-0.388367	
-0.388672	
-0.388794	
-0.387512	
-0.388672	
-0.389282	
-0.389526	
-0.390198	
-0.390198	
-0.38916	
-0.391663	
-0.391113	
-0.390747	
-0.391235	
-0.39093	
-0.389648	
-0.39093	
-0.390442	
-0.390747	
-0.390808	
-0.39093	
-0.390625	
-0.391479	
-0.391113	
-0.39032	
-0.390686	
-0.391052	
-0.389221	
-0.390564	
-0.389771	
-0.389832	
-0.389893	
-0.389526	
-0.388245	
-0.389526	
-0.388306	
-0.388306	
-0.387817	
-0.387939	
-0.387146	
-0.388489	
-0.388794	
-0.388123	
-0.38739	
-0.386292	
-0.385193	
-0.386841	
-0.385986	
-0.385681	
-0.385132	
-0.386292	
-0.385193	
-0.384521	
-0.383728	
-0.384949	
-0.38562	
-0.385681	
-0.385193	
-0.386597	
-0.386414	
-0.387024	
-0.386658	
-0.387085	
-0.386353	
-0.387451	
-0.386597	
-0.386963	
-0.388	
-0.388184	
-0.388062	
-0.389709	
-0.389282	
-0.39032	
-0.38916	
-0.390076	
-0.389587	
-0.389587	
-0.39032	
-0.389832	
-0.390808	
-0.390198	
-0.390747	
-0.392151	
-0.390747	
-0.392456	
-0.391663	
-0.392151	
-0.391296	
-0.391479	
-0.392639	
-0.391846	
-0.392395	
-0.3927	
-0.392639	
-0.393616	
-0.392883	
-0.393921	
-0.391052	
-0.391235	
-0.390869	
-0.39032	
-0.390991	
-0.391357	
-0.391541	
-0.391663	
-0.391846	
-0.393188	
-0.392029	
-0.392273	
-0.391602	
-0.391785	
	
