E:\DOCUMENTS AND SETTINGS\JPOTAS\MEUS DOCUMENTOS\UFRJ\RSCI-BM 12 WK SERIES\070803-RSCI-BM-11\RSCI-BM-11-REMG\070803-RSCI-BM-11-REMG-0016.ACQ
0.025000 msec/sample
1 channel
Analog input
Volts
CH1	
2000	
-0.390015	
-0.390747	
-0.390198	
-0.390015	
-0.390686	
-0.391663	
-0.391785	
-0.391541	
-0.39032	
-0.391174	
-0.389893	
-0.390564	
-0.389282	
-0.390076	
-0.390198	
-0.390686	
-0.390686	
-0.390686	
-0.39093	
-0.390381	
-0.390442	
-0.389893	
-0.390198	
-0.390076	
-0.388489	
-0.390198	
-0.390869	
-0.390564	
-0.390442	
-0.390137	
-0.389526	
-0.387878	
-0.388306	
-0.386719	
-0.387939	
-0.388245	
-0.387573	
-0.388123	
-0.387756	
-0.388489	
-0.389709	
-0.389404	
-0.389099	
-0.388	
-0.38855	
-0.388123	
-0.387329	
-0.385315	
-0.386963	
-0.388367	
-0.389343	
-0.390503	
-0.390198	
-0.390015	
-0.389282	
-0.389526	
-0.389526	
-0.388	
-0.38916	
-0.388	
-0.389526	
-0.389404	
-0.389465	
-0.390137	
-0.389648	
-0.390015	
-0.388489	
-0.390137	
-0.387939	
-0.389221	
-0.38855	
-0.387878	
-0.389038	
-0.389221	
-0.389587	
-0.389526	
-0.390015	
-0.388733	
-0.38855	
-0.389526	
-0.38855	
-0.389038	
-0.388184	
-0.388733	
-0.388977	
-0.389221	
-0.389587	
-0.388977	
-0.389954	
-0.38855	
-0.388977	
-0.38855	
-0.388489	
-0.388	
-0.386414	
-0.387695	
-0.387939	
-0.387756	
-0.388306	
-0.387695	
-0.388245	
-0.387268	
-0.388245	
-0.38678	
-0.387085	
-0.38739	
-0.386719	
-0.386902	
-0.387085	
-0.387329	
-0.387634	
-0.388916	
-0.386902	
-0.386597	
-0.387634	
-0.386414	
-0.387634	
-0.38739	
-0.388428	
-0.389221	
-0.389526	
-0.39032	
-0.39032	
-0.391724	
-0.39032	
-0.390869	
-0.391174	
-0.390503	
-0.391663	
-0.390442	
-0.391968	
-0.39209	
-0.393188	
-0.394287	
-0.393799	
-0.393921	
-0.393311	
-0.393616	
-0.3927	
-0.392822	
-0.392578	
-0.392212	
-0.392334	
-0.392334	
-0.392578	
-0.392395	
-0.393127	
-0.391846	
-0.390564	
-0.391479	
-0.389221	
-0.390198	
-0.389221	
-0.389587	
-0.388977	
-0.388916	
-0.389038	
-0.388489	
-0.389587	
-0.388	
-0.387146	
-0.387939	
-0.386719	
-0.387329	
-0.385742	
-0.386658	
-0.387024	
-0.386902	
-0.387634	
-0.387634	
-0.387878	
-0.386902	
-0.387756	
-0.386108	
-0.386475	
-0.38623	
-0.386169	
-0.386597	
-0.386719	
-0.387085	
-0.387146	
-0.387268	
-0.386597	
-0.38678	
-0.387878	
-0.385376	
-0.387024	
-0.386353	
-0.387146	
-0.388	
-0.388428	
-0.388428	
-0.388611	
-0.38916	
-0.388794	
-0.38855	
-0.389038	
-0.385254	
-0.38147	
-0.38031	
-0.380798	
-0.38208	
-0.382202	
-0.386475	
-0.390564	
-0.39093	
-0.390076	
-0.390015	
-0.390198	
-0.389099	
-0.389282	
-0.386902	
-0.387939	
-0.387817	
-0.388	
-0.389099	
-0.389648	
-0.390015	
-0.390564	
-0.391418	
-0.389526	
-0.389709	
-0.38916	
-0.388611	
-0.389709	
-0.389893	
-0.389587	
-0.390442	
-0.390442	
-0.390259	
-0.390015	
-0.390259	
-0.389221	
-0.390503	
-0.389221	
-0.389893	
-0.389771	
-0.389893	
-0.390381	
-0.39093	
-0.391052	
-0.390198	
-0.390076	
-0.390503	
-0.390259	
-0.390381	
-0.388306	
-0.390015	
-0.389709	
-0.389709	
-0.390686	
-0.390381	
-0.389893	
-0.389587	
-0.389709	
-0.388855	
-0.390015	
-0.389771	
-0.389282	
-0.39032	
-0.390381	
-0.39032	
-0.391724	
-0.391235	
-0.390503	
-0.390564	
-0.391602	
-0.391174	
-0.391602	
-0.390564	
-0.391724	
-0.392029	
-0.391785	
-0.392395	
-0.39209	
-0.39209	
-0.391541	
-0.391235	
-0.391479	
-0.391663	
-0.391602	
-0.390198	
-0.392212	
-0.3927	
-0.392761	
-0.394165	
-0.394165	
-0.394165	
-0.39447	
-0.395081	
-0.394897	
-0.396179	
-0.397583	
-0.397522	
-0.399048	
-0.399475	
-0.40094	
-0.402893	
-0.403625	
-0.403564	
-0.40332	
-0.405701	
-0.405701	
-0.405823	
-0.405151	
-0.407227	
-0.407654	
-0.407593	
-0.409851	
-0.409668	
-0.409973	
-0.410522	
-0.412659	
-0.412109	
-0.413208	
-0.41333	
-0.415222	
-0.415466	
-0.416382	
-0.418396	
-0.418274	
-0.418274	
-0.418762	
-0.421021	
-0.421265	
-0.421509	
-0.42157	
-0.422729	
-0.424072	
-0.424805	
-0.425842	
-0.425903	
-0.425476	
-0.425659	
-0.425781	
-0.42688	
-0.427246	
-0.427612	
-0.427856	
-0.429199	
-0.430237	
-0.430603	
-0.431702	
-0.43103	
-0.430237	
-0.429199	
-0.431885	
-0.430847	
-0.430725	
-0.429932	
-0.430725	
-0.430847	
-0.430908	
-0.431824	
-0.429749	
-0.429504	
-0.428772	
-0.429871	
-0.428101	
-0.428772	
-0.427917	
-0.426147	
-0.42804	
-0.426819	
-0.428223	
-0.428345	
-0.429138	
-0.427429	
-0.426086	
-0.425964	
-0.423584	
-0.422119	
-0.420349	
-0.416992	
-0.417419	
-0.416565	
-0.416382	
-0.414246	
-0.412109	
-0.409546	
-0.4104	
-0.409241	
-0.406738	
-0.40387	
-0.402344	
-0.400757	
-0.398926	
-0.39801	
-0.396301	
-0.395447	
-0.392395	
-0.388794	
-0.390015	
-0.387817	
-0.386536	
-0.383972	
-0.382141	
-0.382324	
-0.380859	
-0.380859	
-0.378479	
-0.377747	
-0.376221	
-0.37616	
-0.375366	
-0.375305	
-0.374512	
-0.373596	
-0.374695	
-0.374573	
-0.374329	
-0.374329	
-0.373474	
-0.37207	
-0.370605	
-0.371582	
-0.370117	
-0.368103	
-0.366577	
-0.365295	
-0.36438	
-0.363342	
-0.362915	
-0.361145	
-0.360413	
-0.358643	
-0.358765	
-0.357727	
-0.356995	
-0.355652	
-0.355347	
-0.354736	
-0.354309	
-0.354858	
-0.353149	
-0.354309	
-0.352661	
-0.352356	
-0.353149	
-0.352966	
-0.353088	
-0.352417	
-0.353333	
-0.353088	
-0.354553	
-0.35498	
-0.355225	
-0.354553	
-0.354004	
-0.355896	
-0.355408	
-0.355103	
-0.354309	
-0.354553	
-0.35437	
-0.35437	
-0.354797	
-0.354004	
-0.354004	
-0.353577	
-0.355286	
-0.354553	
-0.354919	
-0.35437	
-0.354675	
-0.354919	
-0.354919	
-0.354736	
-0.354431	
-0.35553	
-0.354553	
-0.354919	
-0.356384	
-0.356201	
-0.35614	
-0.35675	
-0.357849	
-0.358154	
-0.359009	
-0.359253	
-0.360779	
-0.360718	
-0.361694	
-0.362854	
-0.363464	
-0.364258	
-0.365601	
-0.366638	
-0.367737	
-0.368835	
-0.369263	
-0.370422	
-0.370056	
-0.371643	
-0.372498	
-0.372253	
-0.372986	
-0.372559	
-0.373291	
-0.37384	
-0.375183	
-0.37439	
-0.375549	
-0.374573	
-0.375061	
-0.375671	
-0.375793	
-0.37561	
-0.37439	
-0.376465	
-0.376526	
-0.37738	
-0.377014	
-0.377747	
-0.377563	
-0.376648	
-0.377869	
-0.376709	
-0.37677	
-0.377136	
-0.37616	
-0.376648	
-0.376648	
-0.376526	
-0.376099	
-0.376709	
-0.376831	
-0.377563	
-0.377197	
-0.376709	
-0.376099	
-0.376221	
-0.377014	
-0.377258	
-0.376404	
-0.377747	
-0.377563	
-0.376587	
-0.376465	
-0.378052	
-0.378052	
-0.377869	
-0.377197	
-0.377075	
-0.378662	
-0.381165	
-0.382141	
-0.38092	
-0.380737	
-0.378845	
-0.378967	
-0.378418	
-0.378601	
-0.378662	
-0.378418	
-0.379272	
-0.378662	
-0.379395	
-0.378784	
-0.379333	
-0.377075	
-0.377197	
-0.378296	
-0.37738	
-0.376831	
-0.376099	
-0.376099	
-0.377014	
-0.377563	
-0.377075	
-0.376953	
-0.37738	
-0.376526	
-0.377136	
-0.377319	
-0.377075	
-0.376648	
-0.376465	
-0.376953	
-0.377686	
-0.377808	
-0.377075	
-0.377563	
-0.376953	
-0.377991	
-0.377563	
-0.376892	
-0.377869	
-0.377747	
-0.377502	
-0.377991	
-0.378418	
-0.378174	
-0.378052	
-0.378662	
-0.377441	
-0.379028	
-0.378845	
-0.378357	
-0.378052	
-0.378235	
-0.378662	
-0.378845	
-0.378662	
-0.379211	
-0.379089	
-0.378357	
-0.379333	
-0.38031	
-0.379028	
-0.379639	
-0.379456	
-0.378845	
-0.379944	
-0.381104	
-0.38092	
-0.380188	
-0.380615	
-0.379883	
-0.379883	
-0.380005	
-0.379578	
-0.379639	
-0.378967	
-0.380127	
-0.379883	
-0.380859	
-0.379578	
-0.380066	
-0.379333	
-0.380066	
-0.379944	
-0.378601	
-0.379272	
-0.379395	
-0.3797	
-0.380249	
-0.381165	
-0.381042	
-0.381714	
-0.381958	
-0.381653	
-0.382141	
-0.383179	
-0.382874	
-0.382202	
-0.383728	
-0.384033	
-0.385376	
-0.385437	
-0.384766	
-0.385071	
-0.384949	
-0.386169	
-0.386353	
-0.385376	
-0.385559	
-0.385986	
-0.386108	
-0.387695	
-0.38678	
-0.387451	
-0.386414	
-0.386841	
-0.386719	
-0.387085	
-0.386475	
-0.386292	
-0.385986	
-0.385254	
-0.386841	
-0.386719	
-0.386841	
-0.386169	
-0.385071	
-0.385986	
-0.385925	
-0.385437	
-0.385315	
-0.385498	
-0.384949	
-0.384888	
-0.385681	
-0.385925	
-0.384521	
-0.38501	
-0.384766	
-0.384399	
-0.384216	
-0.384338	
-0.382874	
-0.383484	
-0.382935	
-0.384216	
-0.383545	
-0.383545	
-0.382507	
-0.381531	
-0.380676	
-0.380371	
-0.380188	
-0.380432	
-0.381409	
-0.380737	
-0.381409	
-0.380859	
-0.381409	
-0.380249	
-0.381836	
-0.382019	
-0.381409	
-0.38147	
-0.380676	
-0.379395	
-0.379456	
-0.379517	
-0.38147	
-0.383423	
-0.383179	
-0.383423	
-0.382446	
-0.382263	
-0.382507	
-0.382751	
-0.382019	
-0.38208	
-0.381958	
-0.383118	
-0.38324	
-0.382263	
-0.382141	
-0.383362	
-0.382263	
-0.382507	
-0.38208	
-0.382202	
-0.382019	
-0.382202	
-0.381897	
-0.382507	
-0.382813	
-0.381714	
-0.381531	
-0.382446	
-0.382935	
-0.382568	
-0.382813	
-0.381897	
-0.38269	
-0.382629	
-0.383728	
-0.383179	
-0.382385	
-0.382813	
-0.383972	
-0.382568	
-0.382751	
-0.382996	
-0.382935	
-0.382996	
-0.382813	
-0.382813	
-0.382629	
-0.38324	
-0.382019	
-0.382568	
-0.381897	
-0.382019	
-0.382263	
-0.381958	
-0.381409	
-0.382629	
-0.382996	
-0.382568	
-0.382751	
-0.382385	
-0.382019	
-0.382996	
-0.382996	
-0.382935	
-0.382263	
-0.382813	
-0.383301	
-0.383179	
-0.383179	
-0.384583	
-0.385254	
-0.385071	
-0.385742	
-0.386169	
-0.386047	
-0.386353	
-0.38678	
-0.386047	
-0.386963	
-0.387085	
-0.387085	
-0.388489	
-0.388184	
-0.388123	
-0.390076	
-0.390076	
-0.388916	
-0.389526	
-0.388672	
-0.388794	
-0.388306	
-0.388977	
-0.388794	
-0.388611	
-0.388	
-0.38855	
-0.387756	
-0.388062	
-0.387756	
-0.387146	
-0.385803	
-0.385986	
-0.385742	
-0.386169	
-0.385864	
-0.385254	
-0.384094	
-0.385498	
-0.385559	
-0.384644	
-0.384338	
-0.384338	
-0.383789	
-0.383911	
-0.384216	
-0.38385	
-0.383911	
-0.383118	
-0.383728	
-0.382568	
-0.383362	
-0.383484	
-0.383545	
-0.381775	
-0.38269	
-0.383057	
-0.383057	
-0.383484	
-0.38269	
-0.383728	
-0.382751	
-0.384033	
-0.383118	
-0.383606	
-0.383484	
-0.383118	
-0.383789	
-0.383606	
-0.384521	
-0.38501	
-0.384583	
-0.385254	
-0.384949	
-0.385681	
-0.385193	
-0.38623	
-0.38501	
-0.385986	
-0.386597	
-0.386597	
-0.386841	
-0.38623	
-0.386597	
-0.386597	
-0.38678	
-0.386414	
-0.387024	
-0.386475	
-0.386597	
-0.38623	
-0.386108	
-0.384644	
-0.385254	
-0.38385	
-0.385254	
-0.385681	
-0.385559	
-0.385437	
-0.387756	
-0.387085	
-0.387634	
-0.387573	
-0.386841	
-0.386963	
-0.38678	
-0.386902	
-0.386597	
-0.38678	
-0.38623	
-0.386658	
-0.386536	
-0.38678	
-0.387512	
-0.38678	
-0.387268	
-0.387817	
-0.386719	
-0.386963	
-0.387085	
-0.387024	
-0.386719	
-0.387268	
-0.38623	
-0.387146	
-0.386902	
-0.387451	
-0.38739	
-0.386902	
-0.387207	
-0.387329	
-0.387573	
-0.386108	
-0.387817	
-0.387085	
-0.387085	
-0.387573	
-0.386841	
-0.387756	
-0.388062	
-0.388367	
-0.387573	
-0.387817	
-0.387329	
-0.387817	
-0.388794	
-0.387695	
-0.388245	
-0.388245	
-0.388672	
-0.388672	
-0.389099	
-0.389954	
-0.388611	
-0.388672	
-0.38916	
-0.389709	
-0.388733	
-0.389709	
-0.389404	
-0.388733	
-0.389587	
-0.390381	
-0.389465	
-0.389404	
-0.389282	
-0.389465	
-0.389343	
-0.389587	
-0.387878	
-0.388733	
-0.388123	
-0.388672	
-0.388977	
-0.389099	
-0.389038	
-0.388306	
-0.389221	
-0.389526	
-0.389648	
-0.389832	
-0.390015	
-0.390747	
-0.389038	
-0.389893	
-0.390259	
-0.389404	
-0.389587	
-0.38916	
-0.389404	
-0.389709	
-0.390381	
-0.388916	
-0.389648	
-0.390076	
-0.389771	
-0.389526	
-0.389587	
-0.389038	
-0.388855	
-0.387451	
-0.38855	
-0.388916	
-0.388245	
-0.387817	
-0.388489	
-0.387512	
-0.388489	
-0.388428	
-0.387939	
-0.387817	
-0.387939	
-0.388123	
-0.388184	
-0.388794	
-0.388611	
-0.388611	
-0.389282	
-0.38855	
-0.388306	
-0.388428	
-0.387817	
-0.388	
-0.388	
-0.388489	
-0.388672	
-0.388184	
-0.387573	
-0.388367	
-0.387268	
-0.388733	
-0.389832	
-0.387451	
-0.388672	
-0.388306	
-0.390137	
-0.388794	
-0.389771	
-0.389221	
-0.388977	
-0.389221	
-0.389282	
-0.389832	
-0.390381	
-0.389893	
-0.389771	
-0.389465	
-0.392883	
-0.391846	
-0.391846	
-0.390991	
-0.391907	
-0.390442	
-0.391052	
-0.391724	
-0.390076	
-0.390198	
-0.390015	
-0.390503	
-0.390259	
-0.390564	
-0.389648	
-0.389832	
-0.39032	
-0.389893	
-0.389282	
-0.389526	
-0.389038	
-0.389099	
-0.388306	
-0.390442	
-0.389709	
-0.389282	
-0.38916	
-0.389221	
-0.387756	
-0.389282	
-0.39032	
-0.387512	
-0.388977	
-0.388367	
-0.389526	
-0.389771	
-0.389709	
-0.38916	
-0.388977	
-0.389709	
-0.388672	
-0.389648	
-0.389221	
-0.390076	
-0.389221	
-0.387634	
-0.389282	
-0.389771	
-0.390381	
-0.389771	
-0.389832	
-0.389343	
-0.389954	
-0.390625	
-0.388611	
-0.390259	
-0.389099	
-0.388916	
-0.391113	
-0.391418	
-0.390198	
-0.390076	
-0.391785	
-0.390686	
-0.391174	
-0.392029	
-0.390686	
-0.390869	
-0.390991	
-0.391235	
-0.391846	
-0.391968	
-0.390991	
-0.39093	
-0.391724	
-0.391724	
-0.393188	
-0.390686	
-0.391296	
-0.391235	
-0.391907	
-0.392212	
-0.391968	
-0.391541	
-0.39093	
-0.391541	
-0.389404	
-0.390381	
-0.39032	
-0.38855	
-0.388733	
-0.387146	
-0.388367	
-0.388916	
-0.388916	
-0.388	
-0.387329	
-0.38739	
-0.387939	
-0.388062	
-0.386169	
-0.385986	
-0.385681	
-0.385254	
-0.386719	
-0.386658	
-0.386597	
-0.385986	
-0.386597	
-0.385803	
-0.387573	
-0.38739	
-0.386963	
-0.387146	
-0.386108	
-0.387817	
-0.388733	
-0.388977	
-0.388977	
-0.388062	
-0.389282	
-0.389404	
-0.390625	
-0.389038	
-0.390015	
-0.389587	
-0.389893	
-0.391602	
-0.391052	
-0.390991	
-0.390747	
-0.391785	
-0.39032	
-0.391846	
-0.391846	
-0.390869	
-0.391541	
-0.390747	
-0.392212	
-0.392517	
-0.392273	
-0.39209	
-0.392395	
-0.393066	
-0.392212	
-0.394043	
-0.392456	
-0.3927	
-0.392883	
-0.391663	
-0.392822	
-0.392517	
-0.39325	
-0.391968	
-0.391724	
-0.391541	
-0.391724	
-0.392639	
-0.391113	
-0.390625	
-0.390808	
-0.391113	
-0.391785	
-0.391418	
-0.390564	
-0.39032	
-0.391602	
-0.389771	
-0.390808	
-0.39032	
-0.389893	
-0.389648	
-0.388916	
-0.390015	
-0.390015	
-0.390625	
-0.389404	
-0.388672	
-0.389038	
-0.390808	
-0.39209	
-0.390808	
-0.391296	
-0.389099	
-0.38916	
-0.389526	
-0.389099	
-0.389893	
-0.389343	
-0.390137	
-0.389038	
-0.389709	
-0.389343	
-0.389404	
-0.389099	
-0.387207	
-0.389771	
-0.389038	
-0.389587	
-0.388794	
-0.387817	
-0.389526	
-0.38916	
-0.390137	
-0.388977	
-0.389099	
-0.389038	
-0.388489	
-0.389648	
-0.389221	
-0.388916	
-0.388733	
-0.388672	
-0.388489	
-0.38916	
-0.389832	
-0.388306	
-0.389038	
-0.388428	
-0.389221	
-0.389893	
-0.389587	
-0.389404	
-0.388855	
-0.389709	
-0.388306	
-0.390137	
-0.388916	
-0.388855	
-0.388367	
-0.38855	
-0.388733	
-0.388794	
-0.388672	
-0.387756	
-0.387878	
-0.387329	
-0.387451	
-0.388184	
-0.386658	
-0.387817	
-0.385681	
-0.387146	
-0.387512	
-0.387634	
-0.387268	
-0.386536	
-0.387695	
-0.386841	
-0.387939	
-0.386841	
-0.387268	
-0.386902	
-0.386353	
-0.387695	
-0.387939	
-0.387573	
-0.388245	
-0.386536	
-0.387695	
-0.387634	
-0.388489	
-0.386536	
-0.387207	
-0.387268	
-0.387573	
-0.388245	
-0.387512	
-0.38739	
-0.387146	
-0.388916	
-0.387329	
-0.388062	
-0.388062	
-0.387573	
-0.387451	
-0.38739	
-0.387573	
-0.387451	
-0.387756	
-0.387573	
-0.386963	
-0.388489	
-0.38739	
-0.388489	
-0.387024	
-0.387878	
-0.386841	
-0.388184	
-0.388489	
-0.388062	
-0.388733	
-0.388367	
-0.388428	
-0.388184	
-0.388977	
-0.389221	
-0.388245	
-0.388	
-0.388184	
-0.388367	
-0.389465	
-0.388245	
-0.388428	
-0.387878	
-0.387939	
-0.387024	
-0.388672	
-0.388672	
-0.388306	
-0.387512	
-0.388428	
-0.389282	
-0.388245	
-0.388794	
-0.388	
-0.38855	
-0.387878	
-0.387817	
-0.388977	
-0.388245	
-0.388428	
-0.388062	
-0.38855	
-0.38916	
-0.388489	
-0.388977	
-0.388367	
-0.388184	
-0.387939	
-0.388	
-0.386353	
-0.385681	
-0.38446	
-0.384644	
-0.386963	
-0.386536	
-0.387024	
-0.385803	
-0.38739	
-0.386719	
-0.386414	
-0.386414	
-0.386475	
-0.386841	
-0.38623	
-0.386597	
-0.386658	
-0.385559	
-0.385986	
-0.385437	
-0.387451	
-0.388367	
-0.388916	
-0.388245	
-0.387756	
-0.387085	
-0.387695	
-0.387573	
-0.388306	
-0.388	
-0.388123	
-0.388062	
-0.387512	
-0.388245	
-0.387939	
-0.387939	
-0.387878	
-0.387573	
-0.38739	
-0.388611	
-0.387634	
-0.387207	
-0.387512	
-0.387756	
-0.387329	
-0.387878	
-0.387329	
-0.387146	
-0.387573	
-0.386963	
-0.387756	
-0.387695	
-0.387512	
-0.388	
-0.38739	
-0.387329	
-0.387329	
-0.38678	
-0.386536	
-0.386597	
-0.385925	
-0.386047	
-0.387024	
-0.386719	
-0.386536	
-0.386047	
-0.386169	
-0.386475	
-0.384644	
-0.385986	
-0.385864	
-0.385193	
-0.384949	
-0.385925	
-0.386475	
-0.385376	
-0.386475	
-0.385498	
-0.385498	
-0.385742	
-0.385559	
-0.38562	
-0.384827	
-0.385498	
-0.385376	
-0.386414	
-0.386047	
-0.386841	
-0.386658	
-0.387146	
-0.387756	
-0.387512	
-0.388245	
-0.388733	
-0.388733	
-0.388794	
-0.38916	
-0.39032	
-0.389648	
-0.390503	
-0.390625	
-0.391052	
-0.391357	
-0.391785	
-0.391846	
-0.391968	
-0.391663	
-0.391052	
-0.391418	
-0.391418	
-0.390747	
-0.390137	
-0.390381	
-0.390381	
-0.389465	
-0.389832	
-0.391052	
-0.389526	
-0.389404	
-0.388733	
-0.389526	
-0.388062	
-0.388367	
-0.386841	
-0.387085	
-0.386475	
-0.386719	
-0.385925	
-0.386414	
-0.385376	
-0.386536	
-0.386292	
-0.386169	
-0.385803	
-0.387024	
-0.385925	
-0.385437	
-0.385437	
-0.385071	
-0.38562	
-0.384949	
-0.385193	
-0.385315	
-0.384949	
-0.385254	
-0.385376	
-0.385254	
-0.385254	
-0.385986	
-0.384094	
-0.38385	
-0.385315	
-0.384583	
-0.385925	
-0.384949	
-0.386353	
-0.385315	
-0.386597	
-0.386963	
-0.386597	
-0.387573	
-0.386719	
-0.387268	
-0.386353	
-0.386719	
-0.387268	
-0.387939	
-0.388245	
-0.387695	
-0.388611	
-0.388733	
-0.388245	
-0.388489	
-0.388611	
-0.388916	
-0.387024	
-0.388062	
-0.388306	
-0.388489	
-0.388367	
-0.388123	
-0.386658	
-0.385864	
-0.386536	
-0.385864	
-0.38678	
-0.386536	
-0.38855	
-0.389343	
-0.388489	
-0.389587	
-0.388855	
-0.388916	
-0.388306	
-0.388123	
-0.388245	
-0.387756	
-0.389343	
-0.387573	
-0.388733	
-0.388367	
-0.388489	
-0.388977	
-0.388916	
-0.389282	
-0.388367	
-0.38855	
-0.387634	
-0.387695	
-0.389038	
-0.388672	
-0.388611	
-0.388672	
-0.38916	
-0.388733	
-0.389587	
-0.389526	
-0.388672	
-0.387878	
-0.388062	
-0.388733	
-0.388245	
-0.388367	
-0.388733	
-0.387695	
-0.388733	
-0.388367	
-0.389954	
-0.388611	
-0.388306	
-0.388306	
-0.388062	
-0.388733	
-0.388611	
-0.389954	
-0.38916	
-0.389526	
-0.390076	
-0.390564	
-0.390686	
-0.389465	
-0.391113	
-0.388977	
-0.390259	
-0.389587	
-0.390381	
-0.390686	
-0.389282	
-0.391724	
-0.390076	
-0.391479	
-0.391296	
-0.391235	
-0.390259	
-0.389893	
-0.390808	
-0.390564	
-0.390442	
-0.390503	
-0.39032	
-0.39093	
-0.39032	
-0.391724	
-0.389893	
-0.390381	
-0.389587	
-0.39032	
-0.390259	
-0.39093	
-0.391357	
-0.390991	
-0.391479	
-0.391479	
-0.391907	
-0.391235	
-0.390137	
-0.390808	
-0.389404	
-0.391174	
-0.389832	
-0.390442	
-0.390259	
-0.390747	
-0.391296	
-0.391113	
-0.391602	
-0.389587	
-0.39032	
-0.389099	
-0.388611	
-0.388733	
-0.389221	
-0.389832	
-0.389099	
-0.389221	
-0.389893	
-0.389771	
-0.390686	
-0.388611	
-0.389465	
-0.388855	
-0.389893	
-0.388672	
-0.388733	
-0.388855	
-0.389893	
-0.390381	
-0.389587	
-0.390198	
-0.39032	
-0.389526	
-0.389343	
-0.388855	
-0.388855	
-0.38916	
-0.389343	
-0.389404	
-0.390564	
-0.390198	
-0.390503	
-0.390503	
-0.390137	
-0.389893	
-0.389038	
-0.389832	
-0.390015	
-0.390564	
-0.390564	
-0.388916	
-0.390564	
-0.390808	
-0.392273	
-0.391541	
-0.390503	
-0.391541	
-0.391174	
-0.393066	
-0.393433	
-0.393066	
-0.392578	
-0.392151	
-0.392395	
-0.391846	
-0.392883	
-0.392639	
-0.391663	
-0.391357	
-0.390625	
-0.390869	
-0.391113	
-0.391052	
-0.391296	
-0.391418	
-0.39093	
-0.391052	
-0.391113	
-0.391602	
-0.390381	
-0.390442	
-0.390503	
-0.390259	
-0.390198	
-0.390808	
-0.390076	
-0.39032	
-0.390808	
-0.390991	
-0.39093	
-0.389648	
-0.389709	
-0.389099	
-0.390503	
-0.390137	
-0.390015	
-0.389771	
-0.390259	
-0.391113	
-0.390808	
-0.391785	
-0.390686	
-0.390747	
-0.389465	
-0.390625	
-0.390442	
-0.39093	
-0.390869	
-0.389954	
-0.39093	
-0.391846	
-0.392029	
-0.391785	
-0.390808	
-0.391174	
-0.390808	
-0.390991	
-0.391846	
-0.39209	
-0.391846	
-0.391724	
-0.392578	
-0.393005	
-0.392944	
-0.392944	
-0.391418	
-0.391602	
-0.392212	
-0.392456	
-0.392578	
-0.392456	
-0.39209	
-0.393127	
-0.393555	
-0.394104	
-0.394409	
-0.39325	
-0.392395	
-0.392761	
-0.393982	
-0.3927	
-0.392151	
-0.39209	
-0.392029	
-0.391357	
-0.391785	
-0.390747	
-0.390259	
-0.389709	
-0.388672	
-0.388306	
-0.388855	
-0.38916	
-0.389282	
-0.388977	
-0.388916	
-0.38855	
-0.388855	
-0.388123	
-0.387939	
-0.385681	
-0.386841	
-0.386841	
-0.387268	
-0.387512	
-0.387695	
-0.387634	
-0.388489	
-0.388733	
-0.389282	
-0.389709	
-0.388672	
-0.388855	
-0.388855	
-0.389893	
-0.389954	
-0.390076	
-0.389832	
-0.390259	
-0.391174	
-0.390991	
-0.391724	
-0.391663	
-0.390625	
-0.391418	
-0.391663	
-0.391907	
-0.392639	
-0.392273	
-0.391602	
-0.39209	
-0.393066	
-0.393738	
-0.393555	
-0.392822	
-0.393005	
-0.392639	
-0.393555	
-0.393311	
-0.393188	
-0.392944	
-0.393555	
-0.393188	
-0.393982	
-0.394775	
-0.394897	
-0.393188	
-0.39325	
-0.392822	
-0.393799	
-0.393677	
-0.393311	
-0.39209	
-0.392517	
-0.393433	
-0.393433	
-0.39325	
-0.393066	
-0.39209	
-0.391968	
-0.392639	
-0.39209	
-0.391602	
-0.391541	
-0.391846	
-0.391724	
-0.392639	
-0.391663	
-0.391113	
-0.389832	
-0.389648	
-0.390442	
-0.391479	
-0.391418	
-0.390747	
-0.389954	
-0.39093	
-0.3927	
-0.393494	
-0.393311	
-0.392517	
-0.389465	
-0.388489	
-0.389526	
-0.390503	
-0.390381	
-0.390564	
-0.390564	
-0.390747	
-0.391479	
-0.391479	
-0.391296	
-0.390259	
-0.389832	
-0.390564	
-0.390442	
-0.390076	
-0.390015	
-0.390198	
-0.389832	
-0.390259	
-0.390747	
-0.390625	
-0.39093	
-0.390015	
-0.38916	
-0.389465	
-0.390442	
-0.390137	
-0.390259	
-0.390381	
-0.390625	
-0.390625	
-0.391235	
-0.39093	
-0.391418	
-0.390076	
-0.390015	
-0.389648	
-0.390747	
-0.390381	
-0.389893	
-0.390503	
-0.390442	
-0.390686	
-0.39093	
-0.391418	
-0.390137	
-0.38916	
-0.389465	
-0.388245	
-0.389099	
-0.389038	
-0.388428	
-0.388489	
-0.388977	
-0.390015	
-0.388977	
-0.389709	
-0.388062	
-0.387939	
-0.388367	
-0.388306	
-0.388672	
-0.388367	
-0.388733	
-0.388428	
-0.388855	
-0.388794	
-0.389404	
-0.388306	
-0.388306	
-0.388611	
-0.387817	
-0.389038	
-0.389404	
-0.387634	
-0.389099	
-0.389343	
-0.389526	
-0.389343	
-0.389404	
-0.388306	
-0.387878	
-0.387268	
-0.387573	
-0.387634	
-0.387817	
-0.388123	
-0.387939	
-0.388672	
-0.389404	
-0.389526	
-0.38916	
-0.387634	
-0.388062	
-0.389343	
-0.388794	
-0.388733	
-0.388428	
-0.389343	
-0.389587	
-0.390869	
-0.390137	
-0.39032	
-0.38916	
-0.389099	
-0.389587	
-0.389282	
-0.389709	
-0.390015	
-0.388611	
-0.389648	
-0.390137	
-0.390686	
-0.390503	
-0.389648	
-0.388977	
-0.388672	
	
